Program Time [s],data 0,data 1
8.97368,418.99,508.30
8.99386,419.10,505.70
9.01422,419.74,510.25
9.03337,422.99,512.20
9.05318,420.65,509.64
9.07396,422.43,513.33
9.09552,416.66,508.20
9.11388,415.12,504.07
9.13416,414.28,500.39
9.15540,410.88,497.58
9.17560,416.64,504.04
9.19440,413.90,500.67
9.21469,414.54,510.00
9.23484,416.75,506.32
9.25552,416.03,504.63
9.27440,415.39,504.05
9.29402,413.70,502.59
9.31390,407.50,497.70
9.33558,409.86,505.07
9.35505,411.86,505.09
9.37528,409.85,499.36
9.39636,409.77,504.75
9.41656,407.70,506.89
9.43566,411.18,505.24
9.45746,409.24,504.32
9.47716,410.43,505.24
9.49622,408.92,504.69
9.51634,411.23,502.71
9.53715,410.73,503.78
9.55740,412.22,500.88
9.57593,413.10,503.85
9.59612,412.68,501.68
9.61723,414.52,508.17
9.63581,415.78,510.37
9.65675,415.25,510.78
9.67763,418.18,518.81
9.69721,418.91,512.79
9.71744,418.61,512.34
9.73559,417.20,515.44
9.75657,419.53,513.65
9.77712,418.18,513.05
9.79695,420.64,512.54
9.81570,421.70,514.62
9.83599,422.90,515.66
9.85778,422.85,513.79
9.87657,421.71,511.87
9.89697,419.30,513.88
9.91656,420.93,512.13
9.93599,422.99,510.15
9.95617,422.53,508.90
9.97762,421.71,510.61
9.99697,421.63,507.33
10.01731,421.97,505.40
10.03742,424.15,507.33
10.05738,422.81,505.43
10.07670,423.50,503.07
10.09591,420.30,502.18
10.11744,424.67,503.44
10.13724,441.91,513.86
10.15692,459.09,524.21
10.17705,484.86,539.05
10.19764,508.39,546.23
10.21717,529.49,550.39
10.23692,548.98,553.02
10.25675,562.62,550.95
10.27706,569.88,546.93
10.29714,570.75,538.63
10.31687,571.66,528.92
10.33710,563.08,519.81
10.35591,555.18,512.23
10.37805,546.52,504.80
10.39716,534.65,500.01
10.41830,527.12,498.84
10.43817,515.93,494.84
10.45786,508.11,491.95
10.47812,498.89,491.08
10.49767,489.29,489.77
10.51675,481.04,488.32
10.53683,472.89,486.68
10.55719,467.72,491.27
10.57809,462.70,492.12
10.59725,456.04,493.20
10.61670,449.71,491.02
10.63870,447.73,490.01
10.65950,443.37,495.88
10.67960,443.58,499.10
10.69893,439.15,493.72
10.71916,437.09,495.88
10.73779,436.50,498.99
10.75781,437.30,504.61
10.77969,435.04,505.95
10.79769,433.70,507.32
10.81798,434.01,507.10
10.83950,433.02,509.50
10.85986,432.74,509.76
10.88017,433.11,511.50
10.90212,431.16,510.24
10.92253,431.30,510.69
10.94261,428.53,509.29
10.96244,429.28,507.79
10.98194,427.46,508.02
11.00307,426.94,510.39
11.02453,426.04,509.78
11.04476,424.49,507.62
11.06542,420.82,508.23
11.08397,420.66,510.87
11.10646,416.98,508.70
11.12591,416.99,508.57
11.14700,418.01,508.86
11.16625,413.34,513.44
11.18611,403.53,510.00
11.20693,388.25,517.11
11.22659,364.22,512.65
11.24756,342.88,505.60
11.26685,324.89,501.91
11.28721,301.57,492.91
11.30615,282.26,490.47
11.32566,268.02,485.56
11.34563,265.71,480.94
11.36724,265.90,476.58
11.38572,275.69,480.11
11.40654,283.79,479.01
11.42622,294.73,479.48
11.44604,303.28,478.26
11.46579,316.85,480.33
11.48585,326.89,484.71
11.50629,338.95,484.63
11.52747,346.49,487.16
11.54746,353.82,490.84
11.56692,359.71,492.91
11.58717,368.52,492.54
11.60598,371.80,491.15
11.62709,378.94,496.49
11.64755,386.23,495.07
11.66572,388.52,497.05
11.68697,393.70,498.27
11.70598,395.12,500.14
11.72662,397.84,502.82
11.74737,401.65,505.94
11.76622,402.97,503.35
11.78702,403.70,504.55
11.80647,407.37,504.39
11.82633,407.06,507.73
11.84588,410.41,504.66
11.86656,407.64,503.34
11.88568,410.72,505.45
11.90628,411.90,506.66
11.92706,410.92,506.97
11.94729,408.52,506.97
11.96666,411.68,507.69
11.98606,412.15,508.75
12.00686,412.95,508.78
12.02743,411.17,509.51
12.04720,412.66,510.41
12.06705,414.39,510.24
12.08573,414.85,510.98
12.10627,414.83,511.29
12.12663,412.06,509.42
12.14704,413.99,511.95
12.16610,414.73,512.33
12.18666,412.95,513.14
12.20606,413.18,509.43
12.22631,413.40,512.90
12.24675,413.51,512.96
12.26582,412.73,512.02
12.28672,412.29,511.55
12.30647,414.66,511.60
12.32589,410.84,506.71
12.34584,411.94,504.65
12.36634,410.18,504.36
12.38657,410.85,505.86
12.40675,413.15,504.21
12.42643,411.19,502.25
12.44573,413.88,499.96
12.46602,414.14,501.50
12.48729,411.99,501.40
12.50745,415.82,501.67
12.52656,414.54,503.81
12.54732,414.97,500.58
12.56711,412.84,502.46
12.58648,413.19,499.23
12.60719,415.12,499.49
12.62721,413.40,499.10
12.64592,411.37,500.93
12.66676,414.24,501.76
12.68637,413.56,501.72
12.70638,413.00,501.30
12.72635,414.02,501.64
12.74581,411.86,501.56
12.76565,415.51,501.83
12.78610,414.15,501.23
12.80632,414.15,500.71
12.82665,412.02,500.76
12.84652,412.21,504.50
12.86597,413.53,503.43
12.88664,415.05,505.64
12.90672,414.63,507.39
12.92756,413.98,508.21
12.94654,413.96,507.32
12.96587,414.18,504.63
12.98703,414.05,505.11
13.00728,411.10,504.65
13.02590,413.73,506.84
13.04602,413.36,507.62
13.06689,410.19,506.01
13.08590,410.01,503.92
13.10657,412.07,502.41
13.12622,411.84,505.57
13.14595,410.37,503.81
13.16704,409.25,504.68
13.18822,410.06,505.06
13.20810,407.54,506.76
13.22710,407.81,506.55
13.24763,410.50,504.83
13.26868,409.59,506.04
13.28928,413.80,505.53
13.30835,412.60,503.57
13.32980,414.27,504.94
13.34924,415.11,503.46
13.36909,416.18,505.53
13.39054,418.79,507.10
13.41043,419.79,504.74
13.43180,420.69,507.32
13.44994,423.52,511.49
13.46986,436.75,515.90
13.49166,458.75,528.68
13.51024,483.40,544.44
13.52970,508.28,554.15
13.55102,533.53,560.16
13.56968,550.94,562.70
13.59155,565.51,560.14
13.61027,570.82,555.83
13.63136,573.10,547.77
13.65097,571.15,534.56
13.67067,565.24,522.91
13.69027,556.35,515.40
13.71013,548.15,504.51
13.72978,538.37,494.49
13.74989,526.71,491.51
13.76990,517.06,487.61
13.79123,508.70,483.90
13.81122,499.07,481.00
13.83109,490.19,483.69
13.85119,480.82,483.70
13.86969,473.19,487.05
13.89017,466.49,486.83
13.91061,462.61,488.21
13.93011,456.76,490.12
13.95092,451.91,492.88
13.97060,446.22,491.71
13.99053,443.47,492.73
14.01101,441.59,494.35
14.03027,438.71,498.72
14.05016,434.80,497.56
14.06969,434.20,501.56
14.08989,433.65,502.09
14.11115,433.91,502.13
14.13095,433.31,500.66
14.15069,430.20,502.55
14.17112,430.51,503.01
14.18961,431.42,505.92
14.21084,429.89,504.24
14.23079,429.83,502.62
14.25029,429.38,503.96
14.27114,431.67,505.82
14.29061,430.77,506.04
14.31125,429.94,503.97
14.33019,429.59,502.86
14.35015,429.45,504.54
14.37145,427.98,506.11
14.38984,423.56,505.98
14.40985,413.93,506.00
14.43119,407.10,505.88
14.44963,394.59,503.27
14.46975,376.01,506.82
14.49122,357.90,502.73
14.51079,333.96,501.19
14.53000,313.68,496.23
14.55149,292.82,489.41
14.56963,274.27,483.31
14.59093,270.17,476.25
14.61090,272.98,474.25
14.63040,279.68,472.58
14.64978,288.03,473.17
14.66975,300.34,473.77
14.68993,309.64,476.92
14.70975,322.50,480.61
14.73021,335.61,480.95
14.75134,343.42,483.40
14.77023,352.92,486.11
14.79086,363.69,488.64
14.81145,372.91,489.65
14.83021,378.81,491.82
14.84972,384.52,492.90
14.87141,389.95,493.91
14.88969,398.21,496.49
14.91133,403.43,498.12
14.93131,409.74,501.26
14.95006,412.04,502.95
14.97042,414.95,500.19
14.99080,419.61,504.43
15.01039,418.23,504.57
15.03111,421.34,504.42
15.05029,421.05,503.46
15.07128,422.83,503.44
15.09169,423.71,505.94
15.10954,425.85,504.71
15.13079,425.81,505.71
15.15044,426.78,506.71
15.17101,428.32,505.69
15.19087,428.10,507.31
15.21090,428.42,508.68
15.22961,428.14,506.50
15.25056,428.80,507.30
15.27122,427.08,507.69
15.29041,425.84,509.30
15.31080,429.40,507.79
15.33143,429.94,507.26
15.34962,429.61,507.56
15.36981,428.59,508.70
15.39156,427.74,508.60
15.41120,426.33,506.86
15.43032,428.11,506.14
15.45142,427.44,509.62
15.47113,425.78,508.69
15.49102,428.15,508.58
15.51028,429.43,505.75
15.53133,427.10,508.75
15.55155,428.50,507.49
15.57027,427.32,506.23
15.59107,426.50,506.23
15.61058,427.75,508.19
15.63012,427.60,507.83
15.65065,430.58,507.95
15.67109,429.31,506.31
15.68953,426.23,506.83
15.71020,427.43,508.54
15.73157,427.94,506.00
15.75069,424.77,507.45
15.77034,423.11,507.26
15.79079,425.43,507.96
15.80970,424.85,505.84
15.83058,425.52,504.88
15.85000,427.08,508.15
15.86984,425.17,508.08
15.88978,424.48,506.55
15.91001,426.39,509.95
15.93135,428.83,508.81
15.95033,429.30,509.75
15.96979,428.76,509.45
15.99132,429.28,508.09
16.01074,426.89,506.91
16.03037,428.16,507.38
16.05107,427.30,507.35
16.07100,425.63,508.25
16.09045,426.32,510.30
16.11059,427.51,507.75
16.13090,426.17,508.80
16.15041,425.16,506.32
16.17088,426.00,507.81
16.19039,427.05,507.21
16.21100,427.22,505.64
16.23119,427.41,508.20
16.25075,428.83,509.30
16.27054,428.42,505.78
16.28983,428.36,507.25
16.31140,424.68,503.93
16.33043,425.44,505.75
16.35016,425.56,503.29
16.37115,423.03,502.00
16.39039,425.66,504.51
16.41033,423.74,502.56
16.43051,425.21,500.61
16.45006,422.46,502.82
16.47069,422.04,500.39
16.48977,423.42,497.71
16.51093,424.68,498.91
16.53068,423.31,499.51
16.55112,423.32,502.28
16.57027,430.44,508.33
16.59054,449.19,514.01
16.61096,474.36,529.52
16.63110,501.88,542.28
16.65126,529.27,548.34
16.67075,548.40,549.44
16.69108,564.16,550.08
16.71152,573.43,545.88
16.73080,573.98,536.92
16.75154,574.56,528.54
16.77166,568.57,523.16
16.79047,563.07,516.32
16.80969,551.28,509.21
16.83036,544.29,502.30
16.85028,532.35,499.41
16.87052,522.84,498.45
16.89090,512.90,493.98
16.91056,505.34,496.66
16.93118,493.66,495.84
16.94975,486.37,495.05
16.96994,478.96,497.43
16.99105,468.05,499.54
17.01086,462.46,500.64
17.02962,458.85,502.93
17.05042,454.39,502.26
17.06960,447.68,505.14
17.09092,443.49,504.23
17.11141,442.93,504.71
17.13122,441.45,506.63
17.14989,437.30,509.91
17.17067,436.93,508.16
17.19090,432.36,509.35
17.21072,433.13,509.74
17.23103,434.23,506.64
17.25018,430.51,505.97
17.27135,429.62,508.97
17.28956,428.77,508.54
17.31096,427.58,509.55
17.33128,428.02,508.27
17.35045,427.32,508.93
17.37012,426.65,506.89
17.39052,425.70,508.32
17.41011,425.41,509.91
17.43060,426.66,512.35
17.44962,425.32,509.68
17.47126,424.26,512.61
17.49015,426.15,512.84
17.51115,420.07,512.82
17.53027,409.17,516.15
17.55000,391.03,516.05
17.57143,367.16,516.88
17.59129,341.91,516.90
17.60945,317.67,510.05
17.62965,295.76,506.36
17.64974,279.03,500.32
17.67038,271.86,494.97
17.69058,271.41,488.21
17.71068,274.89,488.47
17.73129,285.86,487.51
17.75053,297.04,487.58
17.77113,306.38,489.49
17.78966,319.22,487.82
17.81095,329.03,492.37
17.83023,339.37,495.87
17.85076,346.43,496.73
17.87152,355.43,496.66
17.89046,365.80,497.41
17.91073,371.58,500.98
17.92957,379.67,501.88
17.94979,386.50,501.82
17.97122,392.51,501.09
17.99060,398.15,503.55
18.01069,399.82,504.15
18.03019,403.22,501.90
18.05020,406.95,503.58
18.07047,410.04,500.82
18.09089,412.12,501.78
18.11044,410.87,503.47
18.13016,413.91,505.04
18.15068,414.69,506.04
18.16933,415.86,505.41
18.19130,415.47,506.81
18.21087,416.71,506.55
18.22975,418.33,506.43
18.25077,417.57,506.02
18.27044,416.09,506.34
18.29117,415.65,507.13
18.31042,417.48,508.81
18.32993,414.06,508.58
18.35060,416.89,507.76
18.36955,416.84,510.94
18.39100,415.45,510.11
18.40980,415.99,508.77
18.43073,415.91,505.04
18.45064,418.68,503.38
18.47012,416.22,505.11
18.49058,418.44,503.57
18.51088,418.59,502.81
18.53133,417.56,502.67
18.55158,417.76,499.24
18.57030,418.53,501.41
18.59111,418.62,501.57
18.60967,419.08,504.53
18.63008,416.75,503.86
18.64974,419.59,504.28
18.67018,417.74,504.94
18.69147,418.16,504.47
18.71063,416.61,505.50
18.73097,416.11,508.00
18.74979,417.24,508.73
18.77066,416.94,506.92
18.79128,416.43,507.90
18.81143,416.96,506.86
18.83106,416.06,506.65
18.85060,415.25,504.67
18.87096,417.88,503.64
18.89100,415.37,504.47
18.90996,416.87,506.58
18.93166,414.27,504.95
18.95096,415.08,504.18
18.96981,417.61,503.64
18.99117,413.77,506.35
19.01071,414.68,505.07
19.03070,415.55,506.13
19.04998,415.73,506.02
19.07081,414.89,504.93
19.09000,416.78,504.15
19.11016,415.49,504.69
19.13079,417.95,506.15
19.15113,417.06,506.47
19.17038,416.04,505.88
19.19112,417.66,506.28
19.20985,416.83,504.90
19.23052,416.27,507.73
19.24945,414.62,506.75
19.27016,416.13,504.97
19.29023,414.77,505.80
19.31086,413.92,504.71
19.33037,416.43,506.60
19.35009,412.59,504.45
19.37049,414.94,504.91
19.39143,413.21,504.30
19.41136,416.48,506.17
19.43049,413.07,506.10
19.45039,414.15,507.35
19.47106,415.78,505.95
19.49048,417.55,507.15
19.51047,415.66,507.08
19.53006,417.29,506.45
19.55133,418.18,507.07
19.57115,418.26,507.03
19.59080,417.26,508.19
19.61019,414.06,505.17
19.63146,415.88,504.61
19.65031,413.10,507.91
19.67008,413.79,505.06
19.69107,415.82,507.53
19.71085,414.04,505.68
19.73019,412.58,505.32
19.75156,413.87,505.28
19.77083,413.25,507.56
19.79096,414.87,507.26
19.81112,413.48,504.84
19.83023,412.70,504.56
19.84996,412.02,504.32
19.87067,414.25,507.27
19.89046,413.41,505.96
19.91041,415.32,506.01
19.92977,412.99,504.71
19.95111,415.31,505.34
19.96994,415.04,503.10
19.99145,412.33,503.41
20.01089,412.23,505.16
20.03124,419.36,506.99
20.05014,435.64,514.18
20.07010,458.74,526.05
20.08983,484.34,535.43
20.11017,512.63,548.86
20.13003,535.40,551.09
20.15069,551.87,550.38
20.17020,560.85,543.86
20.19110,565.53,536.11
20.21107,562.14,525.43
20.23067,558.88,513.82
20.25045,551.07,507.11
20.27076,541.71,498.56
20.28986,530.41,490.37
20.30986,518.87,488.86
20.33066,505.55,483.64
20.35096,495.37,483.39
20.37101,490.20,482.91
20.39139,479.51,483.93
20.41145,472.96,486.14
20.43140,463.41,485.57
20.45122,459.18,486.77
20.47067,450.15,488.45
20.49057,446.13,492.34
20.51008,439.95,492.91
20.52968,438.88,494.02
20.54977,432.99,497.38
20.56992,430.72,498.17
20.59128,428.06,498.18
20.60973,426.58,500.38
20.63000,425.34,500.94
20.65078,422.35,501.38
20.67048,421.55,502.20
20.68987,419.81,502.49
20.71055,418.09,506.13
20.73046,416.50,507.36
20.74969,416.81,506.21
20.77068,416.06,504.37
20.79121,415.82,505.71
20.81099,416.70,504.04
20.83017,416.38,507.73
20.85011,414.44,504.02
20.87017,412.29,505.55
20.88998,409.54,510.07
20.90989,403.88,515.25
20.92968,392.94,522.89
20.95083,374.46,529.31
20.97072,357.84,530.50
20.98988,337.63,528.62
21.00953,316.02,521.52
21.03012,299.27,507.22
21.04960,280.82,495.51
21.07032,272.57,482.28
21.09026,268.99,472.00
21.10952,272.50,466.07
21.13108,275.61,465.65
21.14958,285.01,465.93
21.16969,298.04,469.55
21.18994,307.67,471.89
21.21148,320.43,473.44
21.23114,331.59,474.70
21.25025,340.18,478.04
21.26965,347.18,484.22
21.29121,357.83,485.39
21.31057,366.41,485.84
21.32964,368.41,492.71
21.35085,374.58,496.31
21.36931,382.10,496.08
21.39102,386.37,499.84
21.41086,389.90,501.66
21.43045,395.09,502.90
21.45141,397.86,502.30
21.47128,399.23,503.77
21.48973,400.65,501.78
21.51076,403.29,505.33
21.53000,406.01,505.15
21.55100,407.33,503.15
21.57006,409.71,504.71
21.59135,409.51,502.30
21.61090,410.81,502.17
21.62971,410.44,503.96
21.64977,410.67,504.82
21.67074,412.99,503.11
21.69117,412.70,504.62
21.70968,414.79,506.73
21.73155,415.84,506.32
21.74992,412.96,505.98
21.77038,416.28,504.59
21.79019,414.93,504.98
21.81045,414.88,506.25
21.83133,416.04,505.05
21.85021,418.42,504.56
21.86990,418.38,501.86
21.89033,415.26,504.53
21.91044,416.28,500.90
21.93065,415.29,502.33
21.95034,414.92,504.82
21.96993,417.61,503.78
21.98949,415.74,502.83
22.01008,418.24,499.91
22.02998,416.41,499.89
22.05078,416.68,499.78
22.07097,417.75,502.95
22.09019,416.55,503.89
22.11009,418.93,503.46
22.13088,416.96,504.08
22.15019,419.51,501.90
22.17102,419.03,504.05
22.19078,417.68,503.24
22.21144,418.35,505.23
22.23120,417.80,503.74
22.24969,417.74,504.01
22.27006,420.20,503.21
22.29023,416.69,503.11
22.30959,420.00,505.78
22.33079,416.92,506.94
22.35111,417.63,506.03
22.36964,416.06,506.56
22.39082,419.00,507.43
22.40967,417.90,507.76
22.42969,417.56,507.26
22.45126,418.02,507.75
22.47106,417.82,506.03
22.49095,417.06,508.24
22.51076,420.73,505.30
22.53046,420.68,506.97
22.55017,421.13,507.54
22.56956,421.48,508.22
22.58952,419.61,504.49
22.61109,421.01,504.47
22.63033,421.40,505.93
22.64976,421.20,507.16
22.66989,418.05,506.02
22.69005,418.94,503.77
22.71069,421.33,505.51
22.72930,421.05,501.84
22.75111,418.43,502.51
22.77012,420.42,503.83
22.78989,419.67,502.59
22.81004,417.44,503.68
22.83086,419.64,503.33
22.84997,417.02,502.77
22.87122,418.98,504.27
22.88986,416.21,502.02
22.91083,415.43,505.83
22.92983,418.16,505.58
22.95063,419.21,505.10
22.97079,418.85,502.47
22.98983,418.76,505.55
23.01096,419.32,505.54
23.03079,419.28,506.41
23.05063,422.30,503.26
23.07015,422.97,504.96
23.09100,419.67,506.06
23.11016,420.01,506.02
23.12963,419.19,503.58
23.15097,419.22,506.47
23.17012,419.71,503.95
23.18952,423.94,502.16
23.20955,421.57,504.51
23.22955,422.48,505.60
23.25086,423.66,504.01
23.27032,422.44,500.85
23.29118,420.43,503.62
23.31089,423.48,500.22
23.33006,422.74,501.88
23.35092,422.28,502.29
23.36957,421.51,500.36
23.38920,421.68,502.50
23.40997,423.90,503.22
23.42998,424.70,501.51
23.44971,422.03,503.06
23.47129,424.49,505.62
23.49068,428.83,506.03
23.50931,446.97,511.08
23.53077,469.46,516.31
23.55043,495.20,524.98
23.57062,520.03,523.65
23.59006,538.08,524.51
23.61010,549.69,525.14
23.63118,559.23,521.66
23.65044,564.44,517.98
23.67103,563.98,514.13
23.69067,561.50,510.51
23.71113,554.97,507.93
23.72979,546.18,507.44
23.75092,537.45,503.98
23.76992,529.23,502.43
23.79016,521.41,505.04
23.80975,514.54,503.65
23.83078,505.07,501.76
23.84990,492.48,503.04
23.87121,487.54,505.90
23.88926,478.08,504.07
23.91006,473.91,501.67
23.93018,466.24,504.20
23.95092,459.63,502.10
23.97115,457.63,503.04
23.99058,452.54,502.51
24.00972,448.73,503.87
24.03051,442.78,504.07
24.05030,439.94,504.41
24.07005,440.37,507.17
24.09117,437.45,504.49
24.11009,435.60,506.16
24.12952,433.52,505.26
24.14954,432.16,506.00
24.16958,429.94,505.34
24.19117,429.23,506.75
24.21020,428.66,507.95
24.22946,430.12,504.75
24.25000,428.38,505.56
24.26995,430.45,506.11
24.29015,428.53,503.82
24.30964,428.24,507.15
24.33127,427.24,504.86
24.34934,426.93,505.45
24.36976,426.65,506.85
24.38972,425.93,505.92
24.40996,426.99,506.17
24.43112,424.74,504.56
24.45129,414.32,509.07
24.47090,396.23,507.04
24.49112,376.72,506.07
24.51047,354.34,502.56
24.52934,330.74,496.36
24.55022,308.81,492.17
24.57014,289.32,484.90
24.59139,278.58,479.39
24.61047,276.79,475.38
24.63107,279.49,474.31
24.64943,285.50,474.81
24.66987,296.64,475.33
24.69015,308.09,479.92
24.70955,320.22,481.59
24.72978,330.18,484.80
24.74998,338.69,486.46
24.77025,350.44,490.23
24.79130,357.47,491.32
24.81059,369.02,495.28
24.83046,373.95,499.01
24.85029,382.86,497.87
24.86952,386.40,500.16
24.89061,393.24,501.28
24.91118,399.34,501.83
24.92965,398.74,505.78
24.95116,403.66,502.80
24.97121,407.76,506.99
24.99034,410.79,505.90
25.00933,413.79,508.02
25.02952,412.68,505.63
25.04996,417.25,506.66
25.06926,416.02,504.74
25.08956,419.81,505.10
25.11010,419.33,506.65
25.13099,422.18,506.14
25.15076,422.17,505.81
25.16991,423.41,505.74
25.19053,421.95,506.51
25.21109,420.73,508.10
25.23006,422.08,509.06
25.24994,423.63,508.40
25.26974,422.90,506.15
25.29037,423.71,508.23
25.30965,423.74,506.66
25.33045,423.51,505.19
25.35058,423.01,504.47
25.37129,424.33,503.45
25.39108,424.91,504.25
25.41084,424.37,505.49
25.43089,423.70,503.72
25.44961,424.32,504.59
25.47049,423.09,502.94
25.49011,422.81,502.63
25.50971,425.46,504.76
25.53124,425.37,504.88
25.55101,423.10,505.62
25.56932,425.35,505.32
25.58998,423.48,505.87
25.60970,425.69,503.80
25.63109,423.66,504.23
25.64965,423.74,506.29
25.67097,425.39,505.09
25.69080,425.46,504.84
25.71016,424.27,505.97
25.73128,423.31,507.79
25.74988,426.30,507.37
25.76968,424.67,507.61
25.79075,425.54,506.57
25.80938,425.14,509.61
25.82974,426.27,509.62
25.85101,427.20,508.37
25.86965,424.95,510.12
25.89040,427.21,509.79
25.90968,426.58,510.99
25.93104,425.25,508.83
25.94950,425.36,507.90
25.97035,425.09,509.04
25.98969,426.81,510.31
26.01024,424.45,512.20
26.02997,426.10,511.96
26.04950,424.95,512.60
26.06969,423.98,512.06
26.08985,426.74,513.20
26.10986,425.81,510.76
26.12913,423.81,512.49
26.14977,424.37,510.90
26.16950,422.48,513.68
26.18999,423.82,511.50
26.20962,426.16,513.08
26.22937,423.26,510.28
26.25044,422.97,512.99
26.26987,424.92,513.36
26.29050,423.28,511.23
26.31002,424.18,510.97
26.32989,421.84,511.03
26.34966,424.28,512.98
26.37027,423.23,512.67
26.38983,422.28,508.71
26.40956,424.23,510.00
26.42943,421.66,509.43
26.44988,422.61,509.41
26.47083,423.23,508.07
26.48957,422.51,509.38
26.50956,421.95,510.51
26.53000,422.91,511.67
26.55040,419.67,510.49
26.57045,420.40,510.16
26.58966,421.18,508.20
26.61123,419.91,507.35
26.62951,423.87,509.74
26.64979,420.41,509.37
26.66994,421.95,507.42
26.68940,421.18,508.64
26.71047,420.46,509.44
26.72991,419.34,506.92
26.75052,422.51,507.22
26.76940,420.40,507.87
26.78968,422.32,506.50
26.81019,422.00,509.33
26.82919,421.39,506.11
26.85079,424.04,506.24
26.87002,421.23,507.70
26.89079,424.68,506.55
26.91054,421.69,509.37
26.93053,422.76,507.35
26.94944,431.72,512.52
26.96971,443.97,518.70
26.99123,465.74,527.46
27.01059,489.77,538.77
27.03101,512.93,547.93
27.05094,534.47,556.15
27.07142,553.25,558.45
27.09188,561.55,556.56
27.11197,564.77,552.32
27.13108,566.04,544.04
27.15201,560.19,531.55
27.17068,552.81,523.57
27.19204,546.13,517.23
27.21186,538.62,508.08
27.23083,526.65,502.46
27.25041,516.56,496.27
27.27179,504.98,494.06
27.29068,496.93,493.88
27.31177,487.64,494.77
27.33216,476.61,492.14
27.35222,472.26,490.49
27.37066,463.24,490.12
27.39122,457.95,493.69
27.41146,453.11,495.74
27.43038,448.01,498.64
27.45078,445.39,498.08
27.47091,441.74,498.74
27.49137,437.20,500.67
27.51086,436.90,499.16
27.53171,431.76,499.63
27.55199,429.57,502.42
27.57087,426.62,501.42
27.59138,426.57,501.60
27.61063,423.06,503.86
27.63081,425.59,503.52
27.65174,423.08,506.67
27.67203,422.45,504.11
27.69108,421.53,506.03
27.71146,420.83,507.80
27.73122,408.78,505.40
27.75156,387.75,506.73
27.77027,365.19,505.15
27.79029,339.33,503.79
27.81164,313.48,501.04
27.83157,291.08,495.95
27.85145,278.20,489.95
27.87146,271.96,486.97
27.89138,274.10,484.12
27.91171,278.43,487.44
27.93048,287.20,484.82
27.95183,297.28,486.30
27.97160,311.22,487.79
27.99076,321.17,489.22
28.01060,328.09,494.97
28.03179,342.37,495.29
28.05184,350.34,498.62
28.07162,353.75,498.26
28.09036,359.68,501.63
28.11037,364.79,502.40
28.13065,371.29,500.72
28.15144,378.12,499.84
28.17096,379.15,499.47
28.19205,385.38,501.02
28.21029,386.52,501.43
28.23047,390.95,498.36
28.25210,397.49,500.25
28.27169,396.80,502.40
28.29104,401.70,501.83
28.31199,404.43,501.72
28.33083,404.28,502.42
28.35022,406.21,503.75
28.37131,408.56,504.38
28.39208,409.29,506.15
28.41283,409.69,504.52
28.43298,412.51,506.32
28.45332,410.46,508.43
28.47380,410.89,507.88
28.49446,412.38,507.46
28.51487,411.57,507.30
28.53508,412.31,506.17
28.55629,410.44,508.84
28.57612,410.24,507.18
28.59654,414.26,507.39
28.61664,411.71,506.19
28.63591,414.30,505.78
28.65761,413.94,504.94
28.67903,414.12,506.47
28.69897,415.34,505.86
28.71871,418.17,505.80
28.73977,420.19,503.84
28.75967,420.52,504.71
28.78033,421.36,505.64
28.80088,420.91,503.16
28.81956,421.61,502.93
28.84109,424.87,506.37
28.86056,425.85,504.87
28.88171,427.63,508.55
28.90371,428.89,510.85
28.92372,426.11,509.18
28.94302,427.04,509.65
28.96215,426.70,510.10
28.98267,426.54,509.68
29.00363,427.17,512.53
29.02266,427.97,510.96
29.04472,428.77,509.42
29.06502,428.71,511.50
29.08578,427.50,508.57
29.10583,424.34,509.97
29.12707,426.69,508.98
29.14723,423.97,509.84
29.16843,423.83,507.32
29.18821,425.06,507.32
29.20893,420.08,506.45
29.22880,421.64,505.94
29.24773,419.50,503.39
29.26727,419.48,506.76
29.28858,419.52,504.20
29.30866,418.73,503.14
29.32971,419.62,502.66
29.34956,417.80,504.84
29.37107,415.15,503.26
29.38923,413.53,501.31
29.41056,414.06,501.36
29.43026,415.50,503.26
29.45106,413.96,501.80
29.47101,416.06,502.88
29.48932,415.85,501.65
29.51063,415.07,502.69
29.53167,414.67,499.33
29.55306,414.88,501.45
29.57263,415.01,501.57
29.59246,414.90,502.51
29.61259,413.35,502.29
29.63230,414.21,499.87
29.65313,414.41,499.16
29.67219,411.69,497.94
29.69277,411.88,497.81
29.71144,416.18,499.65
29.73157,412.87,500.23
29.75270,415.64,498.82
29.77262,413.82,499.23
29.79187,414.73,502.76
29.81137,413.59,500.11
29.83302,415.59,501.08
29.85179,412.83,502.61
29.87284,415.07,501.00
29.89226,416.65,503.89
29.91312,414.06,501.76
29.93223,413.79,501.55
29.95193,415.51,500.89
29.97414,417.83,504.55
29.99350,415.88,505.73
30.01372,414.48,503.86
30.03374,416.19,505.24
30.05351,418.27,501.60
30.07349,418.91,504.46
30.09386,416.29,504.11
30.11326,419.30,502.16
30.13471,418.83,500.38
30.15406,417.67,502.76
30.17322,420.10,500.73
30.19420,417.47,500.17
30.21482,417.78,500.49
30.23429,418.70,502.36
30.25489,419.16,500.47
30.27351,417.95,499.55
30.29337,421.24,501.80
30.31489,434.01,509.95
30.33386,458.77,526.71
30.35496,485.12,538.68
30.37546,515.35,547.82
30.39667,541.27,549.47
30.41673,556.95,550.54
30.43683,567.61,543.21
30.45557,571.66,539.13
30.47576,572.23,533.72
30.49694,564.62,523.26
30.51690,560.08,516.22
30.53786,552.01,507.95
30.55908,544.24,504.53
30.57767,533.70,500.38
30.59828,526.64,495.53
30.61784,513.35,496.34
30.63777,507.17,495.69
30.65724,496.96,495.84
30.67789,487.60,496.86
30.69779,477.98,494.77
30.71741,473.10,496.60
30.73745,467.84,497.41
30.75897,462.49,501.60
30.77845,457.45,499.39
30.79846,451.78,500.59
30.81865,449.77,504.60
30.83841,448.54,505.81
30.85807,444.10,502.94
30.87818,443.42,505.22
30.89849,439.67,505.77
30.91845,438.83,503.91
30.93706,434.80,505.35
30.95838,435.40,507.14
30.97834,436.29,505.90
30.99812,435.06,504.79
31.01885,432.94,506.70
31.03780,431.54,507.70
31.05772,434.31,503.74
31.07806,432.18,508.54
31.09781,432.89,505.96
31.11813,429.52,506.47
31.13720,431.89,508.26
31.15716,430.43,508.70
31.18009,431.93,507.81
31.20036,426.12,506.81
31.22058,420.65,507.92
31.24042,403.90,505.40
31.26071,382.38,498.26
31.28038,357.97,490.55
31.30196,335.52,485.11
31.32230,310.05,481.07
31.34388,286.66,475.42
31.36372,273.61,473.60
31.38439,270.78,472.98
31.40407,273.45,475.79
31.42566,282.24,475.42
31.44483,287.57,477.80
31.46553,300.39,479.30
31.48553,311.75,482.08
31.50630,322.57,485.75
31.52621,331.47,487.83
31.54606,341.15,489.11
31.56767,350.14,494.01
31.58778,356.65,494.81
31.60791,363.93,496.21
31.62670,371.58,497.85
31.64623,375.16,499.41
31.66658,383.58,502.97
31.68782,387.24,504.77
31.70658,391.67,506.66
31.72752,394.88,507.89
31.74741,396.69,507.04
31.76791,398.23,505.00
31.78695,397.86,507.81
31.80725,400.69,506.13
31.82725,400.70,504.79
31.84756,404.05,504.46
31.86732,406.72,503.81
31.88762,408.89,504.64
31.90796,408.01,502.18
31.92661,409.13,504.62
31.94844,408.50,501.27
31.96765,408.29,502.47
31.98770,407.36,502.26
32.00914,407.35,500.47
32.02851,410.67,500.95
32.04841,411.01,499.55
32.06884,410.74,499.88
32.08732,412.87,499.09
32.10871,412.82,503.30
32.12746,411.44,502.99
32.14853,412.67,500.57
32.16846,412.31,503.00
32.18753,414.40,503.40
32.20766,411.59,501.63
32.22854,412.63,502.08
32.24916,411.13,503.69
32.26750,414.80,502.05
32.28852,413.00,504.09
32.30721,413.19,502.82
32.32856,414.19,501.32
32.34741,415.66,504.22
32.36888,416.81,500.67
32.38823,416.80,502.99
32.40782,414.46,503.30
32.42828,415.56,501.14
32.44875,413.88,503.65
32.46712,414.93,501.34
32.48746,414.36,503.59
32.50770,412.67,504.61
32.52850,413.88,504.69
32.54878,415.25,500.94
32.56721,413.55,503.49
32.58809,414.02,503.15
32.60919,414.06,502.80
32.62906,413.20,502.18
32.64805,412.65,502.65
32.66713,413.25,503.38
32.68816,412.13,501.65
32.70744,416.14,504.50
32.72798,415.68,501.36
32.74771,416.08,504.38
32.76915,415.90,501.40
32.78847,416.44,501.99
32.80783,416.60,503.53
32.82785,417.90,504.12
32.84784,418.72,505.40
32.86842,416.89,505.11
32.88744,418.32,503.98
32.90856,417.96,504.69
32.92867,418.49,504.09
32.94852,414.33,505.72
32.96830,416.10,504.09
32.98787,416.57,506.44
33.00871,416.19,505.67
33.02880,416.41,506.30
33.04809,414.01,507.01
33.06819,417.71,506.39
33.08893,418.24,504.51
33.10884,414.63,506.02
33.12782,414.46,503.82
33.14820,417.07,505.67
33.16741,415.76,505.69
33.18805,415.06,505.25
33.20715,417.45,504.74
33.22715,417.73,503.54
33.24776,415.56,504.56
33.26797,413.19,500.92
33.28828,415.48,500.21
33.30809,412.95,501.02
33.32893,415.36,501.44
33.34726,417.05,502.42
33.36748,414.62,502.54
33.38723,415.90,503.51
33.40768,415.13,502.12
33.42796,414.46,503.82
33.44781,418.24,506.20
33.46802,414.88,503.44
33.48844,417.04,503.24
33.50769,417.82,502.09
33.52959,418.59,505.00
33.55094,420.23,503.67
33.57002,420.42,504.53
33.59026,419.02,505.90
33.61108,418.98,504.31
33.63028,419.90,505.60
33.65086,426.00,507.84
33.67037,438.87,510.27
33.68914,462.14,518.20
33.71038,489.29,525.18
33.73103,515.34,530.31
33.74902,537.78,535.06
33.76961,554.61,533.58
33.79064,566.04,533.42
33.81096,571.57,529.50
33.82997,570.10,521.57
33.85056,568.77,518.43
33.86973,561.78,510.95
33.88957,554.25,507.44
33.90924,545.97,500.51
33.93048,534.71,501.46
33.94943,526.20,496.80
33.97013,516.69,498.62
33.99085,506.80,498.86
34.01049,498.67,495.12
34.02922,487.38,496.80
34.04926,481.63,496.97
34.07010,472.02,498.82
34.08947,465.76,501.39
34.11083,460.53,502.78
34.12974,455.19,502.51
34.15066,450.99,502.30
34.17076,446.61,505.12
34.19035,445.87,505.11
34.21023,440.55,505.42
34.22945,441.39,504.52
34.25018,437.99,505.25
34.27037,434.34,505.06
34.28969,434.89,506.93
34.31094,430.87,503.09
34.33033,431.95,503.07
34.35107,432.29,503.33
34.37068,427.58,503.98
34.38966,427.82,506.50
34.40946,430.00,504.13
34.43083,430.06,505.15
34.45003,431.76,503.59
34.46983,431.59,504.71
34.49055,431.22,507.10
34.50920,429.45,507.02
34.53072,430.58,508.64
34.55000,428.95,510.65
34.57006,425.09,518.77
34.59039,414.45,534.39
34.60965,404.46,543.69
34.62996,386.64,549.23
34.65080,366.12,547.81
34.66988,340.40,539.75
34.69012,315.21,527.05
34.71078,293.25,513.82
34.72963,283.15,497.06
34.75003,279.71,488.40
34.77073,278.88,481.00
34.79049,290.01,476.85
34.81046,297.26,474.21
34.83035,305.54,473.25
34.85037,318.52,470.43
34.86946,327.67,474.09
34.88900,337.95,475.69
34.91059,346.31,474.91
34.93254,357.36,479.49
34.95328,366.25,481.79
34.97331,369.24,481.94
34.99365,375.78,484.40
35.01405,378.24,487.23
35.03483,384.52,489.18
35.05676,389.97,492.66
35.07522,390.86,495.15
35.09725,395.50,493.27
35.11660,398.91,496.82
35.13646,401.52,497.33
35.15682,404.49,498.54
35.17723,403.77,498.82
35.19609,406.57,497.77
35.21634,408.40,501.00
35.23618,406.46,499.08
35.25608,409.74,499.92
35.27706,408.41,501.29
35.29809,409.30,500.49
35.31720,409.86,502.05
35.33829,412.97,504.64
35.35885,412.04,503.85
35.37792,408.97,503.94
35.39887,410.89,505.12
35.41841,412.15,504.99
35.43766,411.29,509.00
35.45759,410.32,506.53
35.47701,410.32,509.78
35.49739,411.41,507.98
35.51806,411.39,510.90
35.53963,411.83,509.92
35.55957,413.37,508.98
35.57816,412.14,509.64
35.59917,414.02,506.02
35.62023,411.77,507.00
35.64026,414.15,508.17
35.66137,411.89,507.30
35.68005,413.78,505.38
35.70102,412.91,507.90
35.72119,410.97,506.93
35.74182,410.29,505.29
35.76146,411.37,506.90
35.78189,412.32,506.71
35.80103,411.97,504.44
35.82134,412.73,505.58
35.84123,413.67,505.07
35.86201,415.10,504.91
35.88200,416.29,505.51
35.90130,417.12,504.79
35.92137,415.61,506.50
35.94116,416.42,504.81
35.96221,416.04,504.31
35.98257,415.87,505.14
36.00104,417.03,504.74
36.02254,416.46,505.56
36.04247,417.47,505.28
36.06238,415.30,504.25
36.08314,418.48,505.58
36.10306,418.07,508.01
36.12347,416.38,505.56
36.14293,417.28,507.92
36.16253,419.33,506.90
36.18370,417.08,509.05
36.20288,418.52,506.80
36.22340,418.60,509.56
36.24236,418.78,509.08
36.26329,419.92,511.21
36.28401,420.82,510.24
36.30269,421.14,507.93
36.32369,422.23,509.55
36.34325,422.45,508.85
36.36322,421.97,506.05
36.38214,418.83,506.54
36.40284,419.22,504.29
36.42355,418.06,504.55
36.44270,418.30,507.88
36.46251,416.99,507.34
36.48318,418.63,507.74
36.50477,420.52,504.87
36.52526,418.54,505.45
36.54535,422.12,507.43
36.56486,421.82,509.14
36.58401,424.83,506.33
36.60439,425.93,509.92
36.62510,426.34,508.63
36.64541,425.12,507.11
36.66472,426.62,509.67
36.68525,426.16,509.87
36.70399,426.07,508.99
36.72440,426.17,508.27
36.74524,427.46,507.59
36.76455,426.93,505.46
36.78513,427.54,507.25
36.80458,428.29,505.91
36.82451,428.31,506.33
36.84468,426.25,505.87
36.86493,429.16,506.50
36.88540,426.94,507.34
36.90586,429.74,505.53
36.92527,427.78,505.85
36.94486,428.56,506.10
36.96494,428.05,507.05
36.98457,428.24,504.23
37.00570,426.22,503.80
37.02462,429.05,503.94
37.04499,427.08,504.37
37.06445,427.57,500.93
37.08566,429.54,501.74
37.10685,428.99,504.63
37.12661,433.95,504.81
37.14551,443.68,515.11
37.16686,465.47,527.94
37.18555,491.01,535.32
37.20490,519.70,542.51
37.22662,538.90,549.00
37.24622,555.99,549.40
37.26511,567.68,545.36
37.28620,574.00,543.06
37.30865,572.55,537.37
37.32817,569.52,528.05
37.34823,564.64,521.87
37.36750,558.21,515.55
37.38749,548.71,510.07
37.40704,536.60,504.71
37.42821,528.12,501.35
37.44865,516.30,496.84
37.46685,505.98,496.15
37.48689,496.58,495.36
37.50742,488.32,495.67
37.52763,478.92,495.95
37.54886,471.07,497.51
37.56835,467.44,495.94
37.58741,460.74,497.03
37.60766,455.14,497.41
37.62757,451.76,499.05
37.64729,446.92,499.49
37.66809,441.47,500.91
37.68843,437.89,501.96
37.70793,435.46,503.69
37.72869,436.53,502.91
37.74859,432.36,505.08
37.76711,432.54,503.99
37.78842,430.84,506.25
37.80769,431.14,504.75
37.82803,428.98,507.59
37.84686,428.73,506.29
37.86906,430.08,505.56
37.88728,430.01,505.95
37.90877,430.22,504.82
37.92798,429.60,505.92
37.94834,428.55,506.96
37.96777,429.15,506.04
37.98805,430.34,505.01
38.00847,423.77,507.09
38.02726,406.37,506.25
38.04783,385.92,507.19
38.06709,365.78,506.39
38.08763,340.45,504.42
38.10748,313.55,502.03
38.12714,296.85,495.49
38.14813,285.65,493.26
38.16762,287.67,491.28
38.18772,287.57,489.88
38.20743,295.04,488.85
38.22766,304.08,489.82
38.24832,317.03,490.24
38.26742,327.94,493.39
38.28701,339.74,495.09
38.30793,348.40,496.39
38.32756,356.89,499.44
38.34880,365.16,500.93
38.36787,374.40,501.54
38.38717,385.26,502.28
38.40849,389.92,504.70
38.42877,397.76,501.66
38.44831,404.65,501.97
38.46790,407.11,504.10
38.48704,411.51,503.53
38.50767,416.22,504.39
38.52761,417.78,503.19
38.54705,418.84,504.84
38.56834,419.53,505.46
38.58783,417.75,503.69
38.60944,420.99,502.94
38.62832,419.98,505.39
38.65069,418.10,503.23
38.66897,420.59,505.73
38.69109,419.32,501.77
38.71030,417.85,504.10
38.72914,417.10,505.19
38.74999,416.81,505.76
38.76992,419.31,503.60
38.78989,419.54,504.63
38.80904,417.81,504.81
38.83024,416.57,506.11
38.85075,418.70,503.59
38.87060,417.32,504.51
38.89088,416.20,505.52
38.91115,417.91,506.40
38.93151,416.59,507.07
38.95129,417.21,504.43
38.97095,416.67,507.06
38.99196,413.78,505.99
39.01097,412.72,504.94
39.03116,412.67,508.82
39.05005,413.89,506.95
39.07017,414.93,505.54
39.09153,413.59,505.33
39.11087,415.05,507.30
39.13045,411.43,506.33
39.15125,414.90,507.71
39.16988,411.85,506.87
39.19018,412.24,506.10
39.21143,412.86,508.08
39.23064,416.65,509.00
39.25150,411.35,508.39
39.27069,400.90,502.98
39.29045,397.09,503.45
39.31109,396.82,502.85
39.33139,391.82,501.72
39.35142,395.70,500.84
39.37367,393.82,501.81
39.39415,397.75,500.93
39.41520,399.49,502.91
39.43526,399.37,501.85
39.45485,400.97,504.59
39.47487,402.13,504.32
39.49560,404.77,502.54
39.51558,405.16,503.72
39.53562,409.50,506.14
39.55575,409.02,506.37
39.57677,411.82,505.67
39.59560,410.38,504.31
39.61497,411.88,505.24
39.63604,411.89,507.98
39.65556,414.97,506.42
39.67657,413.77,507.15
39.69672,413.74,506.74
39.71589,414.94,504.60
39.73616,416.72,504.42
39.75588,417.41,503.76
39.77504,415.82,508.12
39.79688,415.78,506.04
39.81666,417.56,509.05
39.83582,416.01,507.66
39.85510,416.68,504.36
39.87647,417.98,505.59
39.89570,419.25,506.99
39.91690,417.00,507.24
39.93514,417.28,506.60
39.95553,420.38,508.15
39.97649,419.88,507.60
39.99603,418.12,508.49
40.01636,417.27,507.54
40.03661,417.89,506.58
40.05674,418.75,507.10
40.07493,419.03,505.82
40.09625,421.13,505.87
40.11606,421.22,506.09
40.13643,419.94,504.78
40.15702,420.77,506.33
40.17612,421.72,502.23
40.19606,422.35,504.56
40.21749,421.38,503.82
40.23743,424.50,503.62
40.25630,423.24,502.72
40.27736,421.86,504.41
40.29732,422.31,501.93
40.31627,420.20,503.77
40.33753,421.58,501.96
40.35824,425.31,505.36
40.37772,424.90,502.27
40.39829,425.25,503.33
40.41943,422.31,504.00
40.44033,425.62,502.97
40.46003,425.41,505.70
40.48061,427.14,506.01
40.49928,426.86,506.98
40.51993,425.70,505.74
40.54001,428.24,506.85
40.55899,437.59,505.41
40.58013,450.45,505.42
40.59960,472.52,507.38
40.61960,493.50,513.29
40.63933,515.33,519.63
40.66017,533.12,526.73
40.68058,549.87,529.28
40.70014,559.55,527.15
40.71939,561.98,526.42
40.73892,562.60,524.73
40.75916,560.60,524.47
40.78034,556.31,518.11
40.80027,548.44,514.68
40.82061,541.72,513.09
40.83952,533.98,509.75
40.86073,524.40,510.21
40.88160,516.18,507.06
40.90051,504.95,508.95
40.92127,495.68,508.42
40.94051,486.12,507.11
40.96077,478.80,505.44
40.98001,472.83,507.62
41.00087,466.09,505.11
41.02095,463.13,503.94
41.04122,458.13,507.00
41.06018,452.42,506.55
41.08096,449.54,505.54
41.10246,445.58,506.22
41.12217,442.07,505.22
41.14271,438.00,507.85
41.16207,434.43,506.82
41.18266,435.32,507.09
41.20320,433.29,505.36
41.22246,432.46,506.99
41.24300,429.26,505.05
41.26221,429.92,508.03
41.28279,427.67,507.10
41.30347,425.69,506.34
41.32227,424.51,507.92
41.34278,425.37,505.63
41.36374,422.84,507.70
41.38322,424.33,505.71
41.40311,423.08,507.08
41.42214,423.56,505.27
41.44324,422.47,507.80
41.46309,421.75,504.04
41.48196,423.94,504.20
41.50334,417.28,506.20
41.52240,400.42,507.54
41.54328,379.20,509.86
41.56316,354.80,508.91
41.58396,330.24,505.07
41.60466,303.21,498.68
41.62404,282.24,494.50
41.64411,273.02,487.17
41.66496,270.15,483.80
41.68727,276.14,484.88
41.70755,279.39,485.76
41.72721,288.39,484.91
41.74718,301.34,485.79
41.76745,311.81,486.39
41.78776,322.51,485.24
41.80937,334.09,489.19
41.82793,341.32,487.16
41.84914,353.29,491.63
41.86961,357.99,493.22
41.88989,365.67,498.10
41.90936,370.41,501.59
41.92968,376.40,501.32
41.95063,381.46,503.64
41.96887,384.39,504.07
41.98900,387.44,508.01
42.00884,391.28,508.73
42.02939,393.96,508.08
42.04947,396.99,506.11
42.06909,398.72,506.37
42.08926,400.59,505.69
42.10991,403.84,508.56
42.13045,405.65,507.31
42.15043,409.06,510.19
42.17025,406.76,508.56
42.19089,408.72,508.62
42.21172,409.16,510.54
42.23118,412.51,507.19
42.25157,412.93,508.62
42.27137,414.05,507.04
42.29185,413.17,505.97
42.31223,413.59,508.39
42.33086,413.71,509.21
42.35198,415.08,506.58
42.37103,413.84,506.58
42.39182,417.53,507.81
42.41242,419.03,508.36
42.43327,417.86,507.31
42.45304,419.55,504.72
42.47452,419.28,506.34
42.49389,420.23,506.67
42.51335,424.47,504.15
42.53397,422.31,506.52
42.55462,424.60,504.56
42.57354,425.54,505.61
42.59400,426.30,506.32
42.61331,424.54,505.88
42.63300,427.05,505.36
42.65368,425.87,504.71
42.67315,423.69,504.15
42.69409,425.45,505.70
42.71414,423.60,506.97
42.73351,425.00,501.99
42.75320,425.28,503.91
42.77335,424.38,503.50
42.79342,424.73,502.71
42.81330,425.93,502.21
42.83311,427.82,500.96
42.85313,425.22,504.71
42.87441,424.48,502.55
42.89339,427.72,503.29
42.91364,427.09,501.84
42.93470,427.69,504.21
42.95331,424.88,503.14
42.97361,427.92,501.91
42.99472,425.65,503.30
43.01366,427.36,502.83
43.03380,424.12,503.29
43.05305,426.47,503.00
43.07354,427.63,501.40
43.09375,428.04,500.23
43.11304,426.27,502.86
43.13307,426.58,503.84
43.15288,426.12,500.72
43.17325,427.57,503.44
43.19403,426.88,504.91
43.21437,425.33,505.69
43.23396,425.21,503.03
43.25379,426.65,502.44
43.27381,423.69,505.76
43.29452,424.73,503.40
43.31320,425.22,505.62
43.33403,426.51,503.41
43.35459,425.84,505.22
43.37363,424.22,503.42
43.39280,428.82,505.52
43.41336,426.06,504.42
43.43374,425.67,504.92
43.45401,429.35,504.27
43.47457,426.54,503.66
43.49358,428.65,506.13
43.51369,426.31,503.92
43.53478,428.33,504.86
43.55310,430.48,504.53
43.57480,427.47,504.16
43.59386,427.21,503.25
43.61281,427.76,504.43
43.63385,428.02,504.78
43.65313,428.77,503.91
43.67309,429.30,504.86
43.69479,428.78,504.14
43.71453,426.23,503.86
43.73463,429.22,504.75
43.75397,426.11,506.79
43.77409,427.96,503.77
43.79424,427.47,504.83
43.81443,428.79,503.85
43.83370,426.34,503.47
43.85497,427.05,505.89
43.87562,428.20,505.00
43.89472,424.68,507.43
43.91366,426.46,505.65
43.93393,427.44,508.02
43.95577,426.00,505.28
43.97572,428.28,504.35
43.99449,432.39,506.47
44.01569,443.23,511.14
44.03497,463.80,522.23
44.05645,488.71,534.39
44.07678,517.71,543.89
44.09688,540.46,544.14
44.11582,556.53,544.54
44.13691,567.64,541.71
44.15837,573.90,537.41
44.17813,570.30,531.70
44.19762,567.45,523.92
44.21680,559.01,518.88
44.23904,553.15,515.98
44.25819,543.11,510.75
44.27834,530.38,505.95
44.29787,519.25,501.98
44.31858,509.47,500.15
44.33940,501.20,502.07
44.35983,490.08,499.18
44.38064,479.11,500.65
44.40030,472.99,499.59
44.42117,462.06,502.39
44.43999,455.89,502.39
44.46111,447.08,500.10
44.48332,445.39,499.38
44.50206,440.31,503.03
44.52415,433.38,500.80
44.54396,431.51,500.93
44.56377,428.29,503.81
44.58312,425.85,503.10
44.60390,425.73,501.78
44.62454,421.30,502.74
44.64434,419.85,502.79
44.66516,421.42,504.35
44.68570,420.47,501.93
44.70396,416.47,503.36
44.72551,414.53,502.59
44.74381,415.85,505.01
44.76395,416.33,504.79
44.78612,415.81,506.01
44.80483,416.07,505.23
44.82570,410.78,505.68
44.84660,395.22,505.20
44.86640,375.57,502.32
44.88515,348.31,498.73
44.90567,321.50,491.78
44.92584,293.71,483.45
44.94722,274.11,479.95
44.96635,264.61,474.73
44.98611,260.07,471.72
45.00677,264.94,471.42
45.02652,276.69,475.67
45.04761,285.13,475.77
45.06712,296.28,480.46
45.08705,309.95,483.08
45.10659,320.74,484.01
45.12763,332.57,485.52
45.14674,343.14,487.66
45.16693,350.58,488.91
45.18672,360.01,492.98
45.20668,367.41,493.88
45.22642,375.38,493.25
45.24627,379.82,494.43
45.26784,387.81,495.51
45.28631,392.84,497.46
45.30609,394.74,497.98
45.32762,402.01,498.95
45.34640,404.36,501.36
45.36617,406.35,499.05
45.38702,406.06,499.09
45.40632,409.89,502.58
45.42597,409.54,504.03
45.44716,411.01,503.29
45.46674,415.50,502.39
45.48698,413.82,505.20
45.50769,417.25,502.30
45.52953,418.61,503.31
45.55016,417.78,505.18
45.57015,421.81,504.38
45.58925,423.60,505.17
45.60927,424.57,505.43
45.63037,421.59,507.69
45.65043,421.96,507.44
45.66929,424.80,505.07
45.68953,425.66,506.01
45.70910,425.26,506.02
45.73080,425.60,504.39
45.75010,425.91,503.75
45.77008,427.29,502.98
45.78911,427.64,502.98
45.81049,426.65,500.52
45.82978,427.46,501.44
45.85043,426.07,502.92
45.87076,428.27,501.94
45.89077,427.77,506.20
45.91166,427.73,506.05
45.93138,425.41,504.19
45.95135,426.74,506.74
45.97066,425.56,506.73
45.99037,424.80,509.53
46.01120,426.90,507.01
46.03134,425.52,509.14
46.05050,426.55,509.15
46.07139,425.99,510.56
46.08999,425.99,511.37
46.11173,425.68,508.16
46.13042,424.16,510.09
46.15005,425.25,509.23
46.17035,425.95,509.19
46.19106,426.45,509.11
46.21150,425.60,511.21
46.23002,424.54,509.34
46.25026,425.21,508.94
46.27005,427.30,510.32
46.29029,426.90,510.64
46.31035,426.21,509.26
46.33034,426.45,511.37
46.35191,424.52,510.27
46.37202,424.24,510.08
46.39258,424.38,508.40
46.41170,425.98,508.43
46.43219,428.27,509.38
46.45324,427.05,511.16
46.47356,427.28,511.12
46.49221,428.81,508.81
46.51276,425.54,508.59
46.53274,424.67,508.68
46.55318,427.38,507.21
46.57189,425.50,504.36
46.59295,424.92,507.60
46.61349,425.58,507.72
46.63183,426.56,504.88
46.65230,422.34,505.66
46.67161,421.91,505.31
46.69290,422.10,504.61
46.71459,425.21,505.73
46.73402,422.86,507.14
46.75437,420.18,506.68
46.77500,423.07,505.01
46.79476,418.79,505.69
46.81527,417.95,507.47
46.83674,417.59,510.02
46.85652,418.47,515.45
46.87495,419.60,520.18
46.89537,419.38,529.21
46.91505,417.16,540.95
46.93576,418.63,565.95
46.95637,417.84,582.80
46.97474,417.73,598.73
46.99650,412.56,598.40
47.01488,410.14,588.36
47.03629,404.29,564.17
47.05663,406.17,534.32
47.07485,402.63,502.84
47.09526,402.32,479.02
47.11613,402.53,460.55
47.13525,404.74,447.74
47.15481,403.53,439.78
47.17638,402.87,433.40
47.19552,404.48,431.65
47.21662,402.42,431.76
47.23601,408.25,436.78
47.25484,406.97,441.84
47.27655,407.42,444.24
47.29648,409.78,450.96
47.31474,412.56,456.76
47.33569,411.39,461.10
47.35625,413.76,465.20
47.37530,424.90,470.95
47.39496,431.88,471.32
47.41508,437.27,473.79
47.43622,440.23,477.21
47.45671,441.27,480.71
47.47678,440.86,481.25
47.49469,437.88,485.29
47.51620,439.03,488.53
47.53557,434.08,488.72
47.55592,435.64,487.95
47.57600,433.69,493.16
47.59680,428.79,494.94
47.61719,429.62,495.68
47.63619,426.92,499.44
