Program Time [s],data 0,data 1
98.04794,367.44,392.14
98.06804,370.66,400.84
98.08868,369.70,405.91
98.10789,367.91,397.55
98.12793,368.89,401.84
98.14788,373.80,417.57
98.16696,378.69,420.95
98.18764,378.71,416.33
98.20734,384.17,431.42
98.22778,383.10,438.07
98.24813,382.79,434.08
98.26812,384.59,441.33
98.28742,381.75,456.72
98.30662,382.86,457.64
98.32771,383.51,456.09
98.34738,388.28,466.87
98.36645,385.43,473.22
98.38763,383.60,473.60
98.40824,386.04,487.69
98.42829,383.75,483.92
98.44781,382.38,484.62
98.46634,379.94,480.61
98.48823,376.85,482.98
98.50702,380.92,478.13
98.52767,379.39,479.18
98.54672,377.82,478.31
98.56713,377.21,473.12
98.58928,377.33,476.13
98.60921,375.88,475.86
98.62871,375.89,471.21
98.64831,378.71,478.00
98.66940,378.18,479.77
98.68950,379.26,476.94
98.71009,377.51,481.70
98.73168,376.74,483.54
98.75293,373.08,484.26
98.77253,375.16,483.85
98.79203,373.94,483.37
98.81218,373.92,483.93
98.83239,375.63,483.35
98.85250,375.89,479.10
98.87263,378.29,489.70
98.89183,376.75,494.64
98.91251,375.03,498.02
98.93367,378.40,502.78
98.95397,377.14,499.02
98.97366,377.67,495.64
98.99552,377.91,492.72
99.01560,382.99,495.10
99.03717,389.77,497.65
99.05799,393.51,499.08
99.07699,393.95,499.55
99.09658,398.43,501.39
99.11803,395.47,494.94
99.13663,394.86,495.38
99.15633,392.55,499.50
99.17812,396.09,494.58
99.19783,394.01,494.13
99.21884,398.31,488.99
99.23870,399.85,492.76
99.26005,397.77,495.24
99.28091,399.23,499.61
99.30226,401.15,498.04
99.32130,401.96,494.38
99.34248,406.24,495.07
99.36187,408.02,503.81
99.38141,403.52,502.61
99.40285,401.10,503.29
99.42341,399.23,500.26
99.44254,402.30,502.40
99.46149,401.19,503.04
99.48331,397.56,508.54
99.50262,398.26,505.33
99.52164,399.13,500.15
99.54329,403.14,509.36
99.56216,396.83,503.44
99.58309,398.35,503.34
99.60155,398.18,501.13
99.62340,396.28,509.36
99.64311,394.88,506.73
99.66235,398.32,502.33
99.68166,399.28,502.59
99.70178,397.71,503.72
99.72259,397.02,499.81
99.74204,396.46,497.59
99.76234,397.19,500.90
99.78150,397.16,498.59
99.80266,396.60,498.59
99.82273,395.95,500.39
99.84183,399.51,502.71
99.86213,400.46,500.09
99.88211,395.82,502.90
99.90248,396.17,502.74
99.92273,395.65,503.85
99.94271,394.24,503.00
99.96344,397.23,505.43
99.98145,397.75,507.24
100.00345,396.28,510.49
100.02300,395.17,506.68
100.04241,393.13,506.86
100.06268,396.43,502.14
100.08295,392.85,503.68
100.10163,391.57,502.33
100.12124,391.35,504.42
100.14198,392.12,504.51
100.16142,391.36,503.79
100.18263,392.31,501.39
100.20220,394.45,502.90
100.22102,394.17,504.33
100.24189,394.76,503.80
100.26359,395.76,505.37
100.28264,396.38,506.82
100.30108,398.26,507.03
100.32110,397.75,505.26
100.34177,393.63,505.77
100.36190,393.36,504.22
100.38214,395.52,504.48
100.40392,396.75,504.06
100.42281,396.89,501.67
100.44241,394.30,506.60
100.46220,396.22,502.94
100.48273,392.72,500.13
100.50212,393.67,503.20
100.52162,392.61,505.21
100.54242,393.93,501.09
100.56133,398.35,505.46
100.58288,396.41,501.85
100.60398,396.31,502.45
100.62345,397.86,503.19
100.64569,395.79,503.00
100.66531,390.39,500.87
100.68701,398.55,506.39
100.70815,411.28,512.68
100.72897,431.56,523.40
100.74739,454.02,526.60
100.76703,472.56,531.63
100.78785,486.10,529.38
100.80892,496.38,523.39
100.82966,501.46,517.07
100.85090,499.81,510.05
100.87066,503.17,503.35
100.89099,496.15,496.98
100.91111,493.18,502.33
100.93365,486.23,495.69
100.95110,478.00,491.56
100.97151,473.18,496.22
100.99146,463.96,501.21
101.01247,458.22,495.01
101.03267,450.98,494.75
101.05153,446.35,497.61
101.07295,440.45,498.04
101.09373,435.12,496.93
101.11226,432.58,499.56
101.13420,427.52,501.08
101.15332,421.34,498.37
101.17304,422.44,502.50
101.19430,419.95,502.62
101.21521,417.51,504.10
101.23604,416.80,501.68
101.25689,414.19,507.22
101.27624,413.30,505.17
101.29831,411.73,507.34
101.31820,409.69,503.63
101.33836,408.59,505.59
101.35888,409.45,503.89
101.37726,410.72,504.32
101.39964,408.56,502.17
101.41818,407.39,501.79
101.43924,404.34,506.27
101.45863,393.38,508.29
101.47980,381.26,517.26
101.49987,364.33,533.08
101.51956,350.69,545.93
101.53897,327.85,551.80
101.55935,304.82,544.56
101.57881,283.63,522.16
101.59916,264.80,497.59
101.61887,254.28,477.52
101.63938,247.69,457.11
101.65817,254.50,445.32
101.67922,262.37,439.54
101.69948,269.81,437.86
101.72045,281.45,438.61
101.74035,293.29,441.36
101.76023,307.04,444.25
101.78122,313.66,447.42
101.79903,323.27,451.89
101.82166,333.33,461.26
101.84125,339.41,465.48
101.86117,344.86,469.67
101.88012,351.61,474.59
101.90124,357.05,480.94
101.92152,360.43,481.81
101.94182,365.82,486.01
101.96079,368.41,489.62
101.98164,369.35,488.72
102.00047,374.36,490.55
102.02132,376.07,494.53
102.04027,381.29,491.33
102.06160,383.90,494.33
102.08097,383.01,490.75
102.10075,385.57,494.50
102.12171,388.53,492.12
102.14249,388.51,496.50
102.16241,390.67,496.39
102.18276,392.11,498.69
102.20295,391.90,503.18
102.22293,392.20,505.21
102.24223,390.35,507.10
102.26175,392.44,507.35
102.28384,385.95,508.06
102.30235,387.51,502.81
102.32163,389.25,499.01
102.34252,391.00,500.79
102.36255,387.14,504.28
102.38163,386.40,501.07
102.40291,388.27,503.53
102.42136,391.50,502.10
102.44101,390.05,506.26
102.46191,387.49,507.02
102.48210,389.05,505.39
102.50268,388.39,504.50
102.52156,389.98,501.95
102.54198,386.16,504.64
102.56296,388.46,504.35
102.58197,388.57,505.05
102.60320,389.21,502.52
102.62210,391.01,501.74
102.64165,390.70,504.06
102.66189,387.42,503.34
102.68131,387.89,507.74
102.70130,387.65,505.82
102.72392,384.48,500.89
102.74336,386.25,503.39
102.76267,383.38,502.71
102.78354,385.17,500.06
102.80268,381.97,496.81
102.82240,384.22,498.91
102.84311,386.31,495.84
102.86447,382.95,495.98
102.88558,387.06,494.99
102.90600,383.26,500.47
102.92542,386.74,500.85
102.94560,384.44,493.68
102.96771,387.52,496.34
102.98669,389.35,493.39
103.00692,384.74,495.87
103.02754,384.27,498.98
103.04700,384.47,497.29
103.06790,383.68,499.63
103.08832,388.42,495.67
103.10744,389.60,498.17
103.12788,389.29,500.68
103.14887,390.27,500.07
103.16890,392.58,500.87
103.18923,393.41,497.55
103.20850,395.82,498.66
103.22981,397.63,499.94
103.24917,397.02,506.01
103.26820,393.90,503.38
103.28850,392.05,502.64
103.30931,395.60,498.37
103.32916,394.17,496.79
103.35090,396.29,494.76
103.36930,399.15,494.17
103.39005,397.09,497.03
103.40927,396.92,496.85
103.43092,398.91,491.60
103.45053,400.76,496.14
103.46994,396.46,496.15
103.49010,396.93,496.03
103.51099,393.96,491.89
103.52906,396.42,495.68
103.54952,395.38,494.72
103.56942,396.35,495.10
103.58980,397.55,494.10
103.61022,396.94,495.43
103.63058,401.54,494.11
103.65004,398.29,494.62
103.66927,401.51,496.11
103.69095,402.35,494.88
103.71144,404.94,495.34
103.73108,402.49,495.53
103.75233,404.83,497.46
103.77199,400.09,495.25
103.79243,399.13,497.37
103.81369,402.00,498.70
103.83594,405.31,499.79
103.85445,405.11,499.55
103.87539,404.76,498.96
103.89509,405.05,498.82
103.91620,405.51,496.95
103.93711,402.37,499.73
103.95740,402.17,498.79
103.97620,403.21,499.60
103.99718,402.01,500.25
104.01865,397.97,499.83
104.03880,398.40,501.59
104.05901,394.96,502.12
104.07894,394.30,503.46
104.09845,393.34,502.67
104.11869,392.18,503.13
104.13951,389.07,503.46
104.15949,389.57,504.05
104.17838,391.26,506.51
104.19903,389.67,503.23
104.21853,387.60,504.17
104.23897,390.33,502.93
104.25945,389.32,502.03
104.27964,387.43,502.62
104.29857,388.55,496.02
104.31957,389.50,500.02
104.33973,397.37,501.28
104.35912,413.16,505.76
104.37978,438.47,509.73
104.39838,458.46,517.09
104.41976,478.46,520.24
104.43936,495.11,524.73
104.45817,507.62,528.40
104.47823,513.50,532.51
104.49959,519.87,528.78
104.51955,517.45,525.43
104.53944,517.13,526.30
104.56019,512.88,519.39
104.57986,504.03,516.49
104.60090,500.38,514.04
104.62135,491.71,509.87
104.64184,478.84,504.12
104.66147,467.71,500.43
104.68130,461.39,502.36
104.70008,451.80,499.60
104.72197,441.88,499.49
104.74012,431.26,498.12
104.76064,423.47,496.81
104.78042,417.31,496.82
104.80024,415.34,497.76
104.82187,408.69,496.02
104.84128,406.45,494.92
104.86057,401.30,494.12
104.88148,398.18,497.13
104.90094,394.69,497.81
104.92038,395.67,498.85
104.94163,393.26,499.01
104.96083,389.59,497.10
104.98031,389.73,499.09
105.00021,388.14,499.56
105.02056,385.63,499.32
105.04121,385.91,500.95
105.06175,385.25,498.00
105.08112,387.68,499.45
105.10061,382.30,495.35
105.12022,381.71,493.82
105.14141,377.87,488.77
105.16198,378.13,490.17
105.18175,375.87,492.44
105.20186,375.65,490.48
105.22126,375.41,490.44
105.24158,375.53,493.73
105.26155,380.53,493.06
105.28123,369.23,491.56
105.30035,353.40,489.64
105.32130,324.32,486.83
105.34136,299.87,482.15
105.36161,275.27,473.32
105.38050,255.82,467.08
105.40011,243.55,461.76
105.42132,237.62,454.05
105.44100,238.04,453.94
105.46062,244.08,455.36
105.48087,250.48,458.91
105.50084,261.75,462.82
105.52149,274.63,465.69
105.54147,282.29,471.06
105.56118,294.38,475.93
105.58067,307.99,479.21
105.60031,314.11,480.93
105.62125,324.93,485.02
105.64199,331.44,487.96
105.66040,340.36,493.32
105.68130,344.78,492.60
105.70023,347.40,493.59
105.72139,355.78,493.06
105.74029,359.48,496.03
105.76110,361.77,493.39
105.78155,365.99,496.60
105.80153,368.98,497.28
105.82348,366.66,496.71
105.84375,371.82,495.22
105.86219,373.63,497.74
105.88388,375.11,497.96
105.90357,377.64,497.03
105.92232,376.64,497.15
105.94329,381.43,496.05
105.96401,381.48,495.99
105.98466,386.09,496.40
106.00494,393.36,499.86
106.02366,394.61,496.94
106.04329,394.65,496.84
106.06327,396.85,495.21
106.08510,394.90,495.50
106.10450,399.85,497.11
106.12509,399.18,495.17
106.14569,400.30,497.34
106.16453,397.79,495.00
106.18425,396.74,493.96
106.20520,398.28,494.96
106.22564,398.64,498.58
106.24420,397.16,494.29
106.26445,396.90,496.34
106.28486,397.96,496.82
106.30581,398.64,498.47
106.32562,397.55,497.52
106.34575,399.05,499.89
106.36584,398.80,498.78
106.38529,398.73,498.94
106.40430,399.30,498.75
106.42503,397.06,499.13
106.44583,399.23,496.91
106.46446,394.78,498.99
106.48431,396.06,499.58
106.50424,399.30,499.68
106.52427,398.75,498.49
106.54495,398.30,501.97
106.56455,396.29,501.98
106.58512,394.85,502.26
106.60578,398.32,500.96
106.62522,395.20,500.16
106.64620,393.88,502.37
106.66538,394.04,499.86
106.68574,396.71,499.22
106.70530,397.04,501.36
106.72502,396.87,499.99
106.74452,396.84,501.70
106.76417,397.18,502.21
106.78407,395.41,501.91
106.80577,397.53,505.05
106.82417,398.61,503.27
106.84585,399.62,504.78
106.86425,400.09,505.02
106.88579,399.28,504.81
106.90479,399.78,502.97
106.92560,400.76,502.98
106.94429,398.35,499.83
106.96552,398.85,501.24
106.98416,398.79,498.75
107.00549,397.89,499.84
107.02435,401.49,497.94
107.04450,398.86,498.61
107.06425,399.09,499.22
107.08437,399.33,496.99
107.10538,399.24,497.15
107.12590,396.13,498.39
107.14585,396.46,499.55
107.16580,396.06,498.83
107.18484,396.77,500.01
107.20468,399.32,499.13
107.22414,401.57,499.97
107.24472,400.18,499.30
107.26534,399.69,497.19
107.28401,399.40,499.85
107.30412,399.21,500.35
107.32503,397.83,497.51
107.34485,398.02,499.05
107.36449,399.27,496.67
107.38513,399.48,497.50
107.40436,400.16,497.28
107.42502,401.15,497.61
107.44448,397.79,495.55
107.46438,397.89,497.00
107.48561,399.46,495.87
107.50460,399.31,497.84
107.52432,398.49,497.28
107.54451,400.81,498.14
107.56446,401.90,498.71
107.58412,399.52,499.47
107.60591,400.97,498.25
107.62535,402.69,498.54
107.64427,402.15,496.89
107.66599,404.73,496.88
107.68562,403.44,499.67
107.70522,399.38,499.98
107.72442,400.79,500.10
107.74596,401.58,496.56
107.76565,403.31,500.17
107.78411,404.67,500.80
107.80564,401.87,500.51
107.82522,402.81,497.88
107.84435,402.04,498.83
107.86503,400.15,496.95
107.88464,401.60,499.16
107.90505,401.07,499.23
107.92598,403.09,499.35
107.94576,403.68,498.19
107.96468,405.13,501.34
107.98442,405.67,499.63
108.00580,402.86,500.28
108.02548,401.56,496.85
108.04630,402.36,499.72
108.06692,403.03,499.95
108.08669,401.52,498.48
108.10610,400.95,500.10
108.12603,403.00,501.59
108.14581,401.38,500.63
108.16600,401.98,500.61
108.18587,399.55,501.16
108.20527,402.82,500.90
108.22639,401.20,500.58
108.24520,402.37,502.39
108.26575,401.25,500.72
108.28646,402.83,501.24
108.30567,403.70,500.31
108.32565,404.03,503.67
108.34557,402.69,500.38
108.36597,401.46,502.40
108.38504,404.03,502.20
108.40648,405.06,500.92
108.42555,402.25,498.96
108.44503,402.61,497.62
108.46609,403.50,500.56
108.48532,404.60,497.41
108.50665,402.62,496.65
108.52657,400.50,500.96
108.54527,400.53,498.84
108.56552,408.38,504.82
108.58691,425.07,517.02
108.60595,447.25,537.66
108.62607,470.66,553.33
108.64618,494.81,562.35
108.66522,513.54,565.66
108.68577,531.11,568.25
108.70677,540.72,559.20
108.72655,543.26,554.57
108.74601,542.94,546.69
108.76532,539.89,537.90
108.78515,536.83,526.55
108.80530,526.87,520.59
108.82693,517.13,511.41
108.84581,505.65,505.85
108.86696,497.85,502.23
108.88584,485.63,498.45
108.90672,475.55,494.10
108.92678,468.10,494.73
108.94541,456.67,496.96
108.96503,451.26,497.13
108.98512,440.96,496.29
109.00582,436.58,497.95
109.02510,432.56,498.48
109.04555,427.35,497.84
109.06510,424.69,500.92
109.08603,419.04,498.51
109.10681,418.04,502.67
109.12682,413.24,503.34
109.14544,412.15,502.51
109.16629,409.69,503.48
109.18527,410.69,503.53
109.20678,409.88,503.57
109.22614,407.55,503.64
109.24525,407.59,500.98
109.26609,406.66,500.84
109.28512,408.94,504.25
109.30700,407.23,504.78
109.32583,403.97,502.79
109.34639,401.96,505.14
109.36626,403.78,504.40
109.38624,403.72,503.04
109.40525,403.05,504.50
109.42673,401.42,502.16
109.44529,400.71,506.03
109.46637,397.41,504.19
109.48658,385.83,505.20
109.50501,365.06,500.74
109.52578,344.46,498.67
109.54531,321.41,497.83
109.56510,300.70,492.22
109.58628,279.24,488.28
109.60683,268.34,482.37
109.62570,260.86,476.70
109.64541,262.23,474.86
109.66587,266.70,472.01
109.68616,275.94,469.96
109.70613,286.22,469.65
109.72682,298.60,474.25
109.74597,307.06,474.88
109.76568,317.91,475.20
109.78619,326.22,479.51
109.80527,335.14,479.17
109.82676,341.65,480.78
109.84540,351.04,482.89
109.86512,355.75,482.89
109.88566,359.56,486.10
109.90501,367.63,485.75
109.92666,370.01,488.20
109.94696,374.19,488.41
109.96647,378.76,489.72
109.98635,382.10,490.16
110.00699,382.30,492.61
110.02678,386.09,491.43
110.04542,387.61,495.84
110.06690,386.49,496.46
110.08531,391.19,494.64
110.10547,390.50,494.82
110.12612,390.33,494.81
110.14521,391.06,494.94
110.16660,394.66,496.18
110.18578,395.42,498.89
110.20611,394.88,496.10
110.22554,395.14,499.71
110.24554,396.91,500.76
110.26698,400.07,499.85
110.28599,397.44,500.37
110.30539,395.53,501.75
110.32643,397.16,500.77
110.34631,398.40,498.88
110.36563,397.19,502.14
110.38530,399.96,499.00
110.40501,398.04,498.42
110.42602,397.73,498.77
110.44593,397.70,501.15
110.46679,398.55,500.81
110.48577,399.94,498.97
110.50651,401.13,499.35
110.52592,398.42,500.59
110.54610,399.10,501.01
110.56561,399.00,497.61
110.58506,399.37,500.80
110.60622,401.71,499.78
110.62508,398.34,500.43
110.64513,401.21,501.46
110.66514,399.25,500.06
110.68518,402.28,500.70
110.70518,400.01,501.01
110.72604,400.45,501.25
110.74611,401.06,501.29
110.76594,401.86,500.94
110.78561,400.61,499.91
110.80513,403.59,502.32
110.82640,400.24,500.45
110.84569,400.17,499.58
110.86598,400.88,499.20
110.88661,399.75,499.84
110.90533,398.58,502.03
110.92584,398.17,498.51
110.94686,398.47,502.09
110.96695,395.56,499.26
110.98645,395.95,500.51
111.00589,396.47,500.60
111.02691,395.24,498.79
111.04654,396.25,497.10
111.06601,396.66,497.94
111.08599,395.17,497.96
111.10667,394.85,496.24
111.12510,394.74,498.58
111.14637,397.48,497.22
111.16578,398.09,500.02
111.18626,397.71,500.67
111.20626,397.21,498.89
111.22674,398.28,496.60
111.24635,396.33,497.94
111.26713,398.75,498.25
111.28619,395.59,496.87
111.30625,395.48,497.36
111.32660,395.54,497.17
111.34735,393.74,498.48
111.36737,390.77,498.09
111.38748,392.56,500.11
111.40765,392.87,497.03
111.42673,392.53,499.48
111.44763,394.48,497.25
111.46610,396.34,499.23
111.48698,395.58,499.76
111.50760,396.24,496.80
111.52739,395.09,498.09
111.54679,392.51,497.37
111.56625,393.78,496.67
111.58618,393.90,498.94
111.60622,394.05,497.81
111.62657,394.45,497.20
111.64777,394.35,498.32
111.66642,392.87,498.58
111.68615,392.50,498.96
111.70637,393.87,497.10
111.72616,390.22,496.60
111.74732,394.47,497.60
111.76612,393.70,497.68
111.78667,393.74,498.02
111.80654,394.64,496.32
111.82645,390.87,497.51
111.84683,392.70,494.63
111.86667,389.75,495.58
111.88760,389.34,497.39
111.90715,391.08,497.80
111.92682,390.06,496.39
111.94616,389.66,498.09
111.96754,389.49,497.68
111.98720,391.61,498.79
112.00629,391.94,500.90
112.02748,390.97,497.09
112.04770,388.88,494.52
112.06789,391.07,497.28
112.08815,387.65,496.60
112.10849,386.12,496.77
112.12722,386.30,498.48
112.14753,388.69,497.63
112.16816,385.47,498.36
112.18852,387.03,496.88
112.20862,386.02,497.75
112.22749,386.15,495.69
112.24858,388.48,496.24
112.26765,388.29,496.78
112.28723,388.88,497.57
112.30833,397.35,500.18
112.32883,411.95,509.86
112.34881,432.81,521.88
112.36879,456.91,535.46
112.38840,475.59,543.94
112.40773,495.87,547.35
112.42878,508.35,548.06
112.44740,517.49,543.38
112.46751,520.22,538.59
112.48713,517.15,530.36
112.50779,514.97,520.74
112.52861,505.13,517.21
112.54866,498.57,507.49
112.56706,489.81,501.87
112.58736,481.97,495.63
112.60788,472.09,491.49
112.62776,460.23,488.65
112.64816,455.06,485.40
112.66785,444.71,485.29
112.68858,435.88,485.43
112.70851,431.43,484.51
112.72837,425.51,488.23
112.74813,418.71,486.48
112.76841,417.15,488.92
112.78813,412.61,491.01
112.80729,407.67,492.40
112.82765,400.87,495.27
112.84819,400.00,493.48
112.86759,396.09,494.67
112.88758,393.99,496.74
112.90815,392.00,496.84
112.92842,390.31,496.70
112.94881,387.44,495.62
112.96940,388.46,494.49
112.98835,385.37,494.76
113.00925,384.57,496.85
113.02998,384.45,495.42
113.04857,385.38,495.62
113.06913,383.76,493.51
113.08998,383.09,495.06
113.10830,381.27,495.67
113.12970,383.57,497.76
113.14904,379.50,496.16
113.16920,366.02,498.52
113.18925,352.48,498.08
113.20987,330.71,492.55
113.22968,312.94,491.13
113.24966,291.74,483.47
113.27081,276.22,476.01
113.28911,259.46,472.78
113.30921,252.09,464.47
113.33079,247.84,463.07
113.34903,251.11,463.79
113.36933,260.67,462.20
113.38970,267.33,463.80
113.41010,274.11,464.28
113.42935,285.65,466.81
113.44975,295.25,468.87
113.47043,304.79,473.85
113.48978,315.99,474.51
113.50914,322.82,476.91
113.52978,332.25,482.29
113.55049,339.64,481.27
113.57094,346.31,483.72
113.59078,348.22,486.60
113.61031,353.76,490.58
113.63017,359.88,489.71
113.65042,361.62,492.88
113.66967,364.47,492.95
113.68963,368.07,492.70
113.71003,366.71,492.12
113.73059,370.96,491.20
113.74978,374.33,493.49
113.77061,373.39,493.77
113.78960,374.90,494.15
113.81000,378.93,493.92
113.82978,376.15,494.23
113.85182,381.49,494.07
113.87110,381.96,494.71
113.89042,378.93,495.24
113.91079,381.87,495.18
113.93110,380.56,493.99
113.95174,380.61,495.31
113.97057,381.17,494.18
113.99084,381.52,495.69
114.01275,384.87,496.55
114.03119,385.04,496.37
114.05198,386.89,494.81
114.07294,385.64,496.47
114.09153,389.18,499.19
114.11261,390.25,497.35
114.13230,389.16,495.86
114.15164,390.39,496.39
114.17127,390.22,499.05
114.19179,392.40,498.15
114.21117,392.09,498.37
114.23172,390.75,497.84
114.25132,390.47,497.02
114.27162,389.75,498.29
114.29285,390.90,497.83
114.31177,390.94,494.93
114.33156,391.36,495.17
114.35283,389.40,497.27
114.37279,390.93,495.15
114.39153,389.68,494.05
114.41139,392.76,496.80
114.43256,392.01,495.35
114.45137,389.96,496.88
114.47296,392.84,494.61
114.49165,388.61,496.23
114.51132,391.93,494.68
114.53109,389.52,496.22
114.55108,392.52,497.42
114.57118,391.59,495.05
114.59197,393.57,496.06
114.61182,395.40,498.26
114.63131,394.87,498.86
114.65201,393.11,497.34
114.67164,395.03,498.22
114.69174,396.66,495.04
114.71137,394.18,495.50
114.73162,393.05,495.31
114.75186,394.39,495.38
114.77124,392.13,497.54
114.79195,395.76,498.09
114.81285,393.06,497.43
114.83283,393.47,498.60
114.85179,395.16,496.11
114.87283,394.62,500.47
114.89113,391.82,498.99
114.91165,392.50,500.79
114.93183,392.34,497.80
114.95263,394.26,498.29
114.97260,392.69,496.52
114.99104,394.23,494.54
115.01268,396.54,494.58
115.03161,395.97,495.06
115.05190,393.64,492.80
115.07148,392.71,494.58
115.09101,395.17,492.76
115.11120,393.17,492.22
115.13294,391.86,490.80
115.15112,393.10,491.73
115.17169,394.63,491.86
115.19298,394.98,491.17
115.21155,393.38,492.98
115.23284,394.73,491.70
115.25257,393.54,493.91
115.27117,394.97,494.19
115.29262,395.78,495.30
115.31282,395.37,492.10
115.33245,393.35,493.86
115.35249,395.80,495.02
115.37295,396.48,495.87
115.39253,394.74,495.98
115.41101,396.02,495.22
115.43142,398.16,494.58
115.45199,399.55,497.12
115.47255,397.37,494.95
115.49256,399.26,494.65
115.51275,399.18,493.76
115.53255,398.22,494.61
115.55153,395.64,493.88
115.57133,395.31,493.71
115.59285,398.49,495.52
115.61160,398.26,493.90
115.63115,395.32,493.20
115.65224,396.64,493.22
115.67277,398.44,494.58
115.69290,398.38,493.32
115.71231,399.75,494.03
115.73171,401.03,493.18
115.75125,400.26,493.47
115.77297,398.95,493.47
115.79130,401.64,495.05
115.81160,400.80,496.51
115.83251,401.57,494.15
115.85190,400.58,494.12
115.87260,400.14,496.72
115.89218,397.96,496.60
115.91281,400.87,494.84
115.93260,400.14,495.62
115.95217,398.19,495.98
115.97127,401.90,499.01
115.99294,398.92,495.67
116.01144,400.72,498.51
116.03219,402.63,497.22
116.05133,401.69,496.05
116.07249,401.40,494.91
116.09299,400.16,496.18
116.11199,402.78,496.05
116.13187,401.05,492.69
116.15279,399.02,494.91
116.17303,400.49,493.04
116.19236,403.59,495.83
116.21314,399.86,495.06
116.23311,401.22,497.02
116.25276,402.45,495.25
116.27373,403.14,494.31
116.29356,403.05,492.53
116.31232,400.72,491.84
116.33205,400.60,490.75
116.35216,403.14,490.48
116.37305,405.38,496.51
116.39231,416.95,499.28
116.41358,434.30,509.16
116.43366,453.99,519.83
116.45374,476.47,529.44
116.47202,494.01,535.49
116.49352,510.78,540.23
116.51266,520.43,538.03
116.53386,523.31,532.84
116.55280,525.78,529.70
116.57382,526.38,522.85
116.59277,522.27,515.77
116.61223,512.69,505.79
116.63279,507.17,501.84
116.65345,497.91,497.85
116.67301,490.30,495.84
116.69361,480.95,491.04
116.71313,469.76,490.08
116.73263,464.69,491.68
116.75398,454.99,489.04
116.77374,449.23,491.02
116.79327,440.53,492.74
116.81243,435.98,494.38
116.83262,431.90,493.26
116.85227,428.71,497.01
116.87239,425.74,496.22
116.89399,420.84,495.64
116.91265,416.29,495.34
116.93235,416.34,500.02
116.95219,412.50,500.25
116.97297,408.33,499.85
116.99286,410.01,502.78
117.01313,405.49,501.96
117.03228,405.59,505.55
117.05329,404.17,503.99
117.07325,404.03,504.59
117.09315,406.42,505.90
117.11220,406.41,505.54
117.13216,401.10,506.17
117.15368,402.16,502.40
117.17209,401.37,504.98
117.19307,402.09,505.44
117.21349,402.99,503.33
117.23292,404.84,502.21
117.25258,406.18,502.92
117.27396,405.09,502.59
117.29339,403.70,504.18
117.31366,403.02,504.67
117.33304,391.37,504.70
117.35204,376.51,505.47
117.37260,357.37,499.83
117.39377,333.85,498.39
117.41298,313.36,491.51
117.43347,295.82,482.89
117.45356,277.89,475.29
117.47200,267.27,468.62
117.49385,266.20,464.54
117.51328,266.94,464.65
117.53270,276.47,464.04
117.55337,282.02,464.84
117.57246,292.90,469.72
117.59343,303.82,470.79
117.61237,314.30,476.62
117.63237,321.78,479.20
117.65398,331.92,484.22
117.67220,337.68,485.26
117.69295,346.35,490.68
117.71271,353.09,490.53
117.73210,357.02,492.75
117.75298,362.99,494.66
117.77315,368.68,499.03
117.79338,373.56,500.01
117.81339,377.48,499.94
117.83261,377.20,501.21
117.85390,380.72,502.92
117.87237,383.83,499.88
117.89334,384.80,501.38
117.91340,387.94,499.38
117.93220,388.35,500.59
117.95213,387.88,501.08
117.97255,389.76,500.82
117.99383,392.16,500.66
118.01219,393.53,500.56
118.03222,392.39,503.16
118.05494,392.98,502.90
118.07352,395.84,499.27
118.09384,392.56,501.30
118.11370,393.84,500.99
118.13397,395.95,499.59
118.15311,393.51,500.86
118.17429,393.46,499.19
118.19448,395.88,499.11
118.21460,392.50,499.18
118.23492,392.19,499.71
118.25391,393.59,501.54
118.27316,395.33,500.03
118.29358,393.70,498.61
118.31465,396.55,499.11
118.33343,396.21,499.05
118.35446,393.96,501.70
118.37485,395.80,501.44
118.39450,392.42,499.02
118.41360,394.11,502.12
118.43329,394.03,502.47
118.45437,392.78,500.38
118.47368,394.30,500.44
118.49417,391.72,500.14
118.51489,393.23,501.72
118.53421,392.90,504.10
118.55326,392.21,503.25
118.57455,392.68,500.89
118.59492,394.42,500.76
118.61351,392.04,499.17
118.63465,393.20,500.12
118.65414,393.69,497.75
118.67357,395.26,498.41
118.69397,393.95,498.24
118.71495,395.38,498.87
118.73321,394.56,498.77
118.75354,394.30,498.77
118.77486,394.67,499.61
118.79303,391.03,499.60
118.81443,392.42,500.57
118.83382,394.30,499.72
118.85329,393.35,499.60
118.87452,394.03,500.87
118.89316,392.60,499.50
118.91445,395.32,498.36
118.93374,394.67,499.01
118.95454,392.09,499.10
118.97318,391.96,500.57
118.99403,392.25,497.54
119.01484,393.83,498.97
119.03399,393.37,500.75
119.05431,391.65,500.76
119.07416,393.60,501.43
119.09564,392.84,499.64
119.11550,393.83,499.70
119.13461,392.25,503.19
119.15446,392.29,500.96
119.17543,392.72,503.65
119.19429,392.78,501.98
119.21546,389.79,503.52
119.23403,392.65,501.67
119.25465,392.33,502.39
119.27529,390.76,500.27
119.29446,388.38,499.63
119.31441,386.45,499.94
119.33513,384.75,501.61
119.35535,385.10,498.27
119.37598,386.78,499.50
119.39519,387.53,497.86
119.41458,386.47,498.49
119.43576,385.06,498.56
119.45403,386.02,498.37
119.47591,385.34,496.84
119.49574,386.49,494.79
119.51421,387.70,495.04
119.53503,386.79,497.38
119.55531,389.63,494.34
119.57563,388.43,495.74
119.59492,384.82,495.69
119.61419,384.49,493.96
119.63526,385.00,496.55
119.65456,388.34,495.54
119.67544,385.74,494.87
119.69495,388.62,497.12
119.71412,388.41,497.09
119.73454,386.21,494.89
119.75433,388.32,496.71
119.77541,385.74,494.99
119.79464,387.95,492.86
119.81502,387.22,496.31
119.83542,385.81,494.19
119.85580,384.11,495.02
119.87477,387.70,494.76
119.89525,388.14,493.75
119.91417,387.90,496.00
119.93525,386.47,495.15
119.95593,385.24,495.65
119.97504,392.27,496.64
119.99433,404.88,499.85
120.01421,423.42,510.77
120.03590,445.19,522.09
120.05576,466.48,534.24
120.07521,489.17,541.53
120.09596,507.83,546.33
120.11563,520.12,547.08
120.13515,527.70,543.84
120.15450,527.81,540.64
120.17426,524.98,531.50
120.19562,518.16,525.09
120.21524,510.10,515.90
120.23462,499.71,508.28
120.25512,488.99,502.44
120.27566,476.51,495.77
120.29570,468.29,490.39
120.31510,459.08,488.52
120.33531,447.08,488.33
120.35525,438.90,486.06
120.37497,432.28,486.57
120.39546,424.43,488.60
120.41578,417.11,490.00
120.43498,413.87,492.30
120.45452,408.19,492.36
120.47497,403.98,493.80
120.49402,402.18,495.33
120.51491,400.97,494.61
120.53552,398.52,494.90
120.55591,393.84,495.54
120.57504,390.71,495.35
120.59577,389.24,499.25
120.61429,391.31,499.92
120.63563,390.40,498.67
120.65463,386.92,501.10
120.67477,385.77,502.37
120.69449,386.71,503.10
120.71599,383.77,499.85
120.73551,384.28,501.00
120.75500,384.51,500.15
120.77546,382.77,502.31
120.79493,383.30,499.35
120.81506,383.48,497.20
120.83512,384.41,498.82
120.85513,381.71,500.48
120.87567,378.20,500.91
120.89454,366.93,503.91
120.91419,351.97,501.30
120.93468,333.67,500.99
120.95467,313.79,496.67
120.97488,294.04,492.96
120.99452,274.26,485.12
121.01408,258.34,476.15
121.03468,249.55,470.00
121.05566,249.76,465.97
121.07402,254.24,465.67
121.09571,261.80,465.29
121.11557,270.66,466.32
121.13512,277.11,465.11
121.15536,287.23,469.43
121.17560,299.40,470.39
121.19455,309.16,475.10
121.21425,317.27,474.56
121.23444,325.87,480.71
121.25543,334.88,483.12
121.27517,342.03,483.88
121.29536,345.39,485.63
121.31559,350.30,487.68
121.33538,354.80,490.30
121.35489,360.03,489.67
121.37415,362.77,489.04
121.39579,363.97,491.24
121.41466,366.52,489.96
121.43436,368.83,490.74
121.45575,370.94,492.68
121.47451,372.17,492.33
121.49542,373.32,493.27
121.51433,373.72,492.35
121.53569,377.88,494.51
121.55491,378.92,492.49
121.57470,379.39,492.93
121.59417,378.18,492.74
121.61427,381.02,494.27
121.63480,381.98,495.14
121.65477,379.56,495.41
121.67481,380.60,494.72
121.69504,381.76,495.69
121.71558,379.01,494.62
121.73517,380.12,494.35
121.75566,381.84,490.95
121.77508,381.53,490.01
121.79528,380.51,489.36
121.81494,379.60,491.32
121.83407,380.98,489.75
121.85541,381.42,490.36
121.87526,380.00,488.72
121.89584,380.50,489.09
121.91676,383.41,491.46
121.93692,383.09,490.80
121.95656,383.52,491.73
121.97659,384.67,491.08
121.99588,382.03,492.42
122.01679,384.86,494.32
122.03551,385.33,492.72
122.05525,383.60,492.93
122.07600,383.74,492.29
122.09665,383.40,491.70
122.11766,384.60,492.58
122.13645,384.18,494.58
122.15651,386.11,492.69
122.17750,388.28,492.98
122.19709,385.61,494.61
122.21607,384.33,494.95
122.23725,384.89,493.38
122.25620,382.91,493.82
122.27628,384.85,493.26
122.29771,386.27,493.39
122.31683,383.32,495.04
122.33797,386.19,494.40
122.35717,388.44,494.92
122.37739,386.68,494.28
122.39771,387.72,495.45
122.41633,387.91,495.45
122.43719,389.77,495.30
122.45722,387.62,495.71
122.47659,387.65,494.27
122.49694,388.49,494.33
122.51718,387.69,495.59
122.53741,389.67,494.32
122.55719,387.11,495.01
122.57781,387.93,495.56
122.59686,387.90,497.45
122.61611,390.16,498.09
122.63628,389.24,496.51
122.65737,390.64,494.42
122.67792,388.69,497.23
122.69785,389.33,495.97
122.71654,390.69,497.39
122.73647,390.83,496.49
122.75634,389.80,497.03
122.77630,387.83,497.93
122.79798,388.29,495.87
122.81609,391.12,496.31
122.83738,388.49,498.40
122.85629,387.91,498.57
122.87789,387.55,496.85
122.89651,391.99,496.23
122.91736,388.18,498.12
122.93717,391.00,496.14
122.95739,391.73,495.23
122.97628,388.71,497.74
122.99784,390.34,497.48
123.01619,390.95,499.01
123.03708,390.67,499.62
123.05604,392.34,497.82
123.07636,390.95,497.18
123.09717,391.53,496.99
123.11636,392.45,496.20
123.13681,394.10,496.94
123.15737,394.13,496.12
123.17895,396.01,497.90
123.19801,392.70,497.92
123.21857,396.09,496.15
123.23715,394.33,495.94
123.25864,396.50,496.90
123.27853,395.56,495.80
123.29717,397.14,495.81
123.31863,394.61,494.42
123.33866,394.34,496.68
123.35857,396.68,494.04
123.37805,396.42,494.10
123.39733,397.33,494.32
123.41703,397.52,492.95
123.43756,398.06,496.86
123.45752,404.25,498.52
123.47740,422.08,509.11
123.49737,448.61,518.17
123.51757,471.89,528.69
123.53715,494.95,537.16
123.55733,512.65,541.94
123.57718,526.18,539.93
123.59876,531.38,533.30
123.61803,531.67,528.27
123.63800,528.87,519.86
123.65782,522.38,512.35
123.67709,517.25,507.12
123.69863,509.27,501.59
123.71764,498.42,496.56
123.73711,489.17,490.07
123.75723,478.21,488.70
123.77796,470.53,486.25
123.79806,461.34,487.83
123.81709,454.96,484.91
123.83853,447.01,484.91
123.85844,440.18,488.14
123.87735,434.37,486.27
123.89834,432.27,487.72
123.91858,426.20,492.33
123.93770,421.57,490.90
123.95780,418.38,491.39
123.97718,418.53,492.83
123.99790,412.68,493.19
124.01887,409.02,498.14
124.03850,409.73,495.82
124.05845,407.38,498.15
124.07802,407.58,498.07
124.09868,405.68,497.06
124.11703,405.60,499.84
124.13858,403.70,496.88
124.15750,403.23,499.26
124.17753,403.69,499.49
124.19893,401.47,499.36
124.21747,402.92,499.83
124.23883,400.16,495.32
124.25729,400.03,495.58
124.27767,398.66,497.96
124.29816,391.31,504.42
124.31799,381.50,513.49
124.33828,367.69,523.74
124.35782,350.66,530.84
124.37880,330.65,527.13
124.39804,311.75,514.00
124.41829,293.68,497.77
124.43874,279.47,481.80
124.45710,268.57,471.60
124.47734,267.87,464.40
124.49856,270.66,456.41
124.51798,277.26,456.95
124.53841,288.70,454.59
124.55895,296.81,454.96
124.57789,305.73,454.10
124.59744,315.29,459.91
124.61741,327.38,463.82
124.63818,335.71,464.88
124.65806,342.29,468.99
124.67974,352.28,470.92
124.69961,358.26,476.85
124.71952,363.54,480.64
124.73819,371.82,484.17
124.75867,374.91,483.63
124.77861,378.12,487.27
124.79962,382.98,488.25
124.81854,385.08,489.68
124.83881,385.92,492.16
124.85928,386.87,494.50
124.87982,389.38,493.76
124.89915,392.01,495.32
124.91819,394.88,495.90
124.93938,395.75,497.40
124.95891,397.67,496.70
124.97918,397.45,495.44
124.99953,397.18,497.08
125.01922,399.23,497.50
125.03843,398.85,498.34
125.05810,400.31,497.69
125.07824,400.71,498.20
125.09880,399.82,497.22
125.11903,401.47,499.21
125.13829,399.97,498.54
125.15952,401.23,500.48
125.17991,402.33,500.43
125.19836,403.18,500.85
125.21953,403.43,499.95
125.23966,403.02,501.29
125.25890,405.89,499.40
125.27932,404.35,499.48
125.29903,402.70,498.62
125.31808,403.47,501.07
125.33935,403.57,500.51
125.35937,404.42,501.04
125.37810,404.68,498.55
125.39866,403.68,500.69
125.41843,404.09,498.70
125.43940,403.98,497.13
125.45972,400.74,497.81
125.47815,404.25,499.12
125.49935,401.41,500.19
125.51804,402.54,498.47
125.53959,403.96,502.08
125.55925,404.81,499.53
125.57889,407.21,497.75
125.59930,404.91,497.70
125.61875,404.48,496.79
125.63873,404.61,499.76
125.65955,404.68,500.99
125.67809,403.80,498.44
125.69854,405.18,497.89
125.71927,400.53,500.81
125.73888,401.13,498.68
125.75956,402.38,499.42
125.77969,403.02,500.45
125.79916,403.14,500.28
125.81973,400.34,497.46
125.83854,400.34,498.26
125.85986,399.70,499.30
125.87945,400.20,498.45
125.89835,400.46,499.61
125.91919,400.80,498.94
125.93870,399.67,498.48
125.95971,402.48,498.78
125.97919,400.02,499.86
125.99927,398.08,498.88
126.01801,397.93,500.25
126.03966,398.17,500.11
126.05864,400.71,499.82
126.07898,396.67,502.40
126.09944,397.13,499.81
126.11933,399.92,499.81
126.13958,398.90,499.32
126.15851,400.14,502.28
126.17819,400.44,498.06
126.19983,398.37,500.62
126.21958,398.98,500.06
126.23919,398.37,498.27
126.25860,399.58,498.61
126.27914,396.46,497.65
126.29805,396.53,497.49
126.31912,397.18,497.35
126.33880,398.83,499.00
126.35837,398.98,497.33
126.37919,398.97,497.90
126.39823,401.96,498.89
126.41911,399.96,497.18
126.44066,400.39,498.35
126.46072,401.50,499.02
126.47979,400.33,500.41
126.50033,400.97,499.01
126.52100,399.48,499.05
126.54102,401.95,497.45
126.56116,396.45,498.39
126.58158,398.95,498.29
126.60160,398.35,500.87
126.62003,398.09,497.95
126.64195,395.67,496.16
126.66198,396.79,496.99
126.68159,396.73,497.08
126.70116,395.81,498.48
126.72106,396.64,498.78
126.74178,396.10,496.23
126.76015,396.16,496.93
126.78018,396.06,499.33
126.80132,394.27,498.62
126.82139,393.64,496.88
126.84200,392.44,496.58
126.86294,391.14,497.26
126.88178,390.60,495.66
126.90296,390.18,496.28
126.92217,389.87,496.79
126.94253,388.78,495.74
126.96187,388.88,497.04
126.98271,389.62,493.94
127.00275,389.32,496.34
127.02210,390.21,497.61
127.04239,389.63,498.55
127.06286,393.03,500.91
127.08275,401.30,505.00
127.10228,421.70,516.21
127.12290,441.48,529.30
127.14252,466.32,537.95
127.16128,485.20,542.70
127.18270,502.37,543.39
127.20208,516.81,539.16
127.22143,519.76,533.09
127.24368,520.81,525.17
127.26258,516.25,520.75
127.28284,511.88,515.41
127.30227,507.59,509.02
127.32203,497.77,501.48
127.34295,485.45,498.18
127.36324,475.15,495.47
127.38390,469.30,490.96
127.40303,458.16,489.13
127.42346,447.17,492.40
127.44244,439.82,492.22
127.46391,431.93,493.07
127.48235,427.68,492.15
127.50223,419.13,493.37
127.52346,414.13,495.96
127.54243,408.78,493.14
127.56203,407.74,495.89
127.58352,405.06,494.41
127.60307,400.62,497.60
127.62249,399.68,496.61
127.64367,395.34,499.11
127.66347,393.79,499.16
127.68372,391.63,497.72
127.70259,392.11,497.88
127.72296,390.50,497.38
127.74204,387.72,495.22
127.76234,388.28,498.15
127.78301,384.27,497.29
127.80286,386.83,496.81
127.82355,383.19,498.10
127.84319,385.51,498.65
127.86312,380.59,497.76
127.88313,372.77,500.84
127.90306,362.58,501.80
127.92494,344.64,501.66
127.94357,323.95,496.63
127.96429,301.66,488.41
127.98322,279.84,477.49
128.00347,265.97,469.19
128.02390,254.32,460.09
128.04380,253.84,458.32
128.06421,256.42,455.74
128.08416,260.71,455.30
128.10393,270.28,455.67
128.12467,277.59,458.48
128.14395,288.10,463.82
128.16319,299.33,469.07
128.18448,308.69,471.88
128.20421,315.07,473.43
128.22427,324.78,477.79
128.24438,332.01,481.93
128.26600,338.81,485.73
128.28581,343.47,486.12
128.30586,347.79,488.76
128.32652,352.67,489.61
128.34549,356.33,490.43
128.36664,361.19,492.29
128.38622,361.75,492.72
128.40556,366.92,490.06
128.42635,369.82,491.87
128.44531,370.77,493.05
128.46680,374.21,494.52
128.48658,374.80,493.69
128.50603,375.09,495.35
128.52546,374.91,494.52
128.54556,376.35,494.21
128.56605,377.86,495.93
128.58510,378.98,495.13
128.60629,378.15,496.24
128.62683,378.86,496.45
128.64666,381.08,494.71
128.66594,382.48,495.16
128.68601,381.19,494.86
128.70641,383.04,495.89
128.72601,383.27,498.48
128.74618,382.62,495.89
128.76635,382.74,498.49
128.78550,382.96,497.41
128.80647,383.95,498.61
128.82609,382.60,495.51
128.84542,382.43,496.32
128.86636,383.26,495.19
128.88685,383.13,496.90
128.90524,385.04,498.61
128.92600,381.66,496.99
128.94672,383.82,498.64
128.96560,385.66,499.49
128.98693,385.16,498.87
129.00518,384.60,498.70
129.02676,386.19,498.34
129.04700,388.49,498.70
129.06628,386.99,497.72
129.08625,390.00,500.57
129.10604,386.93,499.08
129.12563,387.33,500.99
129.14581,388.36,499.97
129.16528,388.94,498.51
129.18517,386.62,496.93
129.20570,388.67,499.28
129.22632,386.05,497.61
129.24524,383.88,498.65
129.26587,384.55,498.05
129.28687,385.93,498.31
129.30606,384.18,497.81
129.32763,386.55,496.27
129.34712,386.77,499.27
129.36598,386.93,497.34
129.38650,388.65,495.32
129.40677,387.86,498.13
129.42866,389.07,498.02
129.44757,390.33,496.65
129.46766,390.91,497.73
129.48851,391.37,495.25
129.50715,391.04,497.49
129.52805,394.10,494.90
129.54760,393.54,496.54
129.56627,393.09,496.41
129.58878,396.91,497.06
129.60765,395.97,495.93
129.62854,395.05,496.56
129.64738,396.10,496.08
129.66615,394.01,497.73
129.68836,394.71,495.60
129.70719,395.65,495.72
129.72725,397.45,496.67
129.74760,397.36,499.95
129.76967,394.74,497.45
129.78967,394.65,497.99
129.80884,396.96,501.32
129.82982,398.90,500.89
129.84926,400.32,497.27
129.86905,400.28,497.28
129.88985,401.47,497.86
129.90830,401.18,498.73
129.92896,402.66,499.15
129.94889,399.76,497.65
129.96969,399.05,496.45
129.98890,399.65,496.20
130.00849,398.86,496.68
130.02934,398.55,496.97
130.04845,396.06,493.45
130.06970,396.90,495.19
130.08886,398.73,493.11
130.11093,397.79,496.52
130.13041,401.30,495.05
130.14936,400.69,493.87
130.17025,401.62,494.98
130.18934,401.17,496.69
130.20953,402.27,497.14
130.23088,401.61,495.49
130.25183,402.39,497.91
130.27021,403.19,497.98
130.29166,401.85,496.50
130.31177,402.91,499.57
130.33077,402.32,495.92
130.35179,404.78,498.78
130.37048,405.29,497.36
130.39031,404.50,496.61
130.41116,400.99,496.17
130.43065,403.24,500.99
130.45146,404.22,499.45
130.47077,403.27,499.26
130.49129,405.10,502.01
130.51094,403.45,499.56
130.53181,401.36,502.80
130.55046,403.15,501.66
130.56931,404.27,499.73
130.59061,405.18,499.18
130.61190,403.09,498.40
130.63040,402.30,498.22
130.65161,403.63,500.27
130.67146,405.27,500.49
130.69110,403.80,500.05
130.71166,406.27,498.93
130.73104,403.44,496.47
130.75047,405.46,498.19
130.77147,405.06,499.10
130.79147,405.00,496.64
130.81051,405.45,500.20
130.83133,402.69,497.20
130.85002,404.28,497.92
130.87018,403.20,497.35
130.89115,403.57,498.50
130.91000,404.27,498.85
130.93181,405.50,499.08
130.95010,406.24,501.18
130.97196,408.51,501.19
130.99191,419.47,509.61
131.01045,442.43,519.02
131.03003,467.25,528.26
131.05009,489.94,537.02
131.07103,508.32,540.66
131.09197,523.83,542.48
131.11187,530.83,538.11
131.13178,535.02,533.87
131.15033,533.79,528.33
131.17117,526.75,523.42
131.19176,522.66,515.72
131.21177,514.58,510.86
131.23051,504.14,505.01
131.25024,495.18,502.32
131.27137,486.65,500.25
131.29060,477.05,498.46
131.31131,469.89,497.75
131.33098,461.95,496.06
131.35002,450.27,499.01
131.36947,445.93,497.58
131.39163,437.85,497.49
131.41164,437.29,497.99
131.43133,433.55,500.10
131.45015,425.95,496.99
131.47093,424.06,498.39
131.49155,422.14,500.87
131.51144,418.43,501.90
131.53052,415.26,499.39
131.55155,414.98,499.89
131.57115,410.41,498.34
131.59064,411.78,499.40
131.61150,407.89,500.88
131.63106,406.80,501.28
131.65124,407.84,503.26
131.67130,403.19,501.16
131.68941,404.27,500.32
131.71014,404.00,499.32
131.73247,403.45,498.02
131.75220,404.50,499.15
131.77243,403.92,496.96
131.79199,404.17,496.56
131.81177,403.21,497.28
131.83219,403.69,500.02
131.85065,402.47,499.32
131.87286,402.36,500.45
131.89237,401.73,500.03
131.91257,400.54,497.93
131.93184,400.59,498.54
131.95127,401.88,498.60
131.97123,398.70,499.05
131.99190,399.65,501.79
132.01155,399.64,500.69
132.03002,395.29,505.41
132.05100,384.83,515.32
132.07162,371.03,523.94
132.09105,357.41,529.92
132.11133,335.57,529.48
132.13178,318.27,523.09
132.15269,299.48,511.10
132.17185,281.99,495.45
132.19130,270.24,483.45
132.21167,269.35,474.22
132.23279,272.40,468.04
132.25105,279.80,465.50
132.27263,286.98,462.39
132.29244,294.78,464.60
132.31288,305.98,465.35
132.33166,316.61,464.25
132.35178,325.69,467.41
132.37398,333.28,466.65
132.39311,336.87,471.34
132.41289,344.74,475.57
132.43389,351.19,475.33
132.45397,353.72,475.65
132.47378,359.04,479.29
132.49378,365.60,482.09
132.51436,368.85,482.93
132.53328,371.14,487.42
132.55370,370.20,485.03
132.57490,374.62,487.60
132.59492,377.75,485.54
132.61435,376.82,486.65
132.63497,377.43,489.41
132.65560,379.60,487.09
132.67583,378.47,487.04
132.69415,379.07,490.36
132.71460,381.70,490.89
132.73308,380.71,489.90
132.75543,384.89,491.10
132.77458,385.49,489.88
132.79465,386.16,490.14
132.81481,384.71,491.77
132.83520,384.09,489.93
132.85521,385.66,491.09
132.87535,384.21,491.48
132.89469,384.39,490.60
132.91527,383.94,492.63
132.93458,384.67,492.35
132.95458,386.54,494.84
132.97465,385.77,494.46
132.99409,387.46,495.42
133.01477,386.84,495.52
133.03441,385.82,496.89
133.05415,384.06,494.90
133.07434,385.61,496.84
133.09408,382.59,496.63
133.11473,385.32,496.03
133.13415,385.11,495.31
133.15469,383.67,495.91
133.17526,383.14,497.56
133.19453,381.71,497.35
133.21582,381.83,496.99
133.23384,385.76,496.56
133.25577,382.69,495.68
133.27424,384.56,497.97
133.29401,384.98,496.47
133.31401,383.13,496.35
133.33510,379.37,500.81
133.35573,376.94,501.95
133.37559,377.48,502.92
133.39585,376.17,502.73
133.41486,375.77,500.84
133.43587,376.43,501.16
133.45583,374.76,502.79
133.47405,376.68,500.48
133.49573,379.14,498.52
133.51375,379.88,496.44
133.53446,378.43,493.75
133.55449,377.20,494.01
133.57523,378.09,492.17
133.59487,379.62,492.24
133.61513,382.68,493.70
133.63560,382.33,493.68
133.65457,379.53,490.53
133.67598,382.15,493.64
133.69487,382.81,490.89
133.71480,379.21,491.10
133.73425,379.17,493.41
133.75469,381.15,491.00
133.77497,381.54,492.34
133.79498,380.11,495.10
133.81407,382.09,494.70
133.83441,383.37,497.49
133.85541,380.49,496.58
133.87570,383.64,497.11
133.89488,381.04,496.22
133.91424,383.58,498.18
133.93490,384.79,498.30
133.95393,385.27,499.02
133.97402,383.15,501.56
133.99488,380.81,498.18
134.01487,378.95,487.79
134.03581,373.54,470.04
134.05521,372.60,450.50
134.07557,368.34,434.44
134.09594,365.76,424.31
134.11363,365.10,415.68
134.13596,361.45,409.69
134.15555,360.05,409.36
134.17426,360.13,416.38
134.19454,362.45,414.65
134.21468,360.78,423.24
134.23549,360.84,433.00
134.25500,365.31,443.09
134.27529,367.22,449.86
134.29508,372.21,459.85
134.31307,374.92,468.55
134.33350,376.17,471.94
134.35441,377.08,476.56
134.37405,372.80,496.75
134.39559,372.94,509.09
134.41519,376.22,519.28
134.43301,376.96,521.68
134.45454,375.03,522.31
134.47597,376.95,523.84
134.49416,373.85,516.54
134.51505,377.17,511.18
134.53521,378.82,520.41
134.55442,381.45,516.63
134.57371,378.41,510.24
134.59427,379.20,507.31
134.61589,379.16,512.47
134.63452,383.96,514.36
134.65312,385.15,514.06
134.67413,387.18,521.44
134.69393,384.21,518.86
134.71526,392.49,522.33
134.73549,393.32,530.63
134.75450,392.19,532.22
134.77498,390.40,522.14
134.79425,393.52,530.95
134.81542,389.26,519.39
134.83444,389.80,496.76
