Program Time [s],data 0,data 1
98.04857,348.21,397.37
98.06833,352.99,406.63
98.08848,354.88,409.70
98.10652,347.97,402.51
98.12701,351.54,404.40
98.14679,354.41,419.95
98.16696,359.96,424.01
98.18655,359.60,422.80
98.20811,366.97,434.92
98.22743,366.11,443.32
98.24753,361.23,438.96
98.26701,367.11,443.32
98.28852,363.14,460.53
98.30677,362.27,462.93
98.32792,364.71,456.84
98.34759,369.09,466.86
98.36709,366.11,473.81
98.38667,364.76,476.69
98.40662,368.87,492.32
98.42804,367.31,487.54
98.44773,365.41,489.82
98.46756,360.44,485.22
98.48703,360.62,483.84
98.50848,358.88,483.33
98.52751,360.94,482.46
98.54737,358.20,483.25
98.56667,360.39,476.06
98.58776,358.13,476.82
98.60768,355.61,479.07
98.62914,359.50,477.04
98.64763,360.38,478.31
98.66846,359.81,479.41
98.68941,363.55,480.34
98.71091,358.82,483.98
98.73101,360.16,487.79
98.75250,357.25,486.50
98.77158,355.89,487.05
98.79331,355.70,483.52
98.81162,354.43,486.41
98.83176,356.59,484.26
98.85321,357.16,480.81
98.87185,360.82,494.20
98.89240,357.22,497.21
98.91406,358.34,499.99
98.93256,358.74,503.25
98.95473,357.96,499.84
98.97358,357.04,496.11
98.99639,361.24,497.72
99.01586,366.95,494.40
99.03739,370.69,500.43
99.05748,376.00,502.33
99.07700,375.65,505.56
99.09720,379.11,504.19
99.11635,373.30,498.05
99.13636,373.35,497.40
99.15657,375.59,501.66
99.17808,375.64,498.55
99.19724,376.92,497.72
99.21778,379.83,492.96
99.23948,378.89,495.55
99.26088,377.75,500.18
99.28189,378.78,502.67
99.30204,379.03,503.19
99.32155,382.04,495.59
99.34173,386.18,495.26
99.36145,387.36,506.38
99.38107,383.90,502.74
99.40258,382.95,504.83
99.42308,381.26,504.64
99.44257,381.06,505.28
99.46284,382.76,505.91
99.48223,379.45,510.76
99.50300,380.91,507.08
99.52201,380.21,502.75
99.54290,383.50,508.09
99.56273,377.26,505.49
99.58283,377.62,504.61
99.60229,379.23,503.64
99.62187,376.50,510.98
99.64142,378.43,508.80
99.66322,377.86,506.33
99.68271,380.33,505.29
99.70325,377.16,505.24
99.72145,379.64,502.83
99.74150,377.14,499.75
99.76167,377.92,501.01
99.78206,377.13,503.35
99.80220,380.99,501.60
99.82317,376.25,503.19
99.84269,379.91,501.80
99.86141,380.54,503.41
99.88173,378.38,507.46
99.90296,377.09,507.08
99.92200,376.91,504.58
99.94227,374.49,506.12
99.96281,375.12,508.10
99.98223,378.80,509.70
100.00283,377.17,511.75
100.02260,375.59,508.77
100.04309,375.66,509.12
100.06252,377.47,507.82
100.08214,373.40,505.61
100.10128,372.65,504.68
100.12114,374.78,507.18
100.14235,373.66,508.07
100.16221,372.87,508.19
100.18268,373.82,506.44
100.20120,375.97,507.47
100.22216,376.16,506.98
100.24204,375.14,506.23
100.26332,375.73,509.20
100.28184,377.19,507.40
100.30117,380.64,509.49
100.32125,379.25,508.62
100.34184,376.50,505.56
100.36121,374.32,506.90
100.38166,377.24,505.95
100.40373,375.84,504.43
100.42175,375.69,504.10
100.44220,376.55,505.23
100.46203,378.02,508.90
100.48263,375.36,504.34
100.50267,373.71,505.73
100.52174,371.99,504.85
100.54102,375.47,506.14
100.56175,376.93,505.89
100.58204,378.73,505.31
100.60303,376.09,504.28
100.62421,376.48,504.57
100.64530,373.77,504.33
100.66566,370.53,504.73
100.68673,378.54,507.62
100.70862,391.25,514.86
100.72783,412.77,523.36
100.74655,433.28,530.44
100.76834,452.54,531.41
100.78875,467.90,531.56
100.80894,475.85,525.50
100.82983,478.75,519.51
100.85046,481.27,515.28
100.87164,479.46,504.58
100.89128,475.79,503.24
100.91215,469.17,501.90
100.93373,462.82,498.41
100.95128,455.27,494.80
100.97239,452.99,495.32
100.99216,443.47,501.34
101.01243,439.11,497.13
101.03141,429.72,496.72
101.05292,423.23,496.81
101.07344,422.64,499.14
101.09352,417.03,501.44
101.11251,411.78,500.83
101.13462,408.38,504.58
101.15466,404.25,503.87
101.17480,403.71,501.53
101.19578,398.59,503.84
101.21505,396.65,505.64
101.23523,394.09,503.62
101.25565,394.75,510.69
101.27635,393.14,508.57
101.29779,393.79,508.82
101.31807,387.86,506.98
101.33710,389.38,508.97
101.35790,388.87,509.19
101.37792,390.87,509.50
101.39880,390.52,507.56
101.41811,388.21,505.31
101.43907,386.12,507.52
101.45885,374.07,512.29
101.47998,361.32,522.10
101.49872,348.86,533.51
101.51803,330.41,549.85
101.53959,310.25,556.16
101.55933,288.22,544.41
101.57999,268.99,526.38
101.59956,248.36,498.70
101.61870,236.11,483.64
101.63854,233.16,462.50
101.65935,236.51,449.86
101.68026,245.09,445.91
101.70029,251.69,441.65
101.72000,266.11,445.47
101.74094,275.88,445.77
101.76048,288.49,449.11
101.78133,297.98,454.10
101.79974,308.55,458.04
101.82099,313.69,462.77
101.84191,323.29,468.74
101.86045,326.27,473.85
101.88166,335.41,478.60
101.90195,339.92,483.64
101.92029,341.82,482.16
101.94030,346.98,491.23
101.96021,347.58,488.85
101.98137,352.79,492.18
102.00013,355.82,494.29
102.02057,357.79,495.80
102.04098,361.47,496.96
102.06176,365.27,495.28
102.08194,365.40,495.20
102.10036,366.47,494.96
102.12258,367.55,494.93
102.14120,370.82,497.80
102.16103,373.84,499.16
102.18198,372.03,501.82
102.20139,373.39,505.07
102.22224,371.61,507.43
102.24145,373.65,511.15
102.26211,373.42,510.01
102.28288,367.71,510.91
102.30149,367.86,505.11
102.32259,369.46,502.05
102.34240,372.65,502.32
102.36187,368.53,505.38
102.38224,370.69,503.56
102.40176,367.98,504.02
102.42295,372.53,505.12
102.44125,369.03,510.13
102.46135,371.16,509.28
102.48185,370.09,507.98
102.50155,368.88,509.30
102.52216,368.63,507.72
102.54286,367.96,510.17
102.56135,368.48,507.05
102.58256,367.88,507.13
102.60243,370.41,505.46
102.62233,369.44,503.91
102.64155,371.42,506.08
102.66213,369.52,503.93
102.68125,368.68,510.20
102.70238,366.22,508.22
102.72252,367.71,503.23
102.74399,369.65,506.70
102.76378,366.71,507.45
102.78278,365.62,502.52
102.80277,362.68,503.05
102.82321,362.74,503.72
102.84304,364.78,497.16
102.86597,364.20,499.20
102.88564,367.22,498.22
102.90511,365.34,503.78
102.92550,364.99,501.81
102.94582,365.76,496.37
102.96636,366.11,500.21
102.98742,367.76,498.23
103.00632,364.83,500.63
103.02609,367.42,499.30
103.04747,366.56,498.46
103.06897,364.78,502.73
103.08834,368.45,498.84
103.10781,368.46,501.91
103.12883,371.47,500.85
103.14777,368.95,501.42
103.16887,372.70,501.10
103.18826,376.81,500.94
103.20984,377.70,501.57
103.22994,377.80,503.38
103.24975,374.19,509.29
103.26958,376.46,504.05
103.28820,375.85,502.63
103.30865,377.85,499.89
103.32824,373.97,498.19
103.34909,378.39,499.55
103.36961,378.28,500.04
103.39092,380.00,496.98
103.40957,381.54,497.81
103.42948,379.65,495.86
103.45091,378.35,499.09
103.46924,377.77,497.41
103.49080,379.27,498.85
103.50940,378.49,496.82
103.53099,377.55,498.04
103.54989,379.48,497.08
103.56910,376.13,496.46
103.58963,376.88,498.13
103.61084,378.96,500.62
103.63043,381.97,495.61
103.65094,379.09,495.03
103.66990,382.62,497.19
103.69188,382.37,498.00
103.71000,383.65,499.44
103.73023,383.62,498.79
103.75121,383.42,499.25
103.77263,381.89,500.77
103.79381,381.98,498.97
103.81315,384.03,500.42
103.83490,383.06,500.77
103.85446,383.73,504.80
103.87543,385.86,501.81
103.89602,384.50,499.55
103.91577,386.31,503.05
103.93626,385.98,502.82
103.95610,385.05,503.86
103.97783,386.33,502.76
103.99858,382.30,501.15
104.01819,379.00,503.63
104.03860,378.20,504.72
104.05831,377.88,505.72
104.07946,376.09,506.43
104.09952,375.27,507.42
104.11983,371.80,507.33
104.13819,372.03,504.70
104.15909,373.21,504.78
104.17919,371.15,509.12
104.19845,370.06,503.54
104.21803,368.54,507.35
104.23993,370.65,506.32
104.25816,367.91,505.25
104.27997,370.37,503.06
104.29925,367.82,502.17
104.31887,372.15,501.98
104.33956,378.54,502.71
104.35817,394.40,508.25
104.37810,418.57,514.11
104.39971,435.60,519.07
104.42010,457.22,521.67
104.43901,470.63,527.23
104.45898,485.65,532.24
104.47886,493.60,534.47
104.49924,495.42,532.26
104.52036,495.24,527.49
104.53992,496.61,525.44
104.56070,492.30,520.25
104.58048,483.32,517.23
104.59944,476.72,514.96
104.62099,468.71,509.34
104.64055,458.06,507.85
104.66117,448.20,504.42
104.68035,441.89,503.38
104.70159,431.41,502.93
104.72036,422.54,500.30
104.74042,412.87,499.67
104.76187,404.53,499.40
104.78184,397.90,500.32
104.80172,393.39,498.48
104.82129,390.45,499.16
104.84043,386.36,497.39
104.86045,382.75,498.85
104.88196,380.53,499.63
104.90029,374.76,500.57
104.92109,375.01,503.34
104.94002,374.54,501.56
104.96046,373.01,499.37
104.98095,367.93,499.77
105.00019,368.96,499.59
105.02117,368.56,501.48
105.04071,365.21,502.07
105.06025,366.07,501.35
105.08197,369.18,501.73
105.10001,363.80,499.30
105.12139,362.64,496.03
105.14155,360.92,491.05
105.16026,357.68,495.17
105.18050,360.14,494.87
105.20040,357.34,495.78
105.22028,358.48,494.00
105.24128,358.25,496.68
105.26137,362.75,496.23
105.28130,354.24,494.24
105.30065,333.87,491.79
105.32050,307.32,486.10
105.34158,282.44,484.82
105.36159,257.92,475.39
105.38178,239.54,470.48
105.40033,228.74,463.47
105.42117,220.69,459.82
105.44191,221.75,458.79
105.46009,227.44,461.00
105.48033,236.37,461.15
105.50092,244.96,465.30
105.52135,256.43,468.23
105.54101,269.25,475.23
105.56181,277.03,478.88
105.58078,291.49,479.96
105.60146,296.84,487.23
105.62039,307.25,489.10
105.64184,311.54,491.52
105.66174,320.49,492.65
105.68018,325.34,496.63
105.70177,330.10,496.60
105.72179,336.34,498.45
105.74137,338.95,498.59
105.76024,344.87,497.32
105.78170,347.27,503.03
105.80299,349.83,499.02
105.82315,351.46,500.06
105.84385,354.56,498.37
105.86314,354.84,501.10
105.88310,355.29,502.15
105.90330,356.76,501.84
105.92391,357.07,500.03
105.94451,363.03,501.44
105.96370,366.60,500.23
105.98302,367.49,499.73
106.00415,372.35,502.54
106.02340,373.64,500.55
106.04314,377.12,500.34
106.06445,378.98,498.35
106.08570,374.73,496.30
106.10405,378.79,498.63
106.12497,378.17,498.63
106.14441,378.13,497.72
106.16553,379.71,500.96
106.18537,377.92,498.29
106.20594,379.55,496.98
106.22582,377.72,499.00
106.24448,377.75,496.41
106.26485,379.51,499.85
106.28517,380.02,501.10
106.30589,378.08,498.42
106.32577,381.13,498.64
106.34497,378.04,501.32
106.36507,380.41,502.52
106.38446,380.74,501.07
106.40421,380.26,502.10
106.42549,379.43,501.82
106.44528,378.05,501.33
106.46568,376.28,501.58
106.48433,379.03,500.14
106.50472,377.80,502.86
106.52534,381.10,503.54
106.54406,377.43,501.27
106.56460,377.69,502.01
106.58505,378.87,504.62
106.60462,377.83,502.83
106.62541,375.66,504.63
106.64587,377.57,503.96
106.66443,375.24,502.84
106.68430,377.92,502.28
106.70418,375.96,502.12
106.72519,375.60,502.15
106.74485,375.42,501.94
106.76451,375.88,506.78
106.78508,376.70,505.37
106.80587,377.96,506.55
106.82532,378.73,508.73
106.84556,379.02,506.61
106.86582,377.75,506.66
106.88537,379.46,506.02
106.90577,378.86,506.43
106.92471,378.50,504.11
106.94521,380.17,503.83
106.96574,381.64,501.69
106.98580,379.65,503.56
107.00465,378.72,499.80
107.02419,379.75,502.03
107.04433,380.86,502.24
107.06494,380.06,500.33
107.08566,381.98,500.46
107.10550,382.38,501.31
107.12475,378.86,502.05
107.14466,378.36,501.18
107.16451,379.08,499.12
107.18577,381.43,502.61
107.20441,378.57,501.42
107.22572,380.97,500.68
107.24407,381.38,500.54
107.26492,379.54,502.22
107.28451,379.51,504.72
107.30543,379.92,500.29
107.32517,381.96,501.37
107.34502,380.30,498.96
107.36447,380.26,499.87
107.38475,382.96,499.67
107.40462,380.44,501.78
107.42595,381.64,499.97
107.44563,381.11,500.26
107.46563,377.25,497.62
107.48527,377.08,497.39
107.50437,378.75,499.29
107.52504,380.84,498.71
107.54544,381.26,500.70
107.56531,380.20,498.88
107.58569,379.86,501.40
107.60517,380.79,500.70
107.62565,382.98,501.02
107.64496,383.35,500.54
107.66486,383.73,499.65
107.68420,383.56,501.71
107.70519,380.84,501.92
107.72422,382.96,502.22
107.74502,381.85,500.39
107.76568,382.37,503.75
107.78571,381.72,501.73
107.80581,383.13,504.12
107.82524,381.04,502.18
107.84473,382.74,501.37
107.86418,381.34,499.78
107.88480,381.91,500.24
107.90515,383.06,501.72
107.92483,382.20,503.86
107.94580,382.95,502.90
107.96464,382.60,501.45
107.98420,382.82,502.34
108.00559,382.28,502.84
108.02512,384.14,501.23
108.04671,383.44,502.13
108.06696,383.15,502.23
108.08586,384.14,502.88
108.10592,383.57,503.00
108.12553,382.51,500.84
108.14539,380.43,504.31
108.16546,383.38,502.09
108.18649,381.89,506.32
108.20618,382.44,502.87
108.22630,384.52,503.03
108.24553,381.96,505.19
108.26546,383.21,504.64
108.28661,380.37,502.92
108.30597,383.78,505.02
108.32673,383.42,506.38
108.34571,381.92,502.61
108.36565,382.42,503.61
108.38691,385.21,503.53
108.40505,383.79,504.00
108.42670,382.25,501.17
108.44532,385.60,501.42
108.46690,384.24,501.63
108.48589,384.51,501.87
108.50615,384.00,502.16
108.52561,382.20,502.37
108.54503,383.58,500.84
108.56685,387.48,509.96
108.58656,405.46,520.71
108.60648,426.96,538.04
108.62668,449.79,551.12
108.64694,474.21,561.08
108.66621,493.76,566.63
108.68666,508.39,569.38
108.70528,516.26,563.82
108.72541,521.50,557.28
108.74584,521.36,547.17
108.76654,519.30,537.80
108.78571,513.75,528.96
108.80654,505.72,522.92
108.82626,498.17,514.53
108.84595,485.66,507.02
108.86679,474.39,503.63
108.88589,466.49,501.95
108.90691,454.26,497.89
108.92600,445.94,499.79
108.94511,439.34,498.29
108.96592,430.40,497.03
108.98610,422.51,499.03
109.00632,418.44,501.94
109.02673,411.38,502.57
109.04533,404.65,502.67
109.06618,402.33,500.99
109.08602,401.30,500.99
109.10540,399.13,505.23
109.12598,396.64,502.57
109.14589,394.11,504.61
109.16675,393.79,503.84
109.18678,392.36,505.23
109.20531,391.39,503.34
109.22601,387.52,504.50
109.24501,389.90,506.87
109.26533,388.53,506.63
109.28640,388.19,505.26
109.30511,389.16,505.04
109.32616,386.75,507.91
109.34520,385.71,504.38
109.36523,385.49,505.72
109.38646,382.12,506.56
109.40551,383.41,505.99
109.42632,379.99,505.79
109.44516,381.97,506.73
109.46677,374.84,504.78
109.48684,367.18,506.10
109.50542,348.84,504.75
109.52649,325.39,502.31
109.54562,303.49,497.61
109.56623,282.83,495.56
109.58579,265.15,491.75
109.60557,250.77,483.43
109.62531,244.85,479.82
109.64583,247.69,475.88
109.66584,253.53,475.19
109.68563,258.42,475.19
109.70665,271.93,476.31
109.72676,282.19,477.38
109.74685,292.23,479.16
109.76575,302.49,480.61
109.78549,308.72,481.37
109.80613,317.03,482.28
109.82522,326.64,486.17
109.84501,332.39,486.59
109.86544,336.37,488.97
109.88694,344.05,488.68
109.90559,348.73,489.61
109.92599,351.60,491.72
109.94596,356.47,490.39
109.96576,360.36,493.90
109.98588,360.82,494.62
110.00607,364.10,496.80
110.02556,366.92,495.20
110.04521,366.96,497.99
110.06690,367.91,498.53
110.08540,372.41,496.29
110.10576,372.97,497.64
110.12624,371.02,498.05
110.14638,375.17,498.17
110.16609,375.02,500.30
110.18522,375.85,501.52
110.20554,375.81,498.83
110.22536,377.75,500.06
110.24653,378.89,500.46
110.26635,377.24,502.83
110.28624,376.82,502.25
110.30519,376.59,504.02
110.32592,376.95,503.28
110.34653,380.07,502.56
110.36685,377.70,502.13
110.38648,379.54,501.71
110.40655,377.96,503.69
110.42563,379.82,503.85
110.44642,380.92,503.80
110.46633,380.73,500.91
110.48673,379.63,500.50
110.50642,381.89,502.83
110.52572,380.50,503.73
110.54609,381.45,503.24
110.56503,382.14,501.73
110.58623,380.22,503.05
110.60522,382.18,500.64
110.62526,381.06,504.03
110.64546,378.96,502.59
110.66664,380.78,503.16
110.68594,382.25,504.12
110.70520,380.58,502.61
110.72560,380.01,502.51
110.74568,381.02,502.70
110.76524,382.10,502.21
110.78512,381.11,502.98
110.80616,381.24,505.27
110.82573,382.47,502.53
110.84664,381.05,505.21
110.86630,379.19,504.25
110.88593,380.73,502.14
110.90586,377.61,504.60
110.92627,380.16,503.82
110.94541,377.77,503.08
110.96627,375.91,503.63
110.98629,379.15,503.83
111.00680,377.34,500.94
111.02624,378.18,499.88
111.04688,377.74,500.74
111.06700,376.77,501.55
111.08699,377.45,501.73
111.10545,376.24,497.57
111.12550,378.52,498.28
111.14698,375.66,499.33
111.16542,377.50,499.48
111.18631,376.85,501.67
111.20604,378.92,502.44
111.22696,377.70,501.96
111.24636,375.86,498.47
111.26757,377.58,499.17
111.28607,377.41,498.72
111.30772,376.00,502.02
111.32690,375.52,499.36
111.34759,374.58,500.01
111.36627,372.35,501.57
111.38691,373.98,500.82
111.40684,374.16,500.38
111.42760,374.24,501.41
111.44730,375.85,502.47
111.46620,374.97,503.23
111.48707,373.56,498.78
111.50676,374.68,501.11
111.52677,373.94,499.97
111.54758,373.88,500.17
111.56730,375.32,502.21
111.58660,373.34,499.31
111.60664,373.20,499.55
111.62635,375.09,501.36
111.64660,373.07,500.69
111.66742,375.28,500.02
111.68662,374.16,499.70
111.70656,373.75,499.46
111.72748,371.35,500.67
111.74770,375.66,500.33
111.76731,375.35,501.12
111.78740,374.57,501.18
111.80654,374.20,498.92
111.82612,371.84,501.65
111.84687,374.92,498.59
111.86635,370.34,500.20
111.88669,371.07,498.66
111.90749,371.42,497.73
111.92657,374.00,499.89
111.94632,373.25,499.72
111.96738,372.10,502.74
111.98600,373.41,499.97
112.00663,373.43,500.23
112.02671,372.88,500.31
112.04681,371.58,498.75
112.06606,369.72,501.58
112.08883,368.81,499.61
112.10829,368.75,498.86
112.12862,365.60,498.80
112.14836,366.17,500.00
112.16825,366.52,498.87
112.18885,368.76,501.71
112.20744,367.27,499.33
112.22716,366.47,497.91
112.24733,367.23,497.17
112.26828,367.21,499.33
112.28845,369.97,497.75
112.30875,377.21,503.27
112.32871,393.35,514.38
112.34881,412.42,526.58
112.36723,435.64,537.82
112.38781,456.19,545.77
112.40876,475.58,549.37
112.42702,487.18,548.31
112.44867,495.23,545.44
112.46805,495.86,540.63
112.48872,496.03,530.95
112.50849,492.40,523.76
112.52799,482.49,518.23
112.54852,478.81,510.72
112.56884,469.63,502.04
112.58862,458.34,498.87
112.60712,449.27,491.63
112.62829,442.79,491.38
112.64847,431.04,488.20
112.66820,426.32,486.62
112.68839,417.98,487.52
112.70852,409.08,488.41
112.72712,403.28,490.85
112.74853,398.63,490.53
112.76899,397.47,493.71
112.78863,391.48,491.31
112.80719,387.09,493.56
112.82811,384.28,497.27
112.84733,381.90,499.73
112.86784,376.63,497.41
112.88891,377.01,498.42
112.90863,372.06,498.89
112.92886,371.55,501.85
112.94880,368.57,499.54
112.96995,366.98,500.79
112.98847,366.80,500.40
113.00954,366.28,497.47
113.02902,365.86,496.32
113.04984,363.70,499.23
113.06905,364.70,498.89
113.08832,366.05,496.31
113.10845,365.98,499.45
113.12972,364.90,501.00
113.14818,362.81,502.27
113.16894,347.02,499.78
113.19038,332.81,499.59
113.21099,315.67,495.67
113.23030,295.62,492.57
113.25017,278.03,489.13
113.27075,258.88,482.24
113.29049,245.74,476.50
113.30990,234.05,468.06
113.32910,233.95,465.81
113.34906,237.39,466.38
113.36998,242.33,465.50
113.39005,248.94,468.10
113.40962,260.77,467.59
113.43062,268.29,468.40
113.44945,278.45,472.60
113.46929,290.12,475.78
113.49012,299.14,480.04
113.50916,307.95,480.54
113.52946,313.37,485.31
113.55043,321.48,486.25
113.57038,326.68,487.80
113.58921,333.78,488.90
113.61001,337.18,491.96
113.62932,342.32,494.29
113.64988,343.57,495.54
113.66924,345.83,497.56
113.68909,349.88,495.99
113.71036,350.20,496.12
113.73082,352.48,495.72
113.74927,355.77,494.97
113.76914,356.92,498.25
113.79069,357.70,497.02
113.81018,357.90,496.38
113.82913,358.64,497.29
113.85104,362.32,496.31
113.87118,361.17,497.14
113.89108,359.76,496.88
113.91109,362.75,497.11
113.93165,361.69,498.13
113.95099,362.11,495.74
113.97049,365.36,496.74
113.99075,363.16,499.39
114.01178,364.30,498.95
114.03164,365.89,497.26
114.05261,365.51,498.97
114.07284,367.25,499.38
114.09223,368.53,499.86
114.11299,368.85,501.11
114.13173,368.75,500.51
114.15168,369.75,501.44
114.17155,371.95,499.36
114.19246,371.05,499.13
114.21238,372.22,500.26
114.23288,370.01,500.37
114.25295,370.15,500.70
114.27293,371.64,498.01
114.29104,372.91,499.46
114.31140,372.31,500.26
114.33119,371.02,498.17
114.35206,370.60,498.63
114.37169,371.06,500.97
114.39178,373.59,497.89
114.41159,371.79,499.75
114.43262,373.80,499.34
114.45129,372.05,499.39
114.47296,373.86,498.72
114.49101,370.54,500.17
114.51146,371.34,498.11
114.53277,369.83,498.23
114.55296,372.85,497.97
114.57250,374.27,498.93
114.59144,371.93,500.83
114.61296,373.19,500.74
114.63127,374.51,498.26
114.65159,374.44,499.25
114.67131,377.50,499.99
114.69223,377.82,500.09
114.71263,375.59,498.12
114.73127,375.79,497.29
114.75185,373.01,500.76
114.77179,374.90,498.08
114.79245,374.26,499.77
114.81259,375.59,498.52
114.83125,375.30,501.62
114.85272,373.41,501.88
114.87106,375.39,500.73
114.89222,373.14,499.94
114.91212,373.63,503.56
114.93299,375.76,501.23
114.95148,376.86,499.07
114.97286,375.25,498.00
114.99228,378.52,496.10
115.01254,378.33,497.15
115.03113,375.35,494.03
115.05287,374.43,495.43
115.07114,375.92,496.27
115.09130,374.43,496.81
115.11210,373.23,495.63
115.13293,372.99,492.64
115.15247,375.60,493.07
115.17182,376.25,492.10
115.19187,374.78,491.49
115.21274,374.60,492.73
115.23229,376.92,494.36
115.25178,376.20,496.55
115.27265,375.25,498.00
115.29227,375.24,495.39
115.31280,373.94,496.08
115.33200,376.16,497.48
115.35208,378.58,498.54
115.37282,376.05,496.36
115.39210,375.27,500.57
115.41121,375.26,498.32
115.43260,376.55,497.70
115.45142,379.84,499.71
115.47212,378.32,496.75
115.49157,378.02,499.45
115.51203,378.76,496.76
115.53176,377.41,496.96
115.55180,379.42,496.30
115.57152,379.37,497.07
115.59255,380.27,497.44
115.61220,378.26,497.60
115.63233,378.77,496.98
115.65258,379.42,496.06
115.67265,379.91,496.96
115.69223,377.65,495.49
115.71166,377.67,497.70
115.73259,379.73,497.81
115.75219,381.59,498.80
115.77113,381.48,496.75
115.79105,382.57,498.09
115.81273,380.78,498.34
115.83251,380.21,495.65
115.85282,381.48,497.54
115.87288,381.28,496.63
115.89206,379.39,499.92
115.91205,380.77,497.95
115.93260,382.36,497.58
115.95206,381.75,497.80
115.97189,379.45,500.53
115.99258,379.57,497.94
116.01140,382.68,500.48
116.03187,382.85,499.79
116.05108,384.35,500.69
116.07156,382.32,497.95
116.09254,383.02,496.41
116.11117,382.15,498.19
116.13270,380.07,497.69
116.15292,383.04,496.16
116.17235,381.57,495.81
116.19303,382.95,496.15
116.21263,381.05,496.54
116.23263,382.97,500.88
116.25246,381.25,497.42
116.27277,383.62,495.84
116.29260,380.25,497.32
116.31353,381.46,496.37
116.33395,381.47,495.07
116.35293,383.83,494.09
116.37322,385.76,498.60
116.39325,397.55,502.85
116.41306,413.85,511.33
116.43283,432.22,522.69
116.45311,454.37,533.60
116.47267,469.61,539.62
116.49257,486.63,539.45
116.51367,497.20,539.34
116.53274,501.92,536.80
116.55268,506.71,531.40
116.57333,502.86,524.93
116.59286,497.87,515.09
116.61333,494.38,508.31
116.63243,486.39,503.14
116.65241,474.98,500.45
116.67201,466.97,497.52
116.69272,457.48,494.90
116.71312,451.86,493.04
116.73304,440.54,492.48
116.75283,433.19,493.13
116.77241,429.48,496.04
116.79314,422.34,496.70
116.81339,417.48,494.85
116.83232,411.15,495.97
116.85235,408.05,496.82
116.87324,405.93,498.26
116.89228,400.05,499.49
116.91331,397.44,498.86
116.93359,394.45,499.03
116.95262,392.27,500.30
116.97382,388.95,501.99
116.99391,387.76,504.15
117.01306,387.08,503.44
117.03259,386.82,508.09
117.05259,386.98,506.08
117.07241,387.15,506.13
117.09334,383.81,509.23
117.11321,385.22,508.82
117.13228,385.45,508.71
117.15371,382.06,505.54
117.17235,385.13,506.31
117.19359,386.45,508.13
117.21210,386.07,507.83
117.23202,385.36,504.64
117.25367,386.59,504.68
117.27290,386.83,506.86
117.29343,384.33,504.81
117.31267,381.68,504.47
117.33211,372.03,505.55
117.35211,358.80,506.44
117.37298,340.32,504.75
117.39317,319.04,498.06
117.41309,295.77,493.83
117.43366,278.43,487.53
117.45332,262.04,477.71
117.47271,252.16,471.75
117.49349,249.79,467.74
117.51366,253.51,468.72
117.53272,258.25,466.66
117.55263,267.29,469.12
117.57363,278.52,470.36
117.59214,284.79,474.61
117.61348,296.48,478.11
117.63259,303.42,483.59
117.65337,314.15,484.50
117.67283,320.87,488.86
117.69272,327.21,491.39
117.71370,334.18,494.11
117.73314,340.47,498.12
117.75351,344.67,497.25
117.77345,350.78,500.25
117.79229,353.24,502.95
117.81254,358.77,503.74
117.83359,361.41,502.26
117.85363,361.77,503.21
117.87395,364.92,503.25
117.89386,366.41,504.39
117.91277,368.97,502.95
117.93246,369.43,502.43
117.95291,372.05,503.67
117.97214,372.01,502.91
117.99301,374.17,505.38
118.01267,375.26,502.84
118.03227,374.18,503.94
118.05431,373.52,505.23
118.07445,375.73,503.52
118.09494,373.50,503.46
118.11409,374.35,501.41
118.13457,373.67,505.34
118.15421,376.17,502.37
118.17378,373.13,503.92
118.19307,372.79,503.25
118.21428,375.64,502.70
118.23310,373.17,503.27
118.25361,373.87,500.81
118.27405,373.38,504.67
118.29499,375.58,500.49
118.31306,377.45,502.61
118.33424,375.86,502.40
118.35459,374.87,503.12
118.37464,377.38,504.79
118.39351,376.39,502.04
118.41316,376.33,502.46
118.43373,376.48,503.32
118.45322,373.86,502.11
118.47434,373.04,502.38
118.49400,372.84,503.30
118.51418,373.67,504.28
118.53325,372.03,505.47
118.55410,375.00,503.71
118.57301,372.51,504.34
118.59302,374.77,504.00
118.61311,376.34,503.29
118.63366,374.29,504.25
118.65338,374.47,501.19
118.67380,374.87,501.15
118.69401,377.36,501.36
118.71393,375.57,499.90
118.73494,374.19,500.19
118.75367,376.62,500.29
118.77361,372.83,500.94
118.79389,374.45,501.72
118.81406,371.87,503.56
118.83341,373.80,500.97
118.85326,375.24,502.94
118.87341,373.65,503.42
118.89456,372.04,504.74
118.91392,374.52,500.90
118.93436,374.11,503.97
118.95464,376.21,501.41
118.97403,375.46,502.41
118.99384,375.10,502.16
119.01485,374.85,501.54
119.03416,374.75,502.88
119.05434,372.51,501.62
119.07560,372.97,501.40
119.09592,375.83,501.67
119.11551,373.35,502.90
119.13574,374.42,504.96
119.15417,371.20,504.40
119.17426,370.68,504.72
119.19469,373.96,504.95
119.21518,372.81,504.37
119.23465,370.97,503.01
119.25512,370.28,504.75
119.27522,370.54,503.68
119.29597,369.98,502.30
119.31553,369.00,503.97
119.33553,366.73,500.94
119.35594,366.67,503.47
119.37573,366.54,502.51
119.39531,367.49,498.67
119.41560,368.39,501.52
119.43463,366.87,498.97
119.45482,367.70,499.45
119.47416,365.93,500.88
119.49425,368.05,500.95
119.51464,369.35,499.28
119.53559,369.79,498.89
119.55409,369.20,495.75
119.57432,369.01,498.05
119.59510,367.90,496.34
119.61504,368.65,499.01
119.63516,367.99,499.79
119.65532,367.08,498.99
119.67552,367.59,497.65
119.69432,367.17,498.82
119.71443,368.03,499.20
119.73523,370.09,498.92
119.75575,366.74,497.24
119.77446,369.20,496.75
119.79527,365.39,496.54
119.81462,366.66,498.57
119.83479,369.12,495.22
119.85490,367.60,497.12
119.87515,365.35,497.29
119.89495,368.73,495.85
119.91447,366.42,498.95
119.93581,367.02,496.70
119.95423,368.28,499.57
119.97418,371.98,498.06
119.99537,385.12,504.67
120.01466,401.36,511.49
120.03412,425.40,525.99
120.05576,446.03,535.68
120.07413,469.07,542.90
120.09512,488.59,546.84
120.11407,500.58,547.19
120.13533,505.27,545.15
120.15532,504.35,541.38
120.17405,499.71,536.10
120.19530,493.48,525.74
120.21547,488.13,518.57
120.23509,475.42,507.97
120.25541,467.97,503.51
120.27580,453.96,497.13
120.29471,447.82,493.92
120.31569,439.00,491.22
120.33526,429.07,488.60
120.35558,421.38,491.23
120.37534,412.51,490.88
120.39532,406.90,492.88
120.41462,398.96,493.65
120.43515,393.61,493.09
120.45584,389.39,493.39
120.47583,388.06,495.51
120.49501,381.86,494.51
120.51402,378.12,495.76
120.53424,376.00,498.06
120.55531,373.44,499.50
120.57422,372.92,501.79
120.59474,373.38,500.96
120.61437,369.95,500.83
120.63551,371.99,500.61
120.65480,370.11,503.28
120.67485,365.68,503.71
120.69497,367.57,502.32
120.71448,365.68,505.08
120.73576,363.99,502.99
120.75514,366.18,503.52
120.77446,364.16,503.83
120.79528,367.33,503.74
120.81588,365.07,502.77
120.83480,367.68,500.48
120.85431,365.06,502.72
120.87428,359.87,505.99
120.89537,349.22,506.62
120.91564,333.36,503.53
120.93455,313.06,505.90
120.95569,293.56,501.59
120.97479,274.29,495.32
120.99562,259.04,486.13
121.01566,241.84,477.70
121.03510,234.93,471.56
121.05577,232.73,467.44
121.07565,239.83,469.05
121.09506,244.59,467.16
121.11493,251.46,468.60
121.13443,263.81,468.32
121.15555,270.23,473.10
121.17563,280.06,474.12
121.19441,289.02,476.21
121.21545,298.44,479.01
121.23513,309.31,481.37
121.25598,317.79,486.20
121.27468,320.95,485.57
121.29582,326.12,487.46
121.31575,332.17,488.73
121.33455,339.03,491.43
121.35423,338.91,491.07
121.37485,342.24,492.99
121.39558,347.88,494.48
121.41580,350.52,492.83
121.43421,351.93,495.76
121.45596,354.00,495.64
121.47596,354.82,494.39
121.49445,354.63,492.42
121.51417,356.85,495.68
121.53440,357.96,493.72
121.55489,358.88,494.59
121.57563,359.05,497.09
121.59428,360.87,494.72
121.61427,359.53,497.55
121.63536,361.95,494.21
121.65472,361.21,497.90
121.67479,359.67,499.55
121.69566,361.08,497.97
121.71455,359.64,495.61
121.73448,360.56,493.92
121.75589,363.13,495.47
121.77589,363.07,495.44
121.79548,359.52,493.67
121.81576,360.32,493.83
121.83497,361.70,494.67
121.85537,362.16,491.96
121.87625,363.59,492.82
121.89648,363.94,495.17
121.91507,361.81,491.78
121.93610,364.92,492.64
121.95633,362.99,494.06
121.97657,366.28,494.02
121.99554,363.06,494.52
122.01598,365.76,495.49
122.03627,365.29,495.03
122.05670,368.30,494.69
122.07654,366.77,493.85
122.09730,366.23,495.56
122.11740,366.07,495.69
122.13613,367.08,497.01
122.15748,365.64,493.81
122.17713,367.61,493.86
122.19617,367.86,497.38
122.21622,368.18,495.68
122.23696,366.05,495.04
122.25726,363.24,496.46
122.27609,366.45,497.48
122.29683,365.05,496.36
122.31733,365.54,497.13
122.33846,368.69,500.59
122.35663,367.27,499.08
122.37645,366.97,498.43
122.39798,368.32,498.06
122.41695,367.00,496.26
122.43701,368.10,496.60
122.45609,367.63,499.37
122.47633,368.20,497.87
122.49783,369.35,498.16
122.51717,368.95,499.00
122.53674,370.18,497.59
122.55702,370.91,499.98
122.57797,366.92,500.76
122.59768,371.54,498.74
122.61690,370.21,499.99
122.63784,370.81,499.96
122.65657,371.89,497.73
122.67667,371.18,497.81
122.69786,369.77,499.90
122.71736,370.87,498.83
122.73655,370.12,501.28
122.75760,369.71,498.65
122.77781,368.41,499.68
122.79627,370.12,499.85
122.81738,372.41,500.23
122.83685,370.21,501.39
122.85749,369.05,500.87
122.87681,368.95,498.75
122.89789,371.54,500.25
122.91792,371.39,500.20
122.93772,371.68,498.18
122.95750,371.48,497.61
122.97666,372.36,499.90
122.99699,370.26,502.42
123.01657,370.68,501.18
123.03725,371.70,499.98
123.05745,373.61,500.36
123.07684,374.51,498.41
123.09694,373.04,499.33
123.11619,372.25,501.48
123.13669,374.01,498.53
123.15778,376.37,498.10
123.17811,373.32,497.23
123.19817,377.31,498.73
123.21800,377.09,499.20
123.23835,374.68,499.09
123.25867,377.20,497.66
123.27826,376.19,496.15
123.29747,377.16,498.05
123.31814,377.32,497.03
123.33775,378.69,499.81
123.35728,375.44,497.74
123.37761,378.52,497.03
123.39790,376.84,496.27
123.41792,378.49,498.62
123.43734,376.90,499.99
123.45888,386.52,502.96
123.47843,401.75,509.31
123.49866,428.28,520.34
123.51820,452.25,530.77
123.53827,475.46,539.31
123.55849,492.58,540.93
123.57779,503.44,541.33
123.59845,506.95,536.86
123.61821,507.71,529.54
123.63756,504.95,523.06
123.65864,500.68,516.26
123.67835,492.31,509.18
123.69895,487.78,502.00
123.71735,477.71,500.23
123.73890,468.25,494.99
123.75801,458.80,493.23
123.77713,448.11,489.16
123.79772,439.78,487.89
123.81816,433.99,488.99
123.83875,428.19,488.13
123.85792,418.90,489.22
123.87702,417.01,491.73
123.89715,409.84,493.08
123.91779,408.62,495.25
123.93838,404.82,494.31
123.95813,401.46,493.89
123.97852,396.02,497.82
123.99834,392.27,495.86
124.01850,392.83,497.85
124.03806,390.03,499.30
124.05816,388.06,498.44
124.07757,386.31,498.17
124.09730,383.96,500.65
124.11831,383.21,501.92
124.13767,382.99,502.35
124.15892,384.42,498.91
124.17737,381.62,500.35
124.19724,383.22,501.80
124.21758,380.73,502.04
124.23704,383.38,497.92
124.25756,382.65,499.00
124.27840,381.31,500.89
124.29712,375.72,509.43
124.31841,361.88,516.60
124.33895,348.90,528.27
124.35706,335.42,532.96
124.37729,313.17,528.48
124.39750,295.19,517.62
124.41819,275.07,500.20
124.43816,259.96,485.06
124.45892,250.33,475.86
124.47734,253.15,466.97
124.49870,256.91,462.24
124.51788,263.21,458.09
124.53849,270.37,455.78
124.55798,283.18,457.23
124.57856,289.00,460.48
124.59759,298.28,463.59
124.61808,307.30,464.56
124.63877,317.84,467.69
124.65903,325.45,471.70
124.67920,331.64,477.73
124.69928,340.20,479.15
124.71947,347.45,484.37
124.73964,350.53,484.22
124.75817,354.59,487.19
124.77871,358.38,491.53
124.79807,362.13,494.15
124.81911,366.35,493.39
124.83878,366.10,494.84
124.85817,369.55,496.27
124.87899,370.92,495.57
124.89882,371.80,496.47
124.91993,374.25,497.34
124.93850,376.99,497.60
124.95939,377.93,500.91
124.97829,378.53,499.39
124.99896,380.09,500.41
125.01877,378.11,499.76
125.03815,377.95,499.60
125.05922,381.53,499.32
125.07833,379.79,499.95
125.09954,381.12,501.84
125.11811,382.87,503.05
125.13809,382.65,500.41
125.15931,382.51,502.61
125.17801,382.31,502.49
125.19977,383.20,500.63
125.21867,384.02,503.18
125.23852,385.35,503.90
125.25808,384.51,502.63
125.27932,382.69,502.20
125.29966,385.41,502.09
125.31875,383.91,501.89
125.33964,383.14,504.60
125.35821,383.52,500.50
125.37979,383.78,503.32
125.39893,384.65,501.90
125.41855,385.40,501.08
125.43931,383.07,501.39
125.45878,385.34,501.08
125.47867,384.38,500.22
125.49846,382.30,502.00
125.51928,385.52,502.59
125.53969,384.02,501.88
125.55978,385.21,503.76
125.57956,387.72,500.34
125.59980,384.84,502.36
125.61824,385.96,501.98
125.63898,383.33,499.19
125.65939,383.83,500.34
125.67889,383.37,502.46
125.69828,385.55,501.42
125.71996,382.96,501.38
125.73878,383.96,502.63
125.75865,384.64,502.79
125.77992,383.78,501.07
125.79924,383.89,502.34
125.81972,380.79,502.16
125.83896,381.91,502.33
125.85985,384.17,500.52
125.87933,382.48,498.49
125.89878,381.80,501.13
125.91964,380.35,499.92
125.93999,383.10,501.95
125.95883,380.04,503.32
125.97828,381.71,503.53
125.99804,378.63,502.39
126.01972,380.88,502.28
126.03983,379.29,502.92
126.05893,378.51,504.46
126.07807,377.88,503.41
126.09839,380.04,505.40
126.11893,380.83,503.28
126.13914,380.27,504.68
126.15872,381.78,502.74
126.17805,382.37,503.81
126.19928,381.59,503.18
126.21937,379.81,501.36
126.23800,379.15,501.39
126.25830,379.76,500.11
126.27871,377.73,499.26
126.29812,378.72,501.17
126.31858,377.41,502.34
126.33930,381.34,500.33
126.35964,379.66,502.60
126.37929,380.50,502.47
126.39978,379.71,503.28
126.41908,381.42,500.21
126.44030,380.61,502.11
126.46092,383.08,500.79
126.48065,381.09,500.08
126.50092,382.44,500.20
126.52055,382.95,500.97
126.54142,380.82,499.68
126.56192,380.69,500.77
126.58005,377.37,503.31
126.60049,376.10,502.10
126.62187,379.46,500.37
126.64126,377.98,500.06
126.66155,376.09,500.84
126.68131,375.65,502.43
126.70029,375.20,499.92
126.72027,378.27,500.10
126.74179,377.95,499.50
126.76171,377.19,500.26
126.78060,375.08,501.82
126.80152,373.45,500.12
126.82185,374.67,501.43
126.84180,374.03,501.33
126.86172,371.84,499.90
126.88218,373.99,500.06
126.90225,372.82,501.17
126.92110,371.83,498.13
126.94193,372.57,497.33
126.96294,369.19,497.83
126.98184,369.77,499.75
127.00268,370.67,497.38
127.02271,372.80,500.33
127.04120,372.55,500.38
127.06109,374.55,501.62
127.08162,383.56,508.98
127.10146,400.78,518.95
127.12204,421.10,530.23
127.14160,443.99,538.63
127.16293,465.90,544.63
127.18250,480.37,543.49
127.20272,493.24,540.10
127.22247,497.58,535.85
127.24269,498.93,529.76
127.26295,497.12,523.87
127.28285,492.60,513.84
127.30328,484.75,510.71
127.32211,476.65,506.56
127.34233,464.49,500.02
127.36372,456.40,496.49
127.38224,447.37,495.90
127.40252,437.45,493.94
127.42381,426.50,491.77
127.44220,419.94,495.28
127.46211,411.19,496.70
127.48366,405.97,497.60
127.50349,400.52,496.47
127.52247,393.69,496.78
127.54342,389.74,496.01
127.56216,388.19,499.06
127.58387,385.81,500.40
127.60237,379.36,499.55
127.62286,381.08,502.33
127.64327,376.05,501.59
127.66328,374.46,501.38
127.68258,374.52,502.04
127.70360,374.23,501.24
127.72331,371.87,499.07
127.74276,367.89,501.26
127.76239,367.72,500.93
127.78201,364.80,498.06
127.80236,365.58,500.43
127.82216,365.41,499.24
127.84358,362.93,501.51
127.86308,362.77,501.27
127.88247,354.92,504.47
127.90282,344.66,507.38
127.92407,325.33,503.51
127.94326,306.28,500.22
127.96494,285.64,491.89
127.98407,264.06,481.24
128.00433,247.49,473.05
128.02325,241.21,463.14
128.04372,238.49,458.50
128.06363,240.30,458.68
128.08379,246.68,458.66
128.10492,252.80,459.63
128.12493,261.04,463.27
128.14482,272.66,469.38
128.16460,279.91,472.46
128.18412,289.91,477.22
128.20496,299.25,477.73
128.22454,307.80,479.26
128.24565,313.67,485.37
128.26566,320.16,486.00
128.28574,326.87,490.30
128.30526,330.92,492.29
128.32610,337.25,493.13
128.34689,340.50,492.14
128.36649,342.73,492.20
128.38609,343.43,495.75
128.40512,347.85,493.90
128.42596,352.85,496.46
128.44558,354.16,497.02
128.46689,353.11,497.23
128.48556,355.58,498.52
128.50511,354.07,499.18
128.52500,355.79,497.89
128.54572,357.78,500.20
128.56503,359.65,496.81
128.58697,359.90,497.77
128.60580,358.54,497.15
128.62642,360.91,497.74
128.64653,361.88,499.50
128.66683,363.14,497.58
128.68684,363.47,500.42
128.70603,363.60,499.00
128.72658,366.23,499.27
128.74640,363.93,498.38
128.76622,364.05,499.92
128.78597,364.16,498.75
128.80636,366.19,499.57
128.82690,363.94,497.57
128.84597,364.16,498.79
128.86648,365.74,500.37
128.88651,364.36,500.17
128.90684,363.49,500.95
128.92642,364.10,500.90
128.94563,365.07,500.88
128.96535,365.54,499.84
128.98653,367.67,501.91
129.00524,366.13,502.77
129.02592,367.11,504.37
129.04608,369.88,502.54
129.06700,368.43,502.73
129.08520,370.43,501.40
129.10581,368.73,502.86
129.12678,367.25,501.56
129.14640,369.79,499.88
129.16686,367.45,499.88
129.18551,368.39,498.99
129.20685,370.01,502.78
129.22622,366.63,499.57
129.24524,367.66,500.19
129.26574,367.43,499.18
129.28573,364.80,500.23
129.30679,367.08,502.38
129.32731,364.66,498.78
129.34618,368.10,500.45
129.36579,369.58,499.13
129.38712,370.12,500.20
129.40613,370.47,500.31
129.42755,372.90,501.31
129.44835,370.31,498.80
129.46878,371.02,497.34
129.48789,374.09,500.06
129.50768,374.96,501.52
129.52802,373.00,499.71
129.54731,372.48,498.76
129.56631,375.96,501.02
129.58755,376.31,501.03
129.60758,376.85,498.05
129.62822,377.54,500.91
129.64753,376.05,499.98
129.66630,374.21,497.43
129.68869,376.68,501.01
129.70748,377.45,499.09
129.72702,378.00,500.65
129.74811,377.23,501.85
129.76851,376.06,502.30
129.78992,376.40,501.41
129.80886,376.09,500.18
129.82821,377.84,502.79
129.84954,381.85,499.73
129.86873,380.78,499.62
129.88923,381.95,502.15
129.90938,382.95,498.12
129.92970,383.70,499.86
129.94927,382.47,499.01
129.96930,380.16,498.07
129.98986,382.74,499.30
130.00825,379.46,498.90
130.02934,382.39,497.32
130.04967,376.66,497.23
130.06820,376.70,496.62
130.08946,377.95,498.23
130.10995,379.79,497.50
130.12972,378.90,498.77
130.14987,381.73,499.31
130.16903,379.60,495.82
130.18993,381.87,496.56
130.21025,382.61,500.95
130.23031,385.15,500.10
130.25115,386.53,497.26
130.27053,385.48,497.32
130.29107,385.36,498.43
130.31069,382.39,501.78
130.33111,384.82,501.10
130.35116,383.50,501.47
130.37096,383.68,503.01
130.39055,383.16,499.18
130.41101,382.35,498.78
130.43085,384.24,503.43
130.45194,383.45,502.74
130.47046,385.72,500.24
130.49094,384.72,503.51
130.51193,384.90,502.32
130.53114,384.89,505.10
130.55147,383.15,502.97
130.57086,381.65,502.60
130.59015,382.43,500.72
130.61015,384.95,501.26
130.63132,382.56,501.44
130.65197,384.71,503.46
130.67065,383.66,502.09
130.69188,384.54,500.13
130.71021,386.15,499.04
130.73095,385.35,501.72
130.75119,386.71,499.59
130.77146,386.94,498.67
130.79087,384.62,499.85
130.81119,385.40,500.73
130.83099,382.80,499.43
130.85149,382.93,502.06
130.87194,384.33,501.18
130.89173,382.56,501.82
130.91138,382.76,500.84
130.93089,385.34,501.08
130.95103,386.71,503.90
130.97071,387.09,503.25
130.99136,401.25,508.94
131.01056,420.93,518.77
131.03002,447.07,530.40
131.05050,469.93,540.47
131.07161,488.87,545.31
131.09041,502.81,542.15
131.11057,509.19,540.13
131.13067,509.29,536.89
131.15185,509.64,531.80
131.17025,504.10,524.90
131.19139,498.78,517.91
131.21084,489.37,515.16
131.23140,483.69,509.14
131.25193,472.73,504.02
131.27151,466.14,503.20
131.29030,455.55,502.79
131.31160,446.34,498.18
131.33178,437.64,499.75
131.35091,430.89,498.25
131.37065,425.62,498.37
131.39087,419.86,501.73
131.41092,413.73,501.74
131.43155,411.71,501.40
131.45117,409.12,501.30
131.47103,403.79,502.54
131.49047,399.57,502.34
131.51028,399.40,503.28
131.53011,395.44,504.18
131.55087,395.83,500.99
131.57059,393.31,500.60
131.59036,388.85,501.18
131.61010,386.95,503.53
131.63166,389.08,503.10
131.65040,387.33,502.66
131.67084,386.39,503.96
131.69089,387.02,502.24
131.71050,386.81,500.45
131.73246,386.36,502.64
131.75272,383.37,503.03
131.77245,385.88,502.00
131.79173,383.58,499.86
131.81155,384.53,502.76
131.83220,384.12,500.60
131.85189,380.79,501.33
131.87188,381.76,501.68
131.89218,381.19,502.35
131.91176,383.61,503.03
131.93167,379.75,503.59
131.95174,380.05,500.78
131.97277,380.61,504.16
131.99147,381.50,502.95
132.01179,380.83,502.64
132.03147,376.03,510.74
132.05106,368.07,517.21
132.07256,353.65,523.89
132.09229,337.36,531.63
132.11279,316.69,532.89
132.13118,297.86,523.98
132.15134,280.82,510.57
132.17237,263.32,499.06
132.19145,255.63,486.11
132.21108,253.23,477.01
132.23258,257.31,471.69
132.25077,262.39,471.21
132.27194,267.72,467.31
132.29204,277.81,465.52
132.31226,286.49,468.65
132.33247,298.63,470.14
132.35134,306.42,469.63
132.37311,314.82,470.03
132.39366,319.36,473.84
132.41201,328.20,478.79
132.43459,330.43,478.50
132.45437,338.77,479.34
132.47458,343.41,481.23
132.49405,344.77,485.44
132.51326,350.82,485.17
132.53224,350.67,488.33
132.55357,352.23,488.86
132.57408,355.73,487.17
132.59365,356.28,489.92
132.61564,359.15,488.83
132.63416,359.54,490.75
132.65585,359.49,489.70
132.67403,358.61,490.49
132.69518,361.19,490.53
132.71541,363.06,491.95
132.73380,364.79,494.17
132.75490,366.03,496.52
132.77477,364.40,494.84
132.79510,366.23,495.15
132.81461,364.33,491.80
132.83563,363.59,492.78
132.85528,366.33,494.56
132.87420,365.52,494.45
132.89593,364.03,494.31
132.91543,367.13,493.69
132.93600,366.92,494.50
132.95533,368.59,498.06
132.97453,368.86,495.70
132.99579,366.29,497.74
133.01523,365.09,498.31
133.03445,368.24,500.48
133.05334,364.04,500.08
133.07503,363.61,499.89
133.09448,364.62,498.24
133.11419,366.47,497.48
133.13472,363.75,500.37
133.15437,364.64,497.41
133.17424,362.63,499.47
133.19490,362.00,499.80
133.21596,364.58,498.05
133.23327,363.69,498.33
133.25546,365.29,499.12
133.27577,365.95,499.96
133.29411,367.37,500.05
133.31532,363.16,498.70
133.33519,359.87,501.66
133.35584,357.64,503.14
133.37549,358.70,506.88
133.39457,360.08,506.58
133.41432,357.71,504.59
133.43428,355.33,503.70
133.45524,355.55,501.97
133.47498,357.95,502.73
133.49401,356.96,499.06
133.51474,361.04,497.97
133.53554,360.00,496.49
133.55498,358.31,497.40
133.57458,362.58,494.14
133.59507,362.67,495.25
133.61401,363.80,494.79
133.63496,363.26,496.87
133.65446,362.27,496.06
133.67405,364.06,497.04
133.69454,361.63,496.33
133.71464,363.14,493.76
133.73429,363.33,495.43
133.75467,362.00,496.41
133.77500,361.88,496.53
133.79520,362.82,498.73
133.81408,361.76,497.45
133.83412,362.39,499.72
133.85405,363.79,499.40
133.87557,365.11,498.21
133.89539,363.25,497.30
133.91497,364.50,497.58
133.93592,363.78,500.56
133.95421,367.29,503.22
133.97327,365.84,502.10
133.99600,362.19,501.75
134.01493,359.47,489.91
134.03561,356.37,472.87
134.05482,353.62,452.59
134.07477,350.37,437.04
134.09599,350.64,427.31
134.11338,346.05,417.61
134.13438,343.11,414.50
134.15440,342.93,417.04
134.17377,342.05,419.48
134.19564,343.86,417.31
134.21556,342.28,427.89
134.23528,343.22,437.34
134.25429,347.01,445.89
134.27502,348.81,453.97
134.29553,350.24,461.20
134.31435,357.86,470.55
134.33311,355.66,473.61
134.35314,356.08,478.75
134.37458,353.73,498.26
134.39431,357.58,511.60
134.41573,358.68,521.14
134.43441,357.21,522.72
134.45404,355.05,525.44
134.47598,357.04,523.65
134.49526,356.60,519.33
134.51415,357.70,513.49
134.53449,359.84,521.93
134.55380,360.89,516.44
134.57387,359.78,511.70
134.59424,361.50,507.90
134.61466,361.04,516.02
134.63574,364.72,516.37
134.65349,365.88,513.08
134.67404,368.32,522.25
134.69353,366.33,522.21
134.71532,373.94,523.48
134.73523,374.91,532.25
134.75341,376.18,533.53
134.77412,374.31,523.49
134.79448,374.77,535.19
134.81479,370.52,519.46
134.83427,372.02,501.13
