Program Time [s],data 0,data 1
5.06993,407.65,494.84
5.09042,404.72,496.46
5.11071,405.81,497.33
5.13033,405.51,499.32
5.14990,403.10,498.16
5.16903,405.89,499.63
5.19006,405.96,500.77
5.21051,406.20,498.89
5.23047,405.76,500.61
5.24922,409.18,501.22
5.27043,408.75,500.56
5.28985,410.42,501.48
5.30955,408.78,504.49
5.33063,411.85,502.09
5.34894,410.30,503.33
5.37060,408.62,501.66
5.39040,408.13,501.61
5.40966,410.25,503.09
5.42978,407.42,504.03
5.44985,410.33,501.76
5.46979,407.73,505.33
5.49015,409.71,503.41
5.51066,411.22,504.73
5.52976,410.60,501.67
5.54989,410.75,503.24
5.57000,412.18,502.50
5.59044,411.46,501.37
5.61055,410.72,503.60
5.62878,411.80,502.61
5.65052,411.84,502.62
5.67035,411.49,502.94
5.69235,411.31,504.01
5.71117,413.33,505.38
5.73203,412.26,504.20
5.75270,413.25,506.18
5.77184,416.52,512.43
5.79224,424.72,519.16
5.81230,445.37,535.30
5.83232,472.55,553.40
5.85203,496.98,565.18
5.87266,517.45,566.43
5.89159,532.46,562.65
5.91279,540.99,558.01
5.93196,546.83,545.97
5.95204,545.77,535.41
5.97321,540.34,526.36
5.99251,533.39,520.20
6.01234,525.67,510.63
6.03253,517.57,507.36
6.05316,507.41,504.45
6.07266,497.64,500.93
6.09251,488.23,501.15
6.11249,481.32,500.89
6.13244,474.47,497.58
6.15216,466.92,498.23
6.17339,461.49,498.72
6.19383,454.30,500.65
6.21357,451.53,497.37
6.23202,447.91,501.04
6.25255,443.65,500.70
6.27318,438.47,501.21
6.29217,436.76,499.54
6.31386,433.69,503.79
6.33281,433.05,503.52
6.35465,431.12,505.75
6.37376,432.14,505.68
6.39434,428.53,505.04
6.41506,430.08,505.51
6.43624,431.91,507.05
6.45647,428.64,509.57
6.47584,428.39,507.44
6.49622,429.74,508.79
6.51497,429.63,510.70
6.53570,430.58,508.65
6.55491,427.77,510.84
6.57653,428.96,511.68
6.59730,421.36,512.18
6.61665,407.78,516.66
6.63610,383.57,518.36
6.65597,363.18,521.39
6.67853,341.16,514.23
6.69771,319.37,504.07
6.71777,298.00,489.82
6.73708,284.05,476.29
6.75785,274.89,467.73
6.77801,275.46,463.98
6.79723,281.70,462.49
6.81872,288.29,460.75
6.83710,296.71,463.56
6.85740,309.43,465.62
6.87732,323.54,472.27
6.89795,331.04,476.43
6.91660,343.48,481.08
6.93671,350.32,483.58
6.95826,358.01,486.79
6.97817,368.80,487.85
6.99778,377.72,493.71
7.01864,385.16,493.62
7.03781,388.41,492.57
7.05678,393.08,493.80
7.07774,398.35,496.20
7.09860,402.66,499.51
7.11721,407.13,501.14
7.13805,410.78,502.10
7.15720,409.03,504.15
7.17713,411.59,503.64
7.19761,415.81,507.06
7.21888,418.09,507.74
7.23923,418.73,506.62
7.25915,419.13,509.45
7.27969,417.60,507.62
7.29878,420.20,509.31
7.31920,421.69,510.42
7.33880,420.83,509.99
7.35900,419.76,508.63
7.37778,423.01,510.35
7.39901,420.97,508.83
7.41901,422.70,508.75
7.43964,421.66,507.24
7.45975,421.44,507.07
7.47956,424.57,507.24
7.49948,421.61,510.28
7.51829,421.51,508.59
7.53956,423.32,509.56
7.55814,422.33,513.09
7.57866,422.45,510.16
7.59912,421.51,513.11
7.61872,424.78,509.66
7.63835,424.36,511.71
7.65818,424.44,512.17
7.67847,422.84,512.16
7.70020,424.61,512.88
7.71965,422.19,510.58
7.74138,419.64,509.53
7.76115,416.68,510.30
7.78166,416.85,508.43
7.80109,417.44,511.16
7.82100,418.65,510.02
7.84176,414.99,508.78
7.85976,415.30,510.08
7.88094,415.47,507.88
7.90120,414.21,507.83
7.92085,414.77,510.93
7.94100,414.38,509.89
7.96075,414.40,510.50
7.98074,413.40,507.87
8.00022,415.29,511.68
8.02108,415.53,511.05
8.04046,416.68,507.86
8.06145,416.38,508.47
8.08063,417.75,507.62
8.10036,418.74,505.54
8.12129,417.50,509.08
8.14081,416.46,509.15
8.16068,417.48,509.82
8.18061,415.18,511.13
8.20064,416.67,509.31
8.22010,415.27,509.71
8.24133,414.87,510.22
8.26105,414.62,510.17
8.28056,414.68,508.78
8.30043,411.97,508.83
8.32067,413.53,510.04
8.34169,412.59,508.28
8.36116,412.33,508.49
8.38055,412.19,508.92
8.40126,410.43,510.19
8.42102,410.87,508.15
8.44005,412.62,507.82
8.45998,413.47,509.61
8.48269,413.44,511.03
8.50271,412.48,511.35
8.52261,412.39,511.49
8.54211,411.96,510.48
8.56105,408.99,509.68
8.58107,411.65,509.85
8.60239,408.22,508.72
8.62156,409.67,509.77
8.64211,410.00,509.60
8.66062,409.29,508.08
8.68209,407.48,509.66
8.70184,410.25,509.76
8.72204,408.07,506.28
8.74098,407.47,510.61
8.76169,409.72,510.40
8.78243,406.82,509.69
8.80221,408.86,507.31
8.82187,409.00,507.52
8.84238,407.63,506.96
8.86139,409.53,508.14
8.88088,407.18,505.42
8.90072,407.78,506.52
8.92229,410.76,505.52
8.94238,409.60,507.92
8.96200,408.52,508.29
8.98176,408.23,506.04
9.00126,409.36,505.39
9.02101,408.13,504.00
9.04112,411.34,505.04
9.06110,411.08,507.49
9.08097,408.64,507.50
9.10254,409.41,505.59
9.12249,411.41,505.76
9.14238,411.33,505.36
9.16188,410.33,508.18
9.18262,419.62,512.70
9.20116,434.65,522.71
9.22241,457.21,537.78
9.24123,480.06,548.79
9.26129,500.34,557.64
9.28107,523.43,561.79
9.30122,537.60,559.06
9.32125,549.67,557.00
9.34190,554.97,548.03
9.36188,552.91,534.65
9.38258,551.68,524.28
9.40093,544.94,512.97
9.42271,535.96,507.71
9.44158,528.65,503.12
9.46127,518.32,496.48
9.48089,504.93,491.44
9.50076,495.27,490.30
9.52262,486.59,488.65
9.54141,477.07,488.93
9.56200,471.27,492.97
9.58111,460.92,492.43
9.60196,455.85,495.34
9.62244,449.98,494.00
9.64091,445.62,499.99
9.66143,439.36,498.67
9.68172,431.68,500.10
9.70086,431.36,500.95
9.72272,428.24,503.17
9.74240,422.53,506.39
9.76135,421.27,504.14
9.78097,421.52,504.30
9.80218,420.88,507.52
9.82161,417.53,507.70
9.84179,416.99,508.01
9.86186,418.21,507.17
9.88122,413.87,507.68
9.90187,413.35,508.18
9.92257,413.91,508.59
9.94103,411.82,508.58
9.96260,412.28,509.20
9.98122,410.65,508.28
10.00140,413.78,511.48
10.02175,412.89,508.10
10.04170,410.33,507.33
10.06178,411.81,507.44
10.08165,412.79,509.75
10.10210,411.82,508.23
10.12174,409.89,510.79
10.14253,408.41,509.56
10.16209,408.08,510.95
10.18094,398.02,511.05
10.20113,387.43,516.47
10.22244,372.17,513.41
10.24209,354.72,514.72
10.26253,333.24,512.41
10.28185,312.77,505.64
10.30088,292.64,497.21
10.32130,279.03,491.82
10.34093,271.39,483.95
10.36059,262.87,480.35
10.38186,265.49,474.90
10.40072,273.25,477.14
10.42165,282.71,475.18
10.44229,291.12,478.80
10.46177,302.48,480.34
10.48278,312.58,482.33
10.50082,321.67,484.89
10.52217,333.02,487.39
10.54082,344.28,490.15
10.56223,351.29,491.60
10.58093,360.72,492.11
10.60254,366.35,496.36
10.62184,374.26,495.94
10.64235,379.63,496.06
10.66090,381.53,498.69
10.68222,388.90,495.62
10.70308,391.69,498.72
10.72239,391.81,498.17
10.74357,396.93,497.25
10.76162,398.01,498.33
10.78259,399.91,499.31
10.80346,401.73,499.85
10.82175,403.39,503.74
10.84330,404.91,503.38
10.86289,403.71,502.68
10.88291,404.59,503.25
10.90199,408.65,502.55
10.92313,409.30,504.42
10.94367,407.32,504.38
10.96396,408.88,504.27
10.98439,409.18,505.66
11.00328,409.00,503.22
11.02415,411.55,505.91
11.04379,411.72,505.72
11.06341,411.68,505.31
11.08270,414.88,508.17
11.10342,413.83,505.48
11.12396,412.41,506.59
11.14404,414.91,508.75
11.16300,414.37,507.08
11.18404,411.50,507.48
11.20418,412.36,507.90
11.22436,413.50,507.76
11.24302,416.63,508.83
11.26315,416.10,505.04
11.28430,418.13,507.08
11.30454,417.37,508.06
11.32398,417.38,506.60
11.34407,416.07,506.49
11.36325,417.35,505.15
11.38441,416.75,507.23
11.40350,415.88,507.80
11.42498,419.86,508.33
11.44422,419.80,504.87
11.46486,418.79,507.71
11.48449,418.20,506.40
11.50479,415.98,506.08
11.52373,421.87,505.95
11.54373,420.48,507.10
11.56549,418.39,505.61
11.58381,420.54,504.20
11.60454,421.12,506.28
11.62490,422.17,505.67
11.64509,419.67,509.42
11.66540,421.86,508.95
11.68394,418.65,506.40
11.70501,422.44,509.46
11.72505,419.93,506.21
11.74366,418.60,507.26
11.76446,421.56,505.83
11.78405,421.98,508.27
11.80422,423.24,506.40
11.82473,422.44,508.16
11.84409,421.41,509.42
11.86394,423.05,507.76
11.88433,424.13,508.14
11.90523,424.64,508.70
11.92515,422.55,505.82
11.94361,421.84,507.17
11.96529,422.01,508.07
11.98530,421.69,507.01
12.00504,421.60,505.65
12.02517,419.00,506.74
12.04528,418.10,509.02
12.06458,419.32,506.48
12.08415,418.93,505.60
12.10516,421.24,507.13
12.12514,423.71,505.83
12.14370,421.74,504.61
12.16447,421.50,504.74
12.18405,423.59,504.06
12.20490,425.60,506.37
12.22536,425.92,507.07
12.24445,425.22,505.87
12.26437,424.91,508.72
12.28448,423.67,508.80
12.30407,427.63,510.85
12.32535,427.95,508.14
12.34360,426.07,508.74
12.36405,427.69,509.88
12.38403,426.61,510.29
12.40557,426.93,508.94
12.42430,426.14,508.57
12.44384,425.69,510.33
12.46445,427.12,508.95
12.48398,424.19,510.92
12.50554,425.93,508.46
12.52565,424.07,510.30
12.54485,424.93,507.17
12.56442,425.75,508.16
12.58428,426.73,509.12
12.60376,426.94,509.59
12.62519,424.22,505.91
12.64393,422.21,508.58
12.66551,424.42,507.27
12.68397,422.98,506.76
12.70495,426.48,507.49
12.72528,425.10,506.67
12.74364,426.49,508.74
12.76391,426.70,507.74
12.78401,428.38,507.55
12.80462,429.77,506.53
12.82376,430.37,507.71
12.84407,427.40,508.77
12.86537,428.65,509.53
12.88514,427.31,509.75
12.90508,429.60,507.18
12.92533,431.46,510.11
12.94365,432.05,508.09
12.96393,427.69,509.92
12.98477,427.75,511.12
13.00541,435.74,513.63
13.02523,457.90,521.50
13.04459,485.60,534.12
13.06407,512.40,543.05
13.08419,539.89,547.71
13.10482,560.17,550.94
13.12504,571.29,549.42
13.14518,579.33,543.10
13.16432,579.36,537.56
13.18544,575.67,530.98
13.20524,569.18,524.20
13.22476,561.80,520.32
13.24444,548.69,518.28
13.26480,539.90,511.78
13.28424,529.61,509.04
13.30424,515.42,508.89
13.32388,506.45,509.97
13.34444,496.79,508.90
13.36424,487.59,509.28
13.38400,481.42,509.81
13.40428,474.80,510.43
13.42518,468.91,511.17
13.44530,462.89,508.70
13.46518,457.40,509.28
13.48419,453.40,510.42
13.50437,449.27,512.70
13.52535,448.31,513.21
13.54405,443.28,511.32
13.56556,440.35,511.72
13.58583,436.25,510.97
13.60612,435.66,514.09
13.62482,436.23,511.71
13.64496,433.17,512.89
13.66650,433.09,513.87
13.68629,435.40,510.99
13.70486,433.69,511.65
13.72629,433.23,515.37
13.74573,433.58,511.90
13.76568,433.14,515.41
13.78569,434.01,512.95
13.80604,433.65,513.45
13.82598,429.69,511.52
13.84583,429.58,510.92
13.86573,427.86,512.09
13.88573,428.11,513.33
13.90511,423.43,511.54
13.92597,421.03,510.98
13.94641,408.99,510.10
13.96575,392.34,507.02
13.98590,374.20,501.92
14.00464,354.45,493.71
14.02541,331.27,482.78
14.04571,310.31,475.49
14.06475,294.85,466.87
14.08607,285.67,460.24
14.10471,282.31,461.43
14.12629,288.54,459.09
14.14604,294.37,462.36
14.16489,305.40,466.01
14.18619,314.12,471.66
14.20545,324.74,472.98
14.22496,335.80,477.99
14.24630,347.12,484.15
14.26555,356.01,487.94
14.28579,364.28,488.62
14.30641,373.70,492.08
14.32644,382.38,497.50
14.34480,385.84,499.37
14.36569,392.12,500.27
14.38584,398.47,502.72
14.40639,400.01,500.44
14.42504,407.12,504.09
14.44501,409.12,504.90
14.46502,411.21,505.03
14.48502,412.24,507.52
14.50537,414.80,506.25
14.52546,415.95,506.42
14.54605,418.44,507.08
14.56493,419.64,505.73
14.58476,420.02,509.42
14.60518,421.41,509.66
14.62508,424.23,506.73
14.64591,425.55,506.43
14.66629,426.74,509.53
14.68473,424.84,509.35
14.70617,427.78,508.69
14.72656,424.10,508.76
14.74573,426.53,508.47
14.76592,427.44,508.82
14.78466,426.56,507.32
14.80604,428.80,507.46
14.82479,426.17,506.22
14.84525,429.05,508.60
14.86565,428.99,507.59
14.88529,427.32,507.29
14.90538,427.20,508.14
14.92608,426.12,511.00
14.94627,424.58,510.34
14.96609,425.52,508.43
14.98597,427.40,512.14
15.00581,425.84,510.99
15.02518,427.17,508.99
15.04568,425.34,510.00
15.06647,426.64,509.05
15.08633,426.99,511.72
15.10494,427.93,511.88
15.12616,424.54,511.96
15.14528,427.44,510.99
15.16488,427.79,511.68
15.18521,425.70,512.23
15.20530,421.82,510.92
15.22534,424.43,510.26
15.24491,422.24,512.15
15.26628,425.72,512.46
15.28582,423.39,512.09
15.30553,427.73,509.34
15.32641,427.73,511.46
15.34625,426.87,510.08
15.36510,426.75,511.20
15.38508,427.94,509.41
15.40563,427.94,512.42
15.42554,426.73,512.56
15.44593,428.30,512.25
15.46624,428.27,514.29
15.48574,426.91,511.31
15.50569,425.61,510.57
15.52603,423.64,513.28
15.54517,426.00,513.87
15.56535,428.11,510.11
15.58492,425.50,514.21
15.60564,428.56,509.93
15.62523,430.28,509.69
15.64591,426.55,510.65
15.66543,427.13,512.17
15.68474,428.35,510.77
15.70635,425.99,509.22
15.72545,427.76,510.96
15.74493,428.16,512.42
15.76605,426.55,508.47
15.78649,427.69,510.49
15.80658,426.75,511.34
15.82487,429.17,509.61
15.84640,427.57,511.26
15.86560,429.85,513.05
15.88606,427.17,511.12
15.90516,429.07,512.40
15.92581,426.17,514.12
15.94567,425.67,513.05
15.96590,425.32,513.84
15.98458,425.38,512.38
16.00559,428.14,511.70
16.02514,429.37,513.35
16.04466,425.84,510.48
16.06566,427.16,512.99
16.08618,427.16,511.77
16.10638,427.35,512.57
16.12476,424.50,511.05
16.14568,424.97,514.03
16.16551,425.75,512.28
16.18601,425.11,513.67
16.20475,423.33,513.97
16.22613,424.07,510.37
16.24532,425.84,510.60
16.26546,424.21,512.46
16.28624,426.63,509.98
16.30458,427.41,512.69
16.32570,427.29,513.79
16.34524,425.81,512.86
16.36461,429.07,512.14
16.38642,424.70,510.92
16.40525,427.01,512.26
16.42591,427.56,512.10
16.44465,426.76,512.70
16.46639,425.00,510.17
16.48505,426.78,512.87
16.50475,428.13,511.81
16.52624,426.61,512.85
16.54500,424.93,512.17
16.56615,424.60,509.40
16.58527,424.19,512.04
16.60517,426.57,508.73
16.62642,426.64,507.20
16.64516,426.69,507.09
16.66565,425.88,511.40
16.68580,424.99,508.63
16.70482,426.86,510.52
16.72525,424.95,508.93
16.74617,425.32,506.76
16.76497,425.63,507.12
16.78572,423.96,508.65
16.80493,423.09,507.64
16.82612,423.16,509.22
16.84471,426.51,510.67
16.86511,424.60,507.41
16.88514,423.19,508.02
16.90509,421.73,508.09
16.92509,421.97,509.25
16.94644,422.86,510.67
16.96552,431.37,517.49
16.98490,450.39,526.47
17.00497,475.14,537.32
17.02501,503.97,552.02
17.04610,529.39,558.20
17.06517,545.94,557.32
17.08603,558.28,554.56
17.10459,561.32,550.15
17.12567,562.97,544.26
17.14602,561.55,538.54
17.16593,553.20,531.30
17.18513,547.60,527.10
17.20603,536.46,524.12
17.22548,526.29,518.21
17.24499,517.22,514.84
17.26570,510.94,515.46
17.28522,500.30,515.75
17.30561,489.00,514.45
17.32614,480.07,511.32
17.34631,473.70,513.50
17.36456,466.83,511.59
17.38574,460.10,513.73
17.40473,455.67,512.06
17.42526,448.42,512.00
17.44625,442.90,509.80
17.46609,441.93,511.10
17.48493,439.18,508.40
17.50569,438.18,508.18
17.52450,434.00,507.66
17.54561,431.00,511.41
17.56480,432.58,510.06
17.58629,431.44,510.14
17.60661,430.81,509.80
17.62621,427.44,510.70
17.64470,426.40,510.84
17.66574,426.22,510.96
17.68473,422.03,510.88
17.70571,422.87,510.83
17.72488,424.55,510.66
17.74508,422.76,510.83
17.76571,420.88,511.41
17.78551,422.34,509.47
17.80603,419.21,509.81
17.82568,418.82,508.04
17.84456,422.13,507.77
17.86489,421.58,508.22
17.88648,423.11,507.98
17.90475,424.55,507.54
17.92598,421.01,507.20
17.94577,422.14,505.72
17.96548,421.97,505.90
17.98477,421.99,507.81
18.00605,423.22,508.90
18.02536,422.84,508.73
18.04644,420.55,509.86
18.06522,421.27,508.43
18.08542,417.86,509.49
18.10563,405.37,513.57
18.12613,389.08,514.81
18.14471,368.66,515.12
18.16606,346.22,509.68
18.18477,325.91,503.30
18.20619,305.24,495.50
18.22465,292.74,488.05
18.24574,287.48,483.43
18.26546,292.20,477.77
18.28654,297.52,480.11
18.30625,304.69,478.99
18.32622,312.74,476.75
18.34650,323.38,479.17
18.36466,332.67,481.68
18.38495,343.19,485.41
18.40508,350.16,488.43
18.42500,357.18,488.76
18.44574,364.83,494.27
18.46626,375.11,497.64
18.48585,378.15,498.24
18.50477,383.63,500.06
18.52460,388.46,499.26
18.54495,394.46,500.66
18.56534,401.57,502.50
18.58644,402.80,504.01
18.60561,402.59,502.44
18.62570,406.10,502.42
18.64455,405.31,501.82
18.66642,408.03,505.26
18.68468,408.74,503.79
18.70602,409.61,503.83
18.72504,411.41,504.51
18.74461,414.70,505.95
18.76525,413.10,507.08
18.78538,412.28,506.97
18.80649,415.66,508.62
18.82550,416.29,506.78
18.84557,413.44,505.40
18.86586,416.86,505.77
18.88614,415.89,506.56
18.90635,414.11,506.00
18.92534,417.54,506.41
18.94478,414.11,510.26
18.96516,416.66,510.64
18.98517,415.95,506.96
19.00512,415.63,506.06
19.02628,416.09,507.82
19.04483,416.49,508.75
19.06517,416.44,508.16
19.08461,414.71,509.19
19.10642,416.22,508.10
19.12497,417.67,507.13
19.14589,414.09,504.98
19.16567,413.81,504.61
19.18600,415.07,506.50
19.20559,416.69,505.66
19.22500,416.12,505.30
19.24575,414.43,506.86
19.26502,411.88,503.49
19.28485,412.44,503.67
19.30602,413.34,505.65
19.32576,415.63,507.33
19.34543,414.16,505.54
19.36473,413.40,504.43
19.38531,415.18,505.76
19.40484,416.82,507.19
19.42444,415.86,504.37
19.44638,416.53,504.68
19.46621,417.84,506.62
19.48639,415.21,504.90
19.50577,412.10,507.60
19.52489,413.65,507.19
19.54425,416.34,503.19
19.56550,415.07,503.20
19.58644,412.84,502.28
19.60634,410.33,506.15
19.62605,412.24,502.75
19.64467,412.67,506.14
19.66549,411.98,503.09
19.68545,412.40,505.42
19.70628,412.51,503.65
19.72493,413.60,505.26
19.74524,412.24,506.15
19.76612,410.72,506.52
19.78547,410.02,507.61
19.80502,410.03,507.10
19.82539,410.41,506.73
19.84606,412.12,506.93
19.86601,410.05,507.05
19.88610,412.42,505.13
19.90570,411.89,508.85
19.92561,414.92,505.50
19.94567,413.46,504.01
19.96542,411.86,507.72
19.98585,411.81,509.31
20.00532,414.03,509.12
20.02548,412.64,508.88
20.04477,412.45,509.54
20.06465,414.36,506.53
20.08579,414.81,509.04
20.10519,414.93,508.62
20.12530,412.81,504.86
20.14545,414.19,504.63
20.16483,412.69,507.00
20.18579,413.63,508.20
20.20618,413.82,507.19
20.22581,414.27,505.55
20.24615,414.23,506.01
20.26514,410.82,508.04
20.28546,412.24,508.11
20.30471,412.58,505.89
20.32637,412.33,508.48
20.34556,411.53,507.21
20.36591,410.83,507.75
20.38499,410.18,507.91
20.40510,409.73,506.33
20.42594,410.12,507.40
20.44566,410.67,505.92
20.46590,409.86,505.71
20.48527,412.36,506.92
20.50488,410.58,510.25
20.52493,409.80,507.82
20.54632,410.54,510.94
20.56440,410.98,510.03
20.58477,410.87,510.51
20.60540,414.16,511.55
20.62478,413.77,510.78
20.64481,412.76,508.66
20.66639,410.56,510.37
20.68585,412.29,508.73
20.70539,411.38,508.22
20.72618,411.91,504.04
20.74653,409.86,506.17
20.76558,410.63,502.81
20.78698,407.68,503.23
20.80672,406.52,500.95
20.82630,409.37,500.72
20.84689,407.36,498.67
20.86591,407.01,496.04
20.88727,408.90,496.34
20.90729,410.17,499.98
20.92636,408.04,496.88
20.94727,408.41,497.27
20.96571,410.36,498.78
20.98665,411.62,501.91
21.00686,408.54,500.18
21.02574,407.50,501.84
21.04632,407.00,503.58
21.06653,409.28,504.23
21.08693,408.68,501.78
21.10650,407.41,502.04
21.12566,408.06,503.05
21.14706,407.76,501.32
21.16644,407.57,501.86
21.18739,409.36,501.54
21.20581,410.14,498.00
21.22729,409.02,500.25
21.24583,418.88,502.54
21.26674,433.81,510.92
21.28571,457.47,523.98
21.30687,479.08,535.61
21.32747,503.48,546.04
21.34740,519.31,547.79
21.36732,528.89,549.58
21.38575,536.83,543.94
21.40565,537.37,541.33
21.42697,533.68,536.15
21.44671,529.24,529.41
21.46577,523.37,521.10
21.48575,516.18,515.93
21.50566,503.75,510.61
21.52662,495.13,508.03
21.54584,487.70,501.60
21.56702,478.43,502.26
21.58728,471.06,501.55
21.60679,459.49,497.82
21.62724,455.29,499.38
21.64590,448.30,497.27
21.66584,441.73,498.79
21.68634,435.47,500.40
21.70586,434.60,499.74
21.72597,432.48,500.47
21.74613,426.86,498.98
21.76617,424.24,499.00
21.78580,420.29,498.63
21.80646,418.31,500.55
21.82720,418.51,502.02
21.84682,417.65,499.75
21.86742,415.26,500.64
21.88615,414.49,501.27
21.90559,412.80,502.92
21.92601,410.24,503.40
21.94675,409.05,504.66
21.96738,408.29,502.31
21.98730,408.50,503.94
22.00693,410.67,503.39
22.02616,410.26,506.00
22.04630,411.31,502.52
22.06626,409.38,503.52
22.08634,410.48,504.36
22.10716,408.87,502.96
22.12761,409.35,505.22
22.14606,409.39,505.21
22.16575,407.35,505.24
22.18592,405.77,503.10
22.20693,410.10,503.24
22.22715,408.36,506.55
22.24554,409.71,506.75
22.26571,409.00,507.55
22.28619,412.32,504.92
22.30736,410.49,505.68
22.32732,413.32,504.35
22.34613,409.97,505.38
22.36697,403.34,507.77
22.38683,388.44,508.60
22.40682,377.30,509.56
22.42572,358.28,506.13
22.44551,338.46,498.58
22.46633,313.91,493.24
22.48564,295.54,481.69
22.50610,280.16,472.84
22.52580,275.01,468.01
22.54588,273.61,464.83
22.56697,276.21,463.65
22.58742,284.79,466.08
22.60716,297.42,466.96
22.62584,307.18,467.77
22.64708,315.44,472.87
22.66726,328.09,475.60
22.68675,336.01,478.57
22.70652,342.98,478.90
22.72614,350.50,481.26
22.74611,359.92,487.27
22.76630,364.35,486.15
22.78747,373.95,490.86
22.80632,378.78,491.55
22.82627,381.60,490.99
22.84745,387.64,493.16
22.86732,391.61,498.40
22.88702,391.37,498.60
22.90748,397.81,496.28
22.92735,398.46,498.09
22.94718,401.60,500.41
22.96706,400.07,499.97
22.98652,405.62,500.59
23.00551,406.94,502.42
23.02704,406.26,501.20
23.04642,407.94,504.46
23.06646,408.16,502.72
23.08671,410.00,503.91
23.10590,410.28,504.33
23.12536,409.82,505.40
23.14532,412.33,504.70
23.16583,412.27,506.09
23.18640,411.24,505.51
23.20551,410.29,504.99
23.22613,408.73,504.32
23.24722,408.60,504.20
23.26604,408.70,506.41
23.28697,411.86,504.74
23.30685,408.67,504.85
23.32672,408.77,504.63
23.34670,411.07,501.98
23.36683,412.31,500.69
23.38605,412.17,500.04
23.40562,410.65,501.00
23.42718,414.59,504.10
23.44569,415.48,503.80
23.46549,416.39,503.53
23.48615,413.09,506.15
23.50540,413.10,506.40
23.52651,412.29,505.81
23.54706,411.55,504.46
23.56628,412.39,507.43
23.58683,413.09,507.23
23.60639,413.00,506.64
23.62651,414.21,506.92
23.64605,415.39,503.90
23.66660,412.01,505.64
23.68723,413.72,506.21
23.70680,413.00,505.41
23.72731,411.07,507.11
23.74601,412.67,507.45
23.76625,414.30,506.34
23.78712,413.06,506.14
23.80618,413.40,507.43
23.82660,414.71,506.95
23.84612,414.68,507.35
23.86667,415.00,507.05
23.88735,415.26,504.35
23.90563,415.49,504.96
23.92613,416.14,505.65
23.94660,414.79,505.93
23.96611,417.94,505.31
23.98699,415.87,509.27
24.00582,413.67,508.75
24.02608,416.94,508.26
24.04663,414.24,509.11
24.06646,417.87,507.50
24.08737,414.83,508.23
24.10584,415.65,508.41
24.12599,416.16,508.28
24.14553,417.24,506.72
24.16711,414.45,504.15
24.18588,414.92,502.54
24.20607,415.10,503.36
24.22566,416.54,504.55
24.24691,416.48,503.99
24.26602,416.83,505.44
24.28686,416.79,505.22
24.30698,416.44,503.71
24.32720,416.24,505.55
24.34619,414.29,506.11
24.36695,416.85,505.24
24.38583,417.28,506.01
24.40628,417.39,507.08
24.42596,417.68,507.48
24.44603,417.67,506.08
24.46678,420.97,507.56
24.48567,418.05,509.89
24.50555,418.42,508.84
24.52673,417.48,508.70
24.54638,416.66,506.61
24.56663,418.70,506.53
24.58615,417.82,509.19
24.60679,418.79,509.49
24.62594,417.50,508.55
24.64731,418.37,508.49
24.66748,419.87,507.74
24.68644,420.06,508.90
24.70669,418.35,508.89
24.72758,418.86,508.72
24.74734,417.19,508.49
24.76693,418.42,509.39
24.78560,419.48,508.31
24.80619,421.55,509.13
24.82603,421.57,509.10
24.84624,418.26,506.22
24.86574,420.51,505.23
24.88700,417.23,505.40
24.90686,416.65,505.52
24.92675,418.40,504.98
24.94557,419.78,506.36
24.96725,417.06,507.09
24.98658,428.94,511.62
25.00702,444.64,517.22
25.02646,465.11,526.99
25.04674,490.97,534.92
25.06655,510.27,537.35
25.08727,528.45,543.10
25.10620,542.08,541.42
25.12697,550.83,538.65
25.14628,555.66,535.99
25.16549,557.41,534.96
25.18619,552.10,529.31
25.20562,549.79,528.90
25.22540,541.41,524.20
25.24575,535.09,517.50
25.26619,526.26,516.92
25.28662,518.25,512.12
25.30511,510.95,509.64
25.32664,500.02,507.06
25.34669,492.88,506.76
25.36673,484.54,505.56
25.38573,476.33,504.89
25.40653,466.07,507.31
25.42555,461.26,508.20
25.44706,453.97,507.85
25.46558,448.02,505.70
25.48635,443.47,508.99
25.50705,440.31,507.71
25.52577,438.07,509.27
25.54543,436.69,508.95
25.56607,432.37,508.18
25.58674,433.60,511.95
25.60611,430.78,513.12
25.62646,427.42,511.95
25.64586,429.40,512.75
25.66577,429.62,513.73
25.68594,429.26,512.14
25.70578,426.03,512.33
25.72653,428.30,510.07
25.74641,426.72,512.50
25.76598,425.56,510.76
25.78725,424.06,511.85
25.80569,423.62,512.39
25.82679,425.33,511.69
25.84722,423.47,511.44
25.86590,423.83,507.90
25.88596,424.37,508.87
25.90686,422.70,507.07
25.92735,424.59,507.85
25.94543,423.76,506.21
25.96724,422.89,506.25
25.98658,420.61,504.68
26.00705,419.17,506.66
26.02614,420.77,505.69
26.04602,422.38,506.95
26.06590,422.16,511.13
26.08633,422.33,519.70
26.10577,411.93,530.23
26.12611,403.51,536.85
26.14594,388.02,545.47
26.16552,367.95,545.12
26.18578,349.38,545.04
26.20696,332.11,531.42
26.22604,312.82,520.67
26.24622,298.33,501.88
26.26644,285.24,487.79
26.28611,280.05,474.91
26.30659,280.25,469.46
26.32708,284.13,463.70
26.34667,294.64,460.13
26.36542,301.71,457.01
26.38641,313.71,458.94
26.40584,324.93,459.71
26.42602,335.70,459.71
26.44690,346.20,461.02
26.46704,354.03,465.96
26.48563,364.63,466.74
26.50677,373.22,472.25
26.52627,375.99,474.98
26.54607,386.44,476.23
26.56645,391.36,481.40
26.58719,393.23,482.48
26.60562,397.47,482.73
26.62566,403.84,486.14
26.64632,405.96,489.94
26.66725,407.54,491.16
26.68634,410.64,490.80
26.70547,412.41,493.80
26.72697,416.14,495.96
26.74737,416.65,497.40
26.76553,417.99,499.82
26.78560,420.34,500.65
26.80715,420.63,501.45
26.82677,422.26,501.97
26.84644,424.71,501.08
26.86690,422.33,501.41
26.88576,422.89,503.29
26.90589,424.98,501.01
26.92616,427.60,505.65
26.94649,428.33,505.92
26.96622,428.20,504.80
26.98555,427.43,507.59
27.00531,429.91,505.28
27.02650,426.83,506.02
27.04713,427.29,505.62
27.06579,425.81,504.98
27.08638,427.22,504.99
27.10605,427.26,507.88
27.12678,427.20,507.76
27.14714,426.75,506.54
27.16636,427.15,509.30
27.18668,425.98,510.15
27.20547,428.22,507.55
27.22636,428.08,510.95
27.24587,424.58,509.81
27.26541,425.26,508.77
27.28672,425.52,509.46
27.30623,427.73,510.88
27.32665,426.71,511.16
27.34670,426.35,508.17
27.36521,424.35,508.46
27.38662,425.01,507.70
27.40730,423.41,508.17
27.42721,425.84,508.64
27.44616,424.50,508.04
27.46598,425.43,510.68
27.48674,427.22,508.66
27.50617,429.30,511.11
27.52638,427.98,511.69
27.54624,426.85,511.45
27.56670,427.29,509.26
27.58545,429.14,512.37
27.60646,428.44,511.81
27.62716,429.74,510.24
27.64604,427.89,510.03
27.66559,428.29,510.22
27.68677,430.98,509.98
27.70726,430.79,507.90
27.72705,427.74,509.03
27.74768,429.89,508.34
27.76686,428.38,510.00
27.78695,427.22,509.65
27.80657,427.40,511.35
27.82724,428.59,510.02
27.84931,428.37,508.68
27.86827,430.26,509.34
27.88772,428.62,511.04
27.90840,428.73,511.52
27.92785,430.89,512.12
27.94869,430.39,511.63
27.96738,431.34,510.40
27.98855,428.95,511.67
28.00786,430.59,511.45
28.02904,430.46,514.27
28.04927,431.09,512.03
28.06850,427.74,515.10
28.08833,429.62,513.86
28.10881,429.93,512.93
28.12820,430.81,511.90
28.14744,427.79,515.23
28.16840,427.39,511.36
28.18754,427.21,510.28
28.20843,426.36,513.33
28.22751,426.89,510.99
28.24911,428.17,513.79
28.26889,426.43,513.48
28.28783,426.85,513.73
28.30874,427.52,511.90
28.32728,427.10,511.52
28.34879,427.18,510.89
28.36777,426.10,510.54
28.38830,427.85,513.49
28.40873,426.85,509.43
28.42826,426.85,510.49
28.44789,426.04,511.69
28.46755,427.72,509.40
28.48777,426.46,510.30
28.50926,425.07,510.01
28.52828,429.03,510.82
28.54862,428.91,511.02
28.56913,425.79,509.16
28.58750,425.22,512.71
28.60852,425.85,512.04
28.62872,426.05,511.26
28.64826,426.73,510.87
28.66878,428.92,508.53
28.68742,426.68,508.93
28.70816,427.47,509.57
28.72758,426.35,506.16
28.74836,427.31,510.32
28.76908,425.30,509.99
28.79012,425.39,508.46
28.80952,425.25,510.18
28.82844,424.28,511.86
28.84860,424.06,511.02
28.86880,422.37,512.10
28.88867,422.53,511.95
28.90917,423.14,511.51
28.92851,420.65,510.73
28.94876,422.01,507.94
28.96963,419.98,508.64
28.98956,421.08,507.21
29.00968,421.57,507.71
29.02827,421.69,507.48
29.04882,422.79,508.09
29.06856,428.36,510.97
29.08865,443.88,515.63
29.10869,468.08,525.78
29.12999,494.02,536.62
29.14953,521.57,542.60
29.16842,544.22,550.48
29.19001,560.37,553.06
29.20944,569.69,552.52
29.22863,572.67,548.26
29.24892,574.52,543.58
29.26941,567.15,536.64
29.28943,562.36,527.74
29.30912,554.05,524.74
29.32881,544.33,518.51
29.34922,532.04,513.84
29.36912,520.82,508.88
29.38922,513.42,508.17
29.40909,502.74,504.85
29.42915,491.58,502.78
29.44869,484.42,504.88
29.46857,472.66,505.03
29.48898,467.38,506.63
29.51000,460.94,504.03
29.52894,454.69,503.65
29.54877,449.73,506.45
29.56966,447.18,508.00
29.58959,439.59,507.03
29.60905,439.57,505.98
29.62891,435.65,506.14
29.64990,433.46,508.04
29.66870,427.97,509.57
29.69006,428.27,508.45
29.70917,426.39,509.38
29.72900,424.76,508.79
29.74884,424.16,509.88
29.76987,423.34,506.44
29.78907,423.21,509.95
29.80991,421.65,508.73
29.82917,420.61,507.16
29.84908,421.20,507.22
29.86925,418.13,510.31
29.88954,421.16,508.69
29.90959,418.86,510.07
29.92901,419.97,507.96
29.94894,421.92,507.00
29.96938,422.20,508.17
29.98821,421.40,509.99
30.00929,423.05,509.58
30.02859,417.77,509.74
30.04959,405.23,514.97
30.06994,390.06,519.23
30.08958,371.06,519.76
30.10982,349.39,517.40
30.12845,329.64,513.68
30.14849,307.31,506.14
30.16933,293.75,497.06
30.19019,281.85,485.15
30.20987,274.07,476.64
30.22976,274.28,474.63
30.24861,278.84,471.08
30.26861,290.52,468.30
30.28990,298.97,469.97
30.30916,309.47,469.70
30.32878,321.41,470.01
30.34948,331.26,473.57
30.36922,340.62,476.90
30.38879,348.42,475.86
30.40839,355.36,481.53
30.43000,364.45,483.55
30.45011,371.57,486.57
30.46930,378.17,488.01
30.48849,381.70,487.01
30.50923,387.48,489.40
30.52861,388.83,489.43
30.54941,394.22,491.98
30.57035,395.37,494.17
30.58879,399.22,497.12
30.60855,403.03,496.31
30.62966,402.81,497.73
30.64873,404.73,498.20
30.66861,406.56,502.26
30.68984,410.17,501.89
30.70879,409.50,502.14
30.72992,410.56,501.82
30.74916,411.88,502.58
30.76859,411.47,503.19
30.79004,413.25,506.08
30.80944,412.69,507.60
30.82935,409.64,508.00
30.84835,411.41,507.29
30.86946,413.09,506.68
30.88836,411.12,505.59
30.90897,411.99,508.05
30.92968,412.72,508.49
30.94977,410.90,506.22
30.96907,413.66,507.97
30.98984,413.96,504.12
31.00962,412.15,505.58
31.02893,410.68,505.50
31.04859,411.67,505.81
31.06897,413.19,504.88
31.08969,411.40,502.35
31.10841,410.23,506.18
31.12878,411.63,503.72
31.14952,412.03,506.52
31.16859,411.62,504.38
31.18955,413.23,503.80
31.20971,414.27,507.18
31.22979,411.58,503.61
31.24823,413.39,505.90
31.26928,414.38,506.28
31.28872,412.71,505.31
31.31018,415.04,503.23
31.32875,412.65,504.60
31.34901,413.88,505.77
31.37014,412.06,503.92
31.39002,411.47,504.48
31.41001,410.70,500.26
31.42899,412.66,500.64
31.45011,414.10,502.22
31.46940,414.14,501.99
31.48946,411.10,503.88
31.50941,411.93,503.94
31.52945,410.93,503.46
31.54934,413.19,503.40
31.56889,410.88,503.82
31.58934,412.07,504.04
31.61017,413.67,505.98
31.62980,410.23,507.14
31.64998,413.59,505.23
31.66979,411.96,507.99
31.68922,411.35,507.08
31.70965,412.65,506.14
31.73007,414.23,508.33
31.74831,411.53,505.97
31.76981,414.41,506.60
31.78988,413.47,505.41
31.80934,412.95,507.06
31.82842,412.03,504.30
31.84823,409.25,505.11
31.86936,412.55,503.79
31.88949,408.96,503.95
31.90941,408.78,505.28
31.92923,411.46,504.55
31.94920,409.28,503.71
31.97003,413.30,506.83
31.99014,413.40,503.97
32.00964,413.60,505.66
32.02907,410.72,504.19
32.05010,409.64,503.54
32.06986,407.68,505.63
32.08876,409.43,503.99
32.10934,406.47,507.23
32.12875,407.32,504.15
32.14952,408.89,505.27
32.16966,409.89,506.26
32.18881,407.63,504.21
32.20849,407.57,506.70
32.22865,410.10,504.81
32.24879,409.86,505.76
32.26849,405.76,506.33
32.28869,405.36,506.20
32.31021,408.12,506.33
32.32901,409.94,504.80
32.34794,406.87,508.18
32.36908,409.38,509.00
32.38927,406.51,507.59
32.40929,407.04,507.02
32.42869,406.60,505.08
32.44978,407.25,507.24
32.46912,409.24,507.48
32.48890,410.44,506.75
32.50831,407.45,507.51
32.53007,407.57,506.42
32.55107,410.43,506.14
32.57083,409.91,508.25
32.58984,407.58,508.78
32.61033,409.53,507.24
32.62965,410.95,509.38
32.65035,408.96,507.35
32.66993,407.45,507.52
32.69103,409.27,503.73
32.70923,407.97,506.60
32.72931,406.96,505.79
32.75025,408.76,502.23
32.76967,409.41,501.88
32.78933,410.63,502.78
32.81028,408.23,505.26
32.82971,409.34,503.90
32.84997,408.23,503.18
32.87096,409.19,505.97
32.89101,406.91,502.26
32.91079,409.94,502.35
32.92960,410.41,505.25
32.95056,409.46,504.97
32.97070,408.57,503.02
32.98945,408.83,502.73
33.00956,411.63,499.62
33.03001,423.02,506.01
33.05072,443.39,515.22
33.06993,470.16,528.60
33.08917,493.49,541.31
33.10938,516.35,549.07
33.13099,535.30,551.05
33.15084,547.09,550.35
33.16998,550.05,548.25
33.19024,553.16,540.92
33.21044,546.11,536.17
33.22977,543.28,527.53
33.24941,535.33,522.81
33.26995,526.07,515.64
33.28953,514.25,508.29
33.31080,506.03,505.47
33.32941,496.78,499.47
33.34948,485.35,499.66
33.37117,478.98,498.05
33.38919,467.56,494.70
33.40957,460.76,497.65
33.43035,453.78,496.77
33.45065,449.78,494.98
33.46998,442.87,496.00
33.49009,439.08,497.22
33.50962,434.27,499.68
33.53008,431.85,500.60
33.54981,424.88,501.38
33.56960,424.59,505.92
33.58927,420.61,505.26
33.61038,418.01,504.80
33.63017,419.20,506.01
33.64941,418.84,504.21
33.67013,418.82,507.75
33.68980,415.35,505.72
33.70987,415.58,508.43
33.72948,415.59,505.49
33.74968,411.62,504.14
33.76988,411.57,506.42
33.79070,409.24,505.84
33.80968,407.05,506.29
33.82976,408.36,504.20
33.85038,408.62,505.55
33.87040,408.19,509.26
33.89101,404.37,513.44
33.91093,397.54,528.30
33.93018,388.69,543.25
33.95067,374.31,558.91
33.97021,360.22,565.19
33.98957,343.62,562.96
34.00978,325.35,551.15
34.03080,309.63,529.08
34.05042,292.51,505.28
34.07001,276.01,482.46
34.09060,270.67,463.95
34.10926,266.80,455.34
34.12997,273.93,446.43
34.14978,280.74,444.30
34.17105,288.46,443.85
34.18922,299.66,444.38
34.21078,310.91,446.03
34.22924,318.96,452.21
34.24934,330.90,454.47
34.27001,339.56,458.50
34.28976,344.20,465.55
34.30979,353.57,470.59
34.33073,363.09,474.42
34.34977,368.87,479.73
34.37057,375.28,481.01
34.39070,380.95,484.90
34.40948,383.68,488.97
34.42917,388.56,491.28
34.44986,389.01,492.89
34.47013,395.03,497.60
34.49044,395.90,498.62
34.51071,396.15,500.66
34.52945,400.54,502.23
34.55003,398.35,501.09
34.57049,401.10,501.56
34.59093,401.76,504.98
34.60995,405.00,504.92
34.62998,404.01,504.54
34.64934,405.26,505.00
34.66990,406.73,504.57
34.69073,408.44,504.11
34.70901,410.41,504.98
34.72949,407.53,506.75
34.75046,408.70,504.39
34.77049,408.01,504.19
34.78981,407.94,503.75
34.81062,411.43,507.47
34.83125,411.01,508.21
34.85042,410.82,505.64
34.87058,412.15,504.79
34.89206,412.83,507.56
34.91070,411.91,504.57
34.93044,413.92,506.26
34.95180,414.58,507.43
34.97171,413.79,506.84
34.99071,416.08,504.88
35.01133,413.02,506.82
35.03022,416.10,504.05
35.05085,417.76,504.56
35.07064,417.37,506.71
35.09050,416.87,505.27
35.11183,417.38,503.36
35.13059,416.07,506.77
35.15132,416.72,507.70
35.17185,417.10,504.29
35.19023,413.42,505.37
35.21037,415.21,508.05
35.23114,414.14,507.01
35.25041,416.99,509.96
35.27062,413.91,508.34
35.29088,418.59,509.50
35.31067,416.35,510.25
35.33214,417.52,507.65
35.35118,416.23,508.56
35.37189,415.72,508.64
35.39055,416.89,507.42
35.41076,417.93,506.24
35.43011,416.80,506.92
35.45053,417.73,506.72
35.47151,414.72,506.20
35.49204,414.98,505.49
35.51133,415.05,505.94
35.53117,415.30,505.73
35.55085,412.34,506.99
35.57107,413.51,506.19
35.59164,416.75,505.33
35.61061,415.02,505.39
35.63112,414.77,504.76
35.65166,415.20,507.04
35.67100,414.08,508.56
35.69073,414.82,508.53
35.71196,418.09,508.92
35.73186,416.74,507.45
35.75108,416.38,506.54
35.77060,415.31,510.03
35.79209,416.06,506.68
35.81190,416.55,510.07
35.83109,417.00,509.41
35.85121,417.08,510.94
35.87077,415.55,509.51
35.89139,416.69,510.89
35.91150,417.20,510.61
35.93103,415.51,509.84
35.95129,417.10,509.52
35.97209,416.54,509.56
35.99019,416.51,510.82
36.01115,414.99,510.92
36.03229,418.03,507.66
36.05053,419.27,510.07
36.07173,419.05,509.60
36.09065,418.20,509.60
36.11092,418.04,510.91
36.13035,419.75,507.92
36.15116,420.21,508.13
36.17192,417.37,510.35
36.19210,419.54,507.32
36.21019,420.55,509.71
36.23037,420.10,507.72
36.25175,420.14,508.36
36.27082,420.19,506.63
36.29134,416.64,509.71
36.31044,419.63,508.15
36.33170,417.47,505.46
36.35052,419.60,507.26
36.37155,420.68,506.85
36.39015,421.84,505.21
36.41129,422.10,507.15
36.43197,422.40,508.45
36.45042,419.09,506.73
36.47171,421.12,504.77
36.49179,421.32,504.74
36.51151,417.95,506.44
36.53216,420.12,508.38
36.55057,419.35,505.41
36.57119,421.18,507.04
36.59082,417.85,505.17
36.61048,420.62,505.12
36.63216,422.08,507.61
36.65068,419.04,506.78
36.67166,419.35,508.14
36.69118,421.54,507.49
36.71160,419.68,506.40
36.73013,421.73,509.66
36.75130,427.03,510.81
36.77065,440.39,517.18
36.79121,462.78,529.31
36.81143,491.28,544.39
36.83124,515.22,556.25
36.85044,538.74,563.53
36.87168,557.87,563.80
36.89049,566.29,558.57
36.91035,569.31,553.53
36.93046,570.10,545.58
36.95054,565.25,535.51
36.97105,558.12,531.29
36.99012,549.10,522.19
37.01072,538.83,519.11
37.03007,528.71,511.85
37.05051,519.35,510.68
37.07034,509.04,506.07
37.09104,501.58,505.66
37.11013,490.29,502.19
37.13185,482.42,502.30
37.15124,471.90,502.96
37.17049,465.49,500.84
37.19144,461.10,501.53
37.21179,455.96,504.71
37.23161,451.34,504.69
37.25190,448.23,504.06
37.27031,443.70,505.92
37.29121,441.70,506.38
37.31089,440.19,505.81
37.33022,435.70,506.30
37.35103,433.17,506.85
37.37096,434.33,507.61
37.39028,433.45,505.99
37.41154,429.77,507.74
37.43096,429.47,505.05
37.45097,428.38,506.59
37.47130,427.51,505.87
37.49043,427.26,507.38
37.51106,426.98,505.74
37.53131,424.00,507.30
37.55206,426.67,508.16
37.57093,425.48,507.18
37.59085,423.18,509.16
37.61002,422.24,508.11
37.63128,417.52,509.14
37.65058,404.76,511.15
37.67127,384.52,507.99
37.69134,360.27,499.18
37.71161,337.92,487.43
37.73213,316.04,476.14
37.75048,299.79,469.18
37.77114,286.97,462.38
37.79166,280.57,455.12
37.81037,282.11,455.19
37.83135,291.00,456.40
37.85016,297.04,458.36
37.87100,310.57,464.70
37.89191,320.90,467.32
37.91132,334.64,473.00
37.93072,344.14,478.64
37.95099,352.66,485.12
37.97038,363.65,486.53
37.99160,368.60,492.20
38.01107,378.84,494.30
38.03042,384.61,495.19
38.05120,388.30,500.35
38.07171,396.99,499.70
38.09014,400.48,501.64
38.11199,404.18,504.34
38.13013,407.35,505.71
38.15013,408.80,504.79
38.17077,413.95,504.41
38.19047,415.11,507.65
38.21066,413.34,505.45
38.23055,415.09,507.65
38.25083,415.86,504.74
38.27084,419.14,506.25
38.29006,417.46,506.79
38.31080,419.43,508.27
38.33069,420.29,505.42
38.35051,423.30,506.06
38.37125,420.42,507.19
38.39196,423.11,507.24
38.41133,425.15,508.31
38.43189,425.09,506.47
38.45021,427.35,508.06
38.47115,427.54,506.12
38.49017,424.35,507.74
38.51185,427.86,507.98
38.53074,425.20,508.48
38.55001,427.21,506.16
38.57133,426.43,505.55
38.59062,425.18,506.62
38.61112,424.16,507.83
38.63062,425.53,505.46
38.65195,426.07,506.50
38.67050,428.46,506.41
38.69025,426.24,507.67
38.71068,429.56,507.47
38.73190,429.36,504.14
38.75143,429.88,506.87
38.77105,428.79,505.78
38.79034,426.62,505.66
38.81044,428.12,508.15
38.83011,426.15,507.43
38.85120,425.48,507.37
38.87146,423.34,507.25
38.89161,423.73,507.41
38.91028,424.97,508.10
38.93003,425.44,509.43
38.95092,426.23,509.18
38.97063,427.21,507.72
38.99061,429.23,508.61
39.01116,428.95,508.50
39.03185,427.34,508.09
39.05143,428.07,507.06
39.07084,427.45,507.16
39.09007,427.85,508.55
39.11068,428.13,510.03
39.13048,427.93,507.92
39.15060,428.39,509.52
39.17125,427.59,509.26
39.19094,429.70,508.05
39.21003,428.99,509.64
39.23032,430.78,508.58
39.25118,429.49,508.96
39.27182,427.66,507.44
39.29229,429.45,507.99
39.31263,427.86,511.36
39.33357,426.81,509.99
39.35228,427.13,511.77
39.37246,427.21,510.92
39.39321,431.17,512.80
39.41292,430.94,511.98
39.43251,430.14,514.12
39.45313,431.15,510.87
39.47351,429.19,512.23
39.49204,429.70,513.93
39.51274,431.80,511.90
39.53326,430.51,514.26
39.55381,430.89,511.89
39.57267,430.38,512.67
39.59318,428.43,512.78
39.61286,427.24,512.51
39.63396,427.29,513.77
39.65340,427.80,513.98
39.67304,427.79,513.45
39.69365,429.95,513.45
39.71264,428.50,512.32
39.73274,430.70,512.13
39.75322,427.99,512.77
39.77300,430.58,512.58
39.79360,427.84,511.52
39.81342,426.59,513.16
39.83297,428.88,512.80
39.85241,425.81,513.53
39.87377,426.83,514.23
39.89384,428.60,512.05
39.91309,427.14,512.14
39.93348,428.40,513.32
39.95333,425.21,514.67
39.97372,426.99,513.66
39.99510,428.32,514.20
40.01322,428.19,512.98
40.03475,428.70,512.81
40.05462,428.40,511.47
40.07467,428.91,512.09
40.09323,429.63,511.71
40.11405,427.61,509.33
40.13314,429.97,508.36
40.15455,428.14,510.38
40.17299,427.56,509.33
40.19450,427.20,507.57
40.21483,426.24,509.06
40.23324,427.25,509.64
40.25495,426.48,507.12
40.27439,426.56,509.28
40.29405,425.96,509.39
40.31328,426.34,509.73
40.33327,428.21,508.48
40.35330,424.90,507.52
40.37400,429.70,508.03
40.39310,429.01,511.62
40.41368,431.12,516.12
40.43392,442.75,520.99
40.45338,458.07,531.91
40.47488,480.46,540.54
40.49311,502.87,548.68
40.51480,519.75,551.64
40.53367,535.90,553.57
40.55374,547.93,554.09
40.57303,555.23,551.15
40.59440,556.11,545.38
40.61348,554.69,539.26
40.63361,552.54,533.55
40.65344,546.82,528.82
40.67359,535.81,520.95
40.69476,526.62,514.48
40.71373,518.81,511.28
40.73370,507.66,506.35
40.75473,498.43,507.26
40.77380,490.16,504.64
40.79344,482.76,506.21
40.81369,471.55,504.27
40.83300,467.03,507.43
40.85474,461.43,503.89
40.87475,454.70,504.67
40.89463,447.99,505.14
40.91474,443.59,506.59
40.93410,441.61,504.73
40.95316,438.12,507.83
40.97466,436.29,504.65
40.99399,431.92,505.02
41.01435,430.87,508.45
41.03320,430.57,509.10
41.05389,428.82,509.85
41.07399,428.92,507.93
41.09295,427.48,510.53
41.11323,426.93,507.40
41.13478,425.09,508.67
41.15335,425.25,509.66
41.17485,425.53,509.37
41.19317,424.28,511.53
41.21367,424.66,510.25
41.23377,421.20,507.98
41.25384,424.70,509.17
41.27377,422.00,507.87
41.29318,420.10,510.40
41.31400,421.05,510.22
41.33430,424.26,508.76
41.35414,420.32,511.13
41.37446,419.77,510.12
41.39347,418.83,509.94
41.41412,422.78,511.99
41.43369,420.50,510.72
41.45469,421.45,509.35
41.47400,422.34,512.40
41.49422,420.61,512.05
41.51383,420.71,512.80
41.53495,421.63,509.31
41.55410,420.27,509.87
41.57403,416.63,507.47
41.59340,401.47,503.66
41.61293,384.22,497.65
41.63308,363.47,493.33
41.65321,339.41,485.08
41.67445,316.84,481.44
41.69430,306.09,476.76
41.71448,300.28,475.73
41.73467,300.08,475.30
41.75446,303.76,476.63
41.77434,313.31,478.79
41.79422,320.56,478.91
41.81483,327.90,482.82
41.83449,336.98,486.86
41.85476,344.94,489.59
41.87480,356.03,489.71
41.89472,362.05,492.38
41.91402,370.77,497.77
41.93413,378.68,497.65
41.95421,383.83,500.28
41.97477,389.01,498.83
41.99355,392.91,502.91
42.01591,394.64,500.06
42.03598,397.45,503.40
42.05538,401.15,503.40
42.07690,397.53,504.99
42.09659,401.23,505.66
42.11643,400.66,507.64
42.13772,403.56,507.03
42.15599,404.36,506.72
42.17610,403.20,506.81
42.19671,405.72,506.98
42.21664,404.44,505.15
42.23696,405.25,506.84
42.25828,406.42,507.03
42.27809,403.74,508.64
42.29701,405.26,507.07
42.31788,406.24,507.45
42.33721,407.62,505.52
42.35772,408.47,505.62
42.37834,407.56,506.05
42.39857,407.42,506.49
42.41768,408.31,506.08
42.43775,408.07,506.90
42.45875,411.45,505.93
42.47811,409.40,506.88
42.49835,408.36,504.70
42.51888,408.16,505.06
42.53777,409.80,506.68
42.55741,408.53,504.93
42.57755,407.88,506.66
42.59864,407.43,507.59
42.61839,407.47,508.00
42.63719,406.71,505.35
42.65725,407.49,503.46
42.67832,409.67,505.85
42.69858,408.77,505.38
42.71774,408.82,508.58
42.73852,410.57,504.79
42.75718,408.67,503.52
42.77765,403.95,500.89
42.79683,398.58,500.28
42.81835,395.63,498.63
42.83828,392.77,498.66
42.85721,389.89,497.61
42.87834,388.39,497.25
42.89743,389.39,495.79
42.91735,391.66,496.07
42.93770,393.93,496.50
42.95773,395.74,496.11
42.97841,394.65,496.92
42.99751,395.31,497.32
43.01800,399.05,497.34
43.03878,400.05,498.54
43.05698,397.20,501.17
43.07802,400.89,500.79
43.09852,401.13,502.09
43.11878,405.22,504.73
43.13700,403.33,502.81
43.15850,405.01,502.92
43.17751,407.66,502.44
43.19771,405.74,501.30
43.21809,405.85,503.21
43.23869,407.66,506.09
43.25727,408.91,504.55
43.27695,405.83,502.80
43.29732,409.35,504.39
43.31787,408.41,503.63
43.33697,406.76,506.13
43.35745,409.04,504.89
43.37776,409.57,504.72
43.39752,409.38,503.58
43.41703,407.44,502.74
43.43898,409.11,501.94
43.45743,407.39,504.02
43.47795,408.46,501.79
43.49836,408.41,503.64
43.51821,406.07,502.58
43.53863,407.23,504.90
43.55763,409.31,501.79
43.57693,407.84,503.70
43.59833,407.24,502.23
43.61759,408.41,500.88
43.63885,408.83,502.18
43.65711,410.57,503.31
43.67816,410.45,503.60
43.69874,410.54,503.09
43.71817,410.48,503.50
43.73693,408.70,503.91
43.75864,410.39,503.56
43.77804,407.18,504.03
43.79729,407.32,502.16
43.81748,407.09,505.26
43.83797,409.72,502.94
43.85775,409.78,506.51
43.87783,408.54,503.26
43.89713,409.74,506.43
43.91720,412.13,506.93
43.93852,410.92,504.56
43.95845,408.83,503.31
43.97696,409.83,506.32
43.99753,410.09,504.01
44.01888,413.35,502.85
44.03841,409.04,504.45
44.05822,412.93,505.40
44.07711,411.47,505.93
44.09768,412.22,503.33
44.11723,412.98,503.48
44.13828,409.19,503.20
44.15843,409.95,501.05
44.17792,410.54,505.04
44.19806,407.95,504.16
44.21729,407.72,504.94
44.23719,407.98,502.84
44.25701,411.78,503.76
44.27745,426.66,508.51
44.29744,445.55,516.48
44.31842,468.58,530.46
44.33713,493.75,539.54
44.35875,514.11,548.10
44.37766,528.49,555.04
44.39802,540.89,555.93
44.41812,549.23,557.82
44.43731,547.11,553.73
44.45821,546.85,550.42
44.47778,541.49,542.07
44.49775,534.92,534.75
44.51888,523.67,530.19
44.53768,515.26,522.22
44.55871,507.10,514.78
44.57809,496.85,511.80
44.59717,486.04,508.94
44.61714,480.02,507.86
44.63804,469.73,504.80
44.65799,463.88,505.28
44.67828,457.13,504.52
44.69773,450.81,502.04
44.71724,442.09,502.22
44.73712,440.07,502.90
44.75855,436.32,503.55
44.77840,429.48,505.27
44.79734,426.89,502.98
44.81824,424.40,505.88
44.83843,424.91,506.50
44.85859,424.81,502.84
44.87766,420.49,503.34
44.89818,422.19,503.35
44.91802,418.22,499.60
44.93782,415.06,501.28
44.95742,415.69,503.79
44.97747,412.57,502.43
44.99760,413.18,502.74
45.01833,414.46,502.54
45.03805,413.67,504.43
45.05777,413.89,505.17
45.07801,414.02,504.54
45.09945,413.91,504.89
45.11817,414.48,505.63
45.13884,414.27,505.20
45.15942,414.54,505.66
45.17799,411.73,507.71
45.19817,413.56,506.39
45.21981,413.94,508.74
45.23938,411.89,509.10
45.25957,411.32,506.25
45.27884,403.28,506.28
45.29786,394.18,498.09
45.31851,381.33,497.78
45.33943,361.13,490.74
45.36003,339.63,488.25
45.37875,317.41,479.78
45.39937,299.88,477.28
45.41960,284.23,472.21
45.43930,278.76,470.04
45.45856,276.48,470.31
45.47914,281.31,471.65
45.49911,287.10,472.72
45.51837,296.03,474.91
45.53933,307.10,477.75
45.55900,314.97,480.95
45.57878,327.20,483.43
45.59786,338.03,487.70
45.61978,345.28,489.18
45.63858,351.41,491.68
45.65857,363.63,492.95
45.67836,367.95,497.13
45.69786,373.71,496.19
45.71938,379.57,497.08
45.73857,386.36,500.30
45.75902,389.52,499.37
45.77859,393.56,499.45
45.79828,397.65,501.09
45.81865,400.77,504.69
45.83966,401.87,502.12
45.85829,405.06,503.80
45.87990,404.26,503.29
45.89832,407.41,505.36
45.91809,409.37,505.15
45.93784,408.49,503.77
45.95903,409.48,505.40
45.97826,411.86,506.28
45.99915,410.89,505.31
46.01913,413.01,504.89
46.03867,413.16,506.27
46.05825,412.42,503.34
46.07970,414.11,504.45
46.09793,413.39,506.31
46.11954,416.68,504.43
46.13878,413.58,506.06
46.15862,414.36,504.56
46.17969,413.95,503.69
46.19956,415.02,504.30
46.21857,416.01,506.34
46.23771,418.12,503.87
46.25788,417.26,506.26
46.27823,418.70,503.74
46.29861,417.32,502.10
46.31857,419.13,504.36
46.33969,417.29,505.99
46.35948,415.14,504.32
46.37910,418.44,504.78
46.39798,418.65,504.14
46.41789,415.44,503.97
46.43910,414.94,507.78
46.45819,416.26,507.50
46.47814,417.37,505.19
46.49831,415.34,508.22
46.51883,418.56,505.61
46.53875,415.40,506.13
46.55850,417.52,505.59
46.57893,416.29,508.03
46.59807,418.45,506.57
46.61855,420.24,507.35
46.63783,416.26,505.85
46.65897,419.23,505.72
46.67887,415.25,505.75
46.69888,417.12,504.21
46.71956,415.47,506.61
46.73967,417.32,504.74
46.75869,417.42,504.82
46.77844,415.90,508.32
46.79883,416.78,507.79
46.81820,416.55,505.15
46.83878,419.06,508.05
46.85947,417.38,507.48
46.87891,420.43,509.05
46.89963,419.79,508.85
46.91988,420.22,508.43
46.93969,418.87,509.73
46.95911,419.74,508.76
46.97951,418.52,508.60
46.99947,417.99,509.29
47.01867,418.30,509.53
47.03824,420.42,508.95
47.05877,417.95,510.50
47.07842,417.22,508.45
47.09851,420.76,510.84
47.11822,417.67,509.73
47.13935,417.82,511.79
47.15937,419.24,511.50
47.17802,415.39,501.56
47.19873,408.72,492.82
47.21798,404.02,482.42
47.23883,401.53,475.20
47.25841,397.79,469.45
47.27779,398.36,467.39
47.29961,399.00,470.21
47.31842,399.64,471.61
47.33944,398.27,469.59
47.35782,401.35,475.18
47.37830,401.83,476.18
47.39926,404.44,479.52
47.41802,407.55,484.42
47.43782,409.24,484.91
47.45858,409.20,488.48
47.47911,411.69,492.73
47.49876,412.55,495.34
47.51880,413.71,498.95
47.53985,415.54,505.26
47.55793,416.71,510.41
47.57926,421.48,525.30
47.59883,430.08,543.19
47.61876,434.42,564.66
47.63897,444.71,584.56
47.65941,449.89,601.28
