Program Time [s],data 0,data 1
77.96426,438.14,534.27
77.98404,436.80,535.89
78.00243,438.55,534.88
78.02393,438.86,538.37
78.04379,436.93,538.25
78.06374,436.84,543.56
78.08317,435.29,541.06
78.10309,437.94,548.53
78.12364,447.97,555.77
78.14340,453.70,566.85
78.16317,458.43,591.66
78.18324,462.35,619.17
78.20427,462.14,643.50
78.22426,450.13,642.30
78.24272,444.20,635.44
78.26308,439.17,614.24
78.28235,435.32,590.33
78.30260,427.47,566.00
78.32330,428.49,544.81
78.34258,425.80,528.73
78.36405,426.50,513.82
78.38325,425.10,510.27
78.40318,428.53,506.15
78.42371,431.68,510.03
78.44299,428.37,528.56
78.46226,428.63,553.06
78.48302,435.85,599.01
78.50367,430.55,639.38
78.52302,433.96,658.61
78.54321,421.14,679.46
78.56264,428.03,686.62
78.58293,423.89,688.52
78.60346,428.88,677.19
78.62390,429.05,652.08
78.64287,431.26,620.40
78.66311,434.58,582.33
78.68318,438.81,547.02
78.70250,440.87,515.54
78.72333,442.00,492.41
78.74234,443.30,473.39
78.76315,447.08,457.41
78.78245,449.50,448.27
78.80338,447.13,439.81
78.82326,445.88,435.87
78.84321,443.17,435.81
78.86315,444.10,436.55
78.88280,441.63,441.71
78.90327,438.04,447.14
78.92291,440.29,453.05
78.94229,435.73,457.61
78.96287,438.86,464.58
78.98380,436.60,469.33
79.00269,440.39,474.14
79.02387,440.16,478.99
79.04337,437.13,484.83
79.06370,438.98,487.38
79.08259,440.53,494.79
79.10311,440.50,499.28
79.12398,437.63,510.40
79.14398,440.17,512.60
79.16297,436.19,519.40
79.18333,435.71,525.95
79.20376,435.42,528.21
79.22350,434.59,533.57
79.24252,435.92,534.35
79.26349,436.34,533.89
79.28367,432.30,533.29
79.30318,432.77,534.83
79.32247,434.13,538.05
79.34314,436.52,538.05
79.36271,435.80,536.55
79.38248,436.88,535.55
79.40320,440.49,534.96
79.42371,439.12,536.98
79.44490,439.28,536.76
79.46500,440.88,536.48
79.48425,442.26,536.54
79.50500,440.09,537.42
79.52479,438.31,534.49
79.54433,439.44,538.41
79.56372,439.18,538.01
79.58419,437.75,539.10
79.60489,436.61,536.48
79.62474,437.64,536.76
79.64476,436.06,539.69
79.66354,436.72,538.71
79.68611,437.80,538.16
79.70572,438.44,538.63
79.72574,436.90,537.32
79.74439,435.93,535.06
79.76527,434.78,534.15
79.78511,434.95,532.26
79.80482,435.42,529.96
79.82421,433.38,530.17
79.84608,431.61,531.32
79.86515,434.31,526.29
79.88534,430.11,526.48
79.90457,435.67,529.11
79.92444,441.17,530.03
79.94524,443.71,528.94
79.96524,447.09,526.66
79.98596,449.37,527.42
80.00445,448.07,525.63
80.02448,443.89,526.25
80.04505,444.67,527.50
80.06445,444.87,530.79
80.08461,442.85,528.38
80.10445,444.23,529.69
80.12540,441.70,527.36
80.14479,439.16,527.85
80.16572,443.52,533.98
80.18590,458.35,538.78
80.20600,482.94,553.01
80.22414,511.18,562.68
80.24497,535.31,566.65
80.26523,558.23,564.65
80.28593,569.85,561.04
80.30455,576.05,554.53
80.32560,581.02,545.27
80.34464,576.44,536.57
80.36410,568.87,526.44
80.38467,561.26,521.73
80.40557,549.67,516.96
80.42441,541.23,513.01
80.44629,530.60,515.28
80.46681,522.82,512.90
80.48787,512.04,511.14
80.50809,502.40,510.60
80.52879,494.98,510.16
80.54841,484.35,509.83
80.56780,478.10,512.59
80.58789,471.57,513.07
80.60801,467.47,512.95
80.62843,459.78,515.63
80.64890,456.83,515.22
80.66897,450.93,518.82
80.68796,451.31,519.98
80.70790,444.87,521.48
80.72853,442.39,522.99
80.74741,440.93,524.56
80.76745,439.72,524.52
80.78844,437.49,526.47
80.80799,438.48,526.33
80.82849,434.12,530.17
80.84758,433.70,529.43
80.86758,434.07,532.56
80.88796,432.50,531.15
80.90782,431.97,533.74
80.92799,431.05,531.86
80.94801,427.82,532.88
80.96853,428.88,534.66
80.98796,429.27,533.79
81.00720,429.36,532.70
81.02763,426.15,536.53
81.04792,427.89,537.28
81.06770,427.42,540.10
81.08865,425.18,545.09
81.10787,411.98,549.64
81.12906,395.62,555.61
81.14736,373.81,561.56
81.16822,347.64,561.12
81.18845,318.98,556.02
81.20733,297.67,546.80
81.22906,275.61,535.82
81.24911,268.76,529.55
81.26861,263.91,524.39
81.28824,271.27,519.48
81.30856,278.25,517.38
81.32809,290.03,516.95
81.34754,305.24,518.03
81.36907,314.55,515.56
81.38869,328.42,516.92
81.40825,338.03,517.54
81.42796,347.71,518.66
81.44779,358.67,521.55
81.46859,369.28,523.56
81.48810,375.92,521.40
81.50878,384.49,525.38
81.52906,390.37,526.06
81.54762,396.55,527.01
81.56882,404.32,525.30
81.58832,406.94,527.13
81.60823,411.33,527.18
81.62820,412.95,528.80
81.64830,416.18,529.98
81.66801,415.05,530.03
81.68870,418.99,529.16
81.70843,421.63,529.98
81.72736,421.50,528.20
81.74791,420.79,527.92
81.76778,424.47,529.11
81.78752,424.96,525.74
81.81004,423.76,528.20
81.82874,424.31,528.15
81.84891,426.80,528.03
81.86887,424.34,528.84
81.88920,425.37,528.19
81.90867,423.42,529.10
81.92832,425.11,528.47
81.94843,423.69,528.12
81.96837,425.27,530.36
81.99005,426.34,528.75
82.00849,427.57,530.08
82.02921,425.20,528.75
82.04912,428.11,526.87
82.06907,427.37,527.12
82.08865,428.00,527.48
82.10845,429.37,528.55
82.12946,427.49,526.81
82.14968,428.99,528.41
82.16876,430.72,530.39
82.18972,427.93,528.80
82.20868,431.24,526.20
82.22947,429.98,523.91
82.25002,430.56,523.06
82.26915,432.65,522.95
82.29024,429.34,521.65
82.30962,430.84,522.62
82.32900,432.59,523.15
82.34981,429.91,520.77
82.36935,433.68,522.79
82.38927,432.20,524.00
82.40928,429.70,525.85
82.42902,429.11,526.24
82.44879,429.15,525.84
82.46872,429.22,527.23
82.49004,430.28,527.02
82.50925,431.51,526.04
82.52935,431.67,528.27
82.54986,429.56,525.79
82.56980,433.09,530.21
82.59038,432.63,530.80
82.61174,431.62,531.80
82.63210,432.85,533.72
82.65096,434.11,530.33
82.67162,435.44,531.69
82.69014,436.21,533.45
82.71053,435.43,529.64
82.73196,436.82,531.91
82.75026,437.29,530.05
82.77186,438.26,533.16
82.79120,436.38,533.74
82.81021,439.19,533.15
82.83161,438.07,534.14
82.85116,438.75,535.91
82.87025,445.98,546.36
82.89121,465.09,563.12
82.91103,495.70,587.80
82.93045,528.73,602.52
82.95076,556.90,615.60
82.97083,583.12,615.44
82.99203,596.54,608.54
83.01081,605.06,598.97
83.03095,606.41,584.26
83.05065,602.46,566.42
83.07075,592.89,557.83
83.09028,583.73,543.17
83.11095,574.64,535.13
83.13053,559.26,522.89
83.15117,547.29,513.88
83.17069,536.16,509.93
83.19028,526.31,504.96
83.21062,517.57,501.82
83.23041,506.93,500.46
83.25040,496.75,500.87
83.27075,488.24,504.35
83.29178,483.57,507.75
83.31193,477.65,510.29
83.33113,474.18,516.88
83.35141,468.13,518.41
83.37111,466.95,521.57
83.39132,460.22,524.26
83.41073,457.65,523.42
83.43283,455.50,525.93
83.45194,455.03,525.76
83.47237,453.61,528.99
83.49179,451.28,526.78
83.51146,448.54,532.54
83.53262,451.15,529.88
83.55315,449.47,532.43
83.57246,449.55,530.96
83.59238,450.10,531.42
83.61310,448.29,535.05
83.63276,447.65,535.00
83.65291,448.10,532.52
83.67223,446.95,533.22
83.69133,445.86,533.75
83.71211,447.33,535.43
83.73186,445.67,537.52
83.75196,445.56,537.39
83.77198,445.54,534.96
83.79291,450.01,535.83
83.81278,443.15,539.24
83.83183,430.93,544.07
83.85227,415.64,549.91
83.87213,391.80,559.43
83.89222,369.04,556.67
83.91162,344.77,553.51
83.93195,321.13,545.88
83.95236,305.90,536.05
83.97272,295.00,524.20
83.99193,292.90,518.29
84.01167,295.68,511.58
84.03118,301.08,505.94
84.05185,312.70,503.30
84.07167,323.01,499.77
84.09216,335.83,497.81
84.11292,346.56,498.91
84.13138,359.59,498.83
84.15224,368.94,501.38
84.17133,378.75,501.16
84.19297,385.26,501.04
84.21187,392.96,502.33
84.23286,403.18,506.88
84.25299,406.72,509.15
84.27229,413.34,508.29
84.29120,416.26,513.62
84.31244,421.25,515.31
84.33156,427.63,514.98
84.35215,428.61,515.31
84.37311,433.23,514.98
84.39138,433.64,513.96
84.41232,435.01,514.96
84.43278,436.06,517.11
84.45193,439.76,517.72
84.47229,442.13,518.46
84.49163,440.39,518.51
84.51195,440.10,521.07
84.53282,441.65,523.18
84.55276,441.96,523.01
84.57193,441.90,523.03
84.59187,445.21,524.34
84.61194,443.52,522.87
84.63180,444.59,525.53
84.65279,447.30,528.90
84.67202,445.87,527.56
84.69214,444.84,530.39
84.71203,444.00,531.30
84.73336,443.65,531.45
84.75385,446.18,530.84
84.77247,443.72,533.29
84.79352,444.99,532.45
84.81351,447.34,532.41
84.83320,446.20,528.91
84.85277,447.49,529.77
84.87321,446.15,527.94
84.89248,444.34,530.85
84.91320,445.88,533.38
84.93370,444.78,532.80
84.95370,446.95,531.20
84.97347,443.61,534.12
84.99343,442.18,533.33
85.01269,442.11,537.84
85.03294,445.54,534.13
85.05271,446.15,536.30
85.07221,446.11,537.28
85.09350,446.62,536.69
85.11418,446.62,535.00
85.13227,444.94,535.89
85.15306,448.01,535.84
85.17323,447.65,537.50
85.19344,445.97,536.91
85.21224,446.40,533.68
85.23285,449.06,532.81
85.25281,447.34,532.79
85.27215,444.75,534.13
85.29406,446.72,535.38
85.31328,444.41,537.09
85.33390,442.29,536.63
85.35450,445.05,533.74
85.37349,441.90,533.76
85.39418,445.64,533.67
85.41441,444.75,533.62
85.43494,442.35,534.20
85.45505,442.18,533.23
85.47473,440.69,534.13
85.49490,443.13,533.54
85.51367,441.11,535.72
85.53415,443.24,535.45
85.55520,442.52,533.96
85.57415,441.72,532.80
85.59335,441.90,533.21
85.61435,441.37,530.96
85.63347,443.21,533.50
85.65428,443.41,533.52
85.67360,440.70,537.48
85.69453,442.65,537.62
85.71364,441.19,540.12
85.73378,442.51,537.93
85.75403,440.44,537.80
85.77351,439.04,539.19
85.79455,442.65,538.49
85.81329,442.44,539.25
85.83314,442.54,539.87
85.85353,440.03,538.37
85.87360,442.23,541.35
85.89402,445.54,545.52
85.91417,466.70,550.63
85.93473,492.85,559.89
85.95451,518.96,567.39
85.97391,539.46,573.43
85.99418,556.14,574.31
86.01409,569.04,571.16
86.03478,576.02,563.56
86.05336,582.83,562.23
86.07429,583.43,556.13
86.09395,578.16,550.98
86.11468,571.09,545.87
86.13449,565.63,542.40
86.15380,557.33,539.31
86.17439,547.17,536.28
86.19405,541.19,531.78
86.21427,529.22,529.41
86.23399,522.34,528.07
86.25331,509.57,528.12
86.27481,504.48,526.11
86.29495,494.17,526.61
86.31382,490.45,528.02
86.33529,482.46,528.86
86.35459,478.40,529.73
86.37442,475.02,530.48
86.39431,469.29,532.09
86.41341,463.99,530.98
86.43486,460.45,532.54
86.45421,455.20,533.70
86.47362,455.88,535.00
86.49383,451.62,531.65
86.51506,451.51,535.04
86.53313,448.37,533.94
86.55455,447.73,532.93
86.57467,445.91,535.89
86.59339,447.26,534.24
86.61510,443.46,535.21
86.63484,442.85,537.15
86.65446,443.64,534.73
86.67431,441.18,533.06
86.69478,443.05,534.93
86.71395,442.81,531.54
86.73375,440.39,532.07
86.75491,438.62,535.90
86.77372,440.76,533.22
86.79496,439.78,536.34
86.81454,441.06,535.21
86.83340,440.63,534.06
86.85447,438.99,534.64
86.87325,425.79,538.13
86.89497,407.08,537.85
86.91356,382.20,538.40
86.93425,357.55,534.24
86.95335,333.11,525.76
86.97442,315.27,517.85
86.99506,305.20,509.06
87.01366,305.14,503.20
87.03396,307.51,500.24
87.05494,313.27,500.99
87.07517,319.51,498.87
87.09593,330.86,503.02
87.11515,342.66,505.57
87.13541,352.53,509.17
87.15568,363.35,511.44
87.17436,368.55,515.58
87.19454,377.08,516.10
87.21564,384.06,517.73
87.23672,390.81,522.13
87.25646,396.01,523.65
87.27709,400.21,526.46
87.29568,403.93,529.78
87.31502,410.15,531.14
87.33632,414.34,532.82
87.35695,414.26,534.00
87.37674,420.09,533.46
87.39591,421.27,533.62
87.41519,424.79,530.39
87.43540,424.69,530.19
87.45605,428.30,529.08
87.47537,426.51,531.13
87.49708,423.63,527.95
87.51657,416.84,526.56
87.53627,413.10,524.39
87.55667,412.06,520.75
87.57662,412.36,523.82
87.59565,412.53,522.81
87.61583,411.33,519.28
87.63532,412.52,523.09
87.65585,414.42,522.61
87.67579,419.07,521.13
87.69576,417.65,522.03
87.71602,419.27,524.09
87.73616,422.25,524.14
87.75571,420.96,525.30
87.77536,424.97,526.42
87.79570,423.87,524.66
87.81525,423.70,524.69
87.83531,426.06,524.85
87.85561,425.21,525.71
87.87647,426.67,526.04
87.89535,426.58,528.71
87.91620,428.61,529.67
87.93518,428.82,529.98
87.95523,423.74,532.89
87.97583,413.06,538.85
87.99653,407.14,537.39
88.01665,403.50,538.82
88.03564,403.01,540.65
88.05674,403.56,540.78
88.07677,404.41,543.16
88.09625,406.84,540.72
88.11560,408.89,541.38
88.13632,410.56,539.00
88.15512,411.46,537.62
88.17573,411.36,537.92
88.19616,413.26,535.83
88.21664,417.88,535.89
88.23642,417.18,536.72
88.25604,418.41,534.96
88.27660,417.13,537.38
88.29598,420.74,535.02
88.31683,422.21,536.32
88.33602,422.43,534.95
88.35626,423.54,535.50
88.37624,424.97,534.16
88.39687,425.24,532.09
88.41504,423.80,533.87
88.43616,423.77,532.34
88.45614,424.27,532.69
88.47572,429.66,532.21
88.49737,430.13,530.97
88.51693,429.32,529.33
88.53632,428.87,533.77
88.55757,429.44,534.13
88.57798,426.37,533.61
88.59761,429.92,530.97
88.61727,430.07,533.59
88.63786,431.42,531.79
88.65806,428.52,532.28
88.67656,429.46,533.73
88.69719,431.88,535.03
88.71680,431.00,534.14
88.73751,428.19,532.22
88.75769,428.46,533.20
88.77782,429.05,531.35
88.79734,429.67,528.30
88.81633,428.52,528.04
88.83803,427.69,527.76
88.85877,428.93,526.92
88.87719,430.22,527.22
88.89871,430.55,523.79
88.91817,430.43,526.50
88.93965,429.15,523.78
88.95836,430.34,526.77
88.97803,427.75,526.97
88.99957,427.69,523.30
89.02093,428.68,523.54
89.04210,431.33,523.36
89.06058,429.21,521.90
89.08133,430.87,522.40
89.10138,438.49,528.87
89.12163,459.77,536.63
89.14199,484.92,549.54
89.16071,515.37,563.39
89.18055,541.12,571.47
89.20068,563.47,575.57
89.22109,581.46,579.32
89.24056,590.20,576.58
89.26181,596.22,571.46
89.27996,597.67,568.60
89.30033,595.71,557.99
89.32279,589.18,549.78
89.34155,579.11,545.82
89.36269,570.25,539.40
89.38282,558.75,533.47
89.40381,549.09,529.64
89.42251,536.97,528.54
89.44351,527.72,525.74
89.46364,515.71,525.48
89.48191,506.12,522.26
89.50374,499.97,523.21
89.52240,488.67,523.00
89.54226,482.21,524.17
89.56396,477.18,526.02
89.58195,472.08,524.97
89.60375,469.47,525.23
89.62220,465.40,525.26
89.64395,463.81,526.74
89.66319,459.62,526.97
89.68303,455.58,526.31
89.70358,456.90,528.15
89.72222,452.17,528.88
89.74351,449.53,530.65
89.76296,450.54,531.01
89.78417,445.87,531.73
89.80329,447.56,529.78
89.82384,444.39,529.56
89.84236,442.95,531.89
89.86357,446.33,529.29
89.88326,445.12,527.67
89.90306,445.29,526.88
89.92379,445.97,525.58
89.94252,435.68,529.50
89.96238,417.78,531.37
89.98389,392.37,528.47
90.00306,363.87,525.68
90.02365,337.02,521.10
90.04314,312.21,516.76
90.06246,290.08,508.06
90.08353,271.66,506.51
90.10380,266.65,499.95
90.12334,272.50,502.86
90.14187,279.25,501.53
90.16218,291.32,505.05
90.18374,305.02,504.96
90.20365,316.84,507.09
90.22351,331.70,512.64
90.24242,342.22,514.40
90.26202,357.96,519.83
90.28238,366.10,523.34
90.30249,378.43,524.57
90.32215,389.66,526.52
90.34266,395.74,527.62
90.36321,403.82,525.47
90.38353,407.36,525.25
90.40407,414.31,527.54
90.42370,419.17,525.87
90.44404,421.62,524.44
90.46245,426.13,526.60
90.48396,427.39,527.33
90.50321,430.63,526.98
90.52363,432.58,529.10
90.54282,437.19,530.70
90.56333,435.00,527.87
90.58217,439.11,528.13
90.60192,439.57,531.29
90.62244,441.52,528.91
90.64302,441.71,530.99
90.66401,441.98,531.74
90.68218,443.22,529.82
90.70266,441.78,533.61
90.72346,441.34,532.34
90.74348,445.22,533.74
90.76268,444.85,536.02
90.78348,444.11,533.79
90.80377,446.41,532.46
90.82258,444.96,532.05
90.84257,444.78,533.46
90.86238,445.18,535.62
90.88283,444.11,531.47
90.90402,445.24,534.47
90.92304,445.05,532.61
90.94371,446.03,534.02
90.96418,444.92,534.28
90.98471,443.02,533.56
91.00308,441.41,532.05
91.02457,440.55,533.58
91.04442,441.49,533.82
91.06326,448.25,536.03
91.08478,448.53,534.57
91.10402,449.43,534.00
91.12354,452.77,534.60
91.14410,452.54,533.07
91.16374,450.98,533.92
91.18400,453.10,534.52
91.20440,453.38,534.35
91.22365,451.01,532.64
91.24365,449.68,535.70
91.26308,448.76,535.22
91.28333,451.64,532.13
91.30285,448.81,532.18
91.32357,446.99,534.65
91.34374,445.45,534.61
91.36467,444.98,533.55
91.38359,445.29,535.41
91.40346,442.93,532.03
91.42405,446.12,532.32
91.44431,445.11,532.96
91.46475,443.45,530.85
91.48383,446.33,533.06
91.50423,444.27,530.22
91.52424,442.10,533.36
91.54398,441.85,531.42
91.56411,442.77,530.78
91.58362,438.46,529.71
91.60484,438.12,533.91
91.62465,439.58,532.07
91.64420,442.02,534.08
91.66309,441.51,534.56
91.68307,440.85,532.90
91.70480,440.72,532.45
91.72427,442.23,536.41
91.74419,439.71,535.50
91.76386,437.91,532.16
91.78469,438.54,533.83
91.80329,441.19,534.55
91.82448,443.82,533.30
91.84319,441.91,532.74
91.86520,443.53,532.50
91.88492,441.90,530.72
91.90348,441.66,531.38
91.92457,439.00,530.73
91.94396,437.81,530.54
91.96389,439.70,530.46
91.98459,441.66,530.03
92.00420,438.54,531.15
92.02322,437.39,527.88
92.04341,440.05,530.28
92.06390,437.85,529.62
92.08392,437.33,526.75
92.10426,439.13,530.53
92.12534,437.40,531.31
92.14521,445.96,536.55
92.16380,459.68,544.37
92.18434,475.69,553.21
92.20524,500.41,566.73
92.22463,526.76,572.76
92.24526,549.11,577.53
92.26527,569.73,575.03
92.28439,582.28,573.88
92.30523,589.40,566.77
92.32697,591.26,558.57
92.34505,589.28,554.81
92.36495,588.15,546.28
92.38608,577.62,541.82
92.40599,569.14,534.83
92.42530,559.98,529.45
92.44590,552.04,528.05
92.46590,538.32,528.80
92.48600,527.39,530.90
92.50631,518.46,528.85
92.52541,509.09,529.85
92.54545,498.26,528.84
92.56682,493.11,530.00
92.58630,485.72,529.39
92.60632,477.36,527.67
92.62652,469.59,529.20
92.64527,465.35,527.19
92.66540,460.91,527.96
92.68660,457.05,530.49
92.70647,451.97,527.97
92.72680,449.03,529.27
92.74562,448.14,530.62
92.76590,444.96,534.53
92.78625,443.69,534.54
92.80522,444.71,533.66
92.82552,444.15,535.95
92.84674,444.29,535.45
92.86495,443.39,537.20
92.88630,440.46,539.93
92.90543,440.01,537.05
92.92537,440.87,536.25
92.94601,440.42,536.57
92.96710,436.25,535.18
92.98623,434.31,536.92
93.00674,433.60,536.78
93.02634,436.89,538.43
93.04747,434.69,538.94
93.06814,433.62,539.10
93.08643,435.69,537.76
93.10762,431.42,539.87
93.12738,433.44,536.67
93.14708,425.33,537.76
93.16767,414.18,532.89
93.18768,392.60,528.23
93.20625,365.00,523.66
93.22631,340.27,517.09
93.24743,311.96,512.58
93.26661,288.32,505.88
93.28711,273.00,500.10
93.30583,266.76,495.78
93.32704,269.50,493.40
93.34648,272.85,495.87
93.36629,284.05,495.83
93.38644,295.79,497.68
93.40643,308.64,502.03
93.42601,321.45,506.21
93.44599,330.89,507.98
93.46594,344.61,512.09
93.48595,354.79,512.71
93.50594,365.74,515.04
93.52759,371.53,517.51
93.54624,381.47,519.05
93.56738,388.02,519.61
93.58662,395.32,522.79
93.60633,400.65,524.77
93.62717,403.34,524.93
93.64680,407.63,523.75
93.66710,409.39,526.76
93.68689,415.57,525.59
93.70608,418.74,526.84
93.72763,418.72,528.40
93.74760,419.03,527.54
93.76600,423.03,528.23
93.78702,421.37,529.28
93.80780,422.56,530.25
93.82584,423.14,529.04
93.84581,425.32,529.01
93.86659,424.31,531.42
93.88758,425.85,528.62
93.90771,426.90,530.54
93.92720,425.67,531.56
93.94743,428.27,531.94
93.96692,427.47,532.52
93.98656,429.27,532.37
94.00753,427.25,532.26
94.02643,427.27,532.41
94.04746,428.02,533.66
94.06592,428.51,534.09
94.08788,429.25,535.49
94.10786,430.12,532.91
94.12717,429.19,536.83
94.14748,428.40,536.73
94.16705,429.33,534.14
94.18638,429.01,534.73
94.20710,428.79,532.88
94.22735,430.30,532.09
94.24603,428.30,532.36
94.26591,430.20,532.30
94.28773,429.41,532.43
94.30774,432.53,528.56
94.32780,430.41,530.77
94.34718,432.88,528.12
94.36714,430.43,530.70
94.38683,431.82,529.63
94.40768,429.85,529.04
94.42765,430.58,532.02
94.44796,429.72,528.00
94.46786,429.67,530.86
94.48717,428.16,531.41
94.50644,429.64,531.16
94.52668,428.37,530.08
94.54758,426.76,529.41
94.56666,427.07,529.38
94.58616,430.87,528.64
94.60622,428.50,529.69
94.62731,431.17,528.41
94.64772,428.88,529.38
94.66688,427.12,528.19
94.68598,427.06,528.65
94.70699,428.86,528.91
94.72607,428.35,531.90
94.74680,427.07,530.49
94.76715,425.88,530.76
94.78665,425.90,528.77
94.80696,427.40,528.24
94.82615,425.73,526.85
94.84643,425.93,527.86
94.86729,424.91,525.09
94.88714,428.96,525.42
94.90720,430.18,524.62
94.92763,428.43,528.55
94.94657,427.03,526.51
94.96729,429.89,526.79
94.98777,428.46,530.12
95.00744,431.22,527.81
95.02778,430.86,531.79
95.04705,440.58,535.52
95.06608,457.97,550.07
95.08592,485.14,561.03
95.10601,509.96,573.24
95.12597,537.67,582.19
95.14666,556.00,584.06
95.16602,571.47,583.63
95.18799,577.51,578.16
95.20741,581.79,571.02
95.22788,583.45,562.05
95.24598,578.70,557.45
95.26740,573.56,549.71
95.28774,567.91,541.67
95.30986,555.54,539.17
95.32944,544.60,535.24
95.34808,534.96,529.90
95.36964,522.29,526.02
95.38890,512.02,525.45
95.40879,502.81,526.22
95.42865,495.03,524.22
95.44952,490.27,522.92
95.46841,481.41,525.82
95.48935,473.85,526.36
95.50857,469.94,522.98
95.52897,463.72,523.71
95.54809,458.59,525.45
95.56942,456.34,526.23
95.58856,450.29,526.48
95.60873,449.55,526.30
95.62963,447.38,528.94
95.64843,443.14,527.66
95.66798,441.10,530.39
95.68824,439.07,530.60
95.70811,439.38,531.92
95.72888,439.85,531.03
95.74965,440.37,529.10
95.76980,437.83,528.09
95.78803,436.33,532.24
95.80824,434.54,531.14
95.82925,435.15,528.08
95.84843,433.27,529.53
95.86892,433.69,530.30
95.88936,430.62,530.14
95.90936,432.01,528.88
95.92810,430.29,530.81
95.94821,428.80,531.62
95.96920,431.98,529.82
95.98820,429.18,531.11
96.00856,431.27,531.67
96.02909,431.40,532.63
96.04956,431.00,533.54
96.06988,432.63,532.78
96.08836,432.16,530.69
96.10921,424.33,532.51
96.12909,415.67,530.53
96.14803,399.76,532.58
96.16831,375.73,527.37
96.18929,354.59,522.80
96.20946,331.50,514.25
96.22904,307.77,504.68
96.24958,286.95,494.48
96.26877,272.90,488.96
96.28944,267.56,480.32
96.30929,270.45,479.98
96.32815,277.25,482.96
96.34828,288.85,480.36
96.36813,299.40,486.52
96.38982,312.00,490.32
96.40932,326.20,493.38
96.42897,337.41,499.35
96.44838,350.97,504.27
96.46776,358.26,506.06
96.48877,369.96,509.87
96.50782,378.82,514.95
96.52829,387.20,515.84
96.54931,395.36,519.13
96.56857,399.27,520.27
96.58791,404.12,522.48
96.60798,411.00,523.38
96.62797,414.40,525.38
96.64865,417.95,526.92
96.66810,422.33,527.53
96.68972,421.59,529.96
96.70929,427.06,528.21
96.72915,426.98,529.20
96.74950,427.81,529.20
96.76989,428.54,531.80
96.78898,428.28,532.84
96.80901,428.30,532.59
96.82882,431.58,533.06
96.84953,431.26,534.64
96.86785,433.54,531.28
96.88819,434.07,531.32
96.90892,431.70,531.99
96.92929,432.44,527.57
96.94866,430.95,529.81
96.96863,434.30,529.30
96.98921,435.62,531.82
97.00904,432.87,531.91
97.02947,430.80,529.64
97.04839,432.07,532.84
97.06959,432.44,532.02
97.08836,434.04,532.03
97.10988,435.81,531.21
97.12822,435.78,533.43
97.14796,432.35,532.73
97.16801,435.49,532.60
97.18815,433.81,532.57
97.20785,434.11,532.19
97.22908,436.52,530.92
97.24967,435.76,531.93
97.26855,438.72,533.88
97.28941,439.17,530.64
97.30823,437.54,530.96
97.32932,438.69,531.04
97.34997,442.48,530.86
97.37003,439.63,534.32
97.38908,442.52,532.44
97.40890,442.05,531.44
97.43008,443.36,534.09
97.45003,441.28,531.26
97.47007,442.94,531.39
97.48991,442.35,534.14
97.51017,442.34,530.54
97.52979,441.43,533.66
97.54974,441.46,533.06
97.57055,441.41,532.17
97.58871,440.30,534.35
97.60980,439.20,533.98
97.62981,441.66,532.86
97.64976,439.68,532.01
97.66975,440.55,535.02
97.68929,439.04,533.99
97.71126,441.69,533.76
97.73060,443.90,535.04
97.75011,442.15,535.22
97.77113,444.99,536.00
97.79087,447.09,533.66
97.81076,444.44,532.86
97.83131,446.54,530.97
97.85076,444.29,530.28
97.87091,445.40,530.10
97.89094,444.05,528.54
97.91083,446.84,530.97
97.93129,446.48,529.32
97.95018,445.64,530.96
97.97149,447.62,531.68
97.99110,449.26,530.87
98.01068,445.07,529.26
98.02989,444.77,533.63
98.05134,444.44,530.22
98.07111,443.27,531.03
98.09106,443.23,533.26
98.11108,443.32,530.28
98.13119,444.07,533.30
98.15027,445.03,531.55
98.17110,445.13,532.94
98.19011,445.19,532.92
98.21063,444.91,533.80
98.23059,446.80,534.42
98.25160,445.36,531.27
98.27035,445.19,533.19
98.29022,447.20,532.66
98.31070,445.28,534.59
98.33093,445.22,533.21
98.35025,453.38,539.09
98.37150,473.36,550.21
98.39144,498.20,566.55
98.41013,530.74,585.57
98.43091,558.99,591.80
98.45077,583.10,595.83
98.47062,597.23,589.99
98.49047,609.42,582.22
98.51004,609.29,572.56
98.53047,610.65,563.15
98.54991,604.45,552.84
98.57105,595.91,543.24
98.59173,582.46,539.31
98.61037,570.64,532.61
98.63105,558.80,531.11
98.65133,548.88,529.04
98.67110,537.91,527.93
98.69016,525.40,528.38
98.71086,517.89,529.98
98.73060,508.36,531.28
98.75155,499.82,529.99
98.77094,492.63,533.82
98.79157,484.04,534.41
98.81140,478.52,534.89
98.83048,474.94,537.66
98.85054,470.14,536.05
98.87179,465.68,536.96
98.89004,463.35,536.80
98.91124,460.54,538.40
98.93020,460.99,535.34
98.94995,457.40,539.02
98.97138,455.44,536.02
98.99059,455.16,537.63
99.00986,452.83,536.87
99.03155,451.15,537.20
99.05143,448.37,536.10
99.06982,449.36,534.96
99.09065,450.53,534.49
99.11109,449.62,537.27
99.13144,449.38,536.63
99.14995,444.53,534.77
99.17036,439.75,537.94
99.19139,423.00,537.51
99.21119,400.16,537.12
99.23083,373.32,529.48
99.25152,346.96,524.35
99.27142,318.02,514.33
99.29060,295.98,508.20
99.31131,280.77,502.17
99.32999,276.79,497.25
99.35154,276.86,498.04
99.37059,282.76,500.47
99.39179,295.21,498.86
99.40982,307.26,504.79
99.43086,323.15,507.82
99.45147,334.15,509.87
99.47114,346.99,515.00
99.49076,356.61,517.72
99.51180,368.15,518.70
99.53058,376.39,521.35
99.55083,384.70,520.95
99.57155,394.03,525.21
99.59037,401.29,525.37
99.61149,406.38,528.24
99.62984,412.39,529.12
99.65126,416.96,529.84
99.67054,421.66,531.85
99.69062,425.18,533.77
99.71090,423.46,530.17
99.73001,428.92,531.79
99.75056,428.54,533.81
99.77060,433.16,530.93
99.79104,434.22,532.44
99.80994,438.90,531.50
99.83121,440.10,530.01
99.85042,437.56,533.20
99.87083,439.09,533.76
99.89133,438.82,533.49
99.91055,442.26,533.71
99.93103,440.56,535.31
99.95043,440.80,533.53
99.97045,441.82,536.61
99.99007,440.39,533.64
100.01151,439.60,535.64
100.03163,441.30,537.24
100.05034,441.73,537.39
100.07158,440.11,535.58
100.09197,439.24,535.12
100.11135,438.83,535.67
100.13112,441.70,535.28
100.15102,438.87,533.34
100.17111,440.52,534.97
100.19029,438.58,533.30
100.21113,440.62,533.85
100.23096,442.18,531.92
100.25009,442.02,533.56
100.27151,440.92,531.23
100.29181,443.78,532.68
100.31101,442.21,532.42
100.33117,445.07,533.39
100.35138,444.71,532.37
100.37135,441.05,533.49
100.39129,442.03,531.66
100.41015,441.25,530.08
100.43197,442.24,530.07
100.45141,440.95,532.22
100.47184,440.08,530.38
100.49102,443.42,533.66
100.51133,442.83,532.57
100.53205,441.33,535.09
100.55110,443.93,531.58
100.57137,440.57,534.30
100.59251,440.01,533.44
100.61236,440.89,531.74
100.63372,438.52,530.49
100.65298,439.63,532.31
100.67205,437.13,532.00
100.69329,436.45,532.82
100.71386,436.48,531.92
100.73310,436.16,529.54
100.75209,439.42,529.80
100.77270,438.62,533.61
100.79244,438.77,530.65
100.81367,439.02,534.40
100.83282,437.57,532.16
100.85300,437.88,532.69
100.87270,436.91,535.18
100.89220,436.96,534.64
100.91246,436.37,533.09
100.93281,437.98,529.71
100.95300,434.33,532.51
100.97362,435.88,529.98
100.99328,434.98,529.15
101.01229,436.51,529.66
101.03232,434.49,526.94
101.05327,439.10,532.81
101.07335,457.81,538.10
101.09250,481.04,549.86
101.11361,506.04,562.98
101.13385,532.56,572.93
101.15207,558.68,577.98
101.17285,572.78,576.30
101.19304,584.52,572.13
101.21243,590.05,568.75
101.23201,589.63,561.91
101.25214,587.27,558.04
101.27284,582.71,549.17
101.29353,574.66,540.17
101.31267,565.01,534.87
101.33380,557.98,529.27
101.35369,544.97,524.53
101.37241,535.98,525.43
101.39284,527.54,523.53
101.41325,517.36,520.26
101.43326,507.19,519.29
101.45368,499.57,522.20
101.47254,489.78,521.69
101.49247,483.05,522.50
101.51260,476.15,523.95
101.53327,469.88,523.58
101.55272,462.44,527.70
101.57229,458.79,527.83
101.59245,454.68,528.32
101.61217,449.48,531.05
101.63249,450.53,533.09
101.65306,447.04,531.27
101.67314,441.74,533.37
101.69369,440.45,533.96
101.71236,442.46,532.98
101.73213,438.74,536.25
101.75282,437.63,534.06
101.77344,435.17,534.68
101.79272,436.57,534.15
101.81221,435.31,535.93
101.83308,432.45,536.84
101.85246,424.90,542.35
101.87285,406.12,547.78
101.89267,384.80,550.06
101.91333,363.23,554.12
101.93317,339.20,551.44
101.95223,317.05,546.18
101.97238,295.21,537.18
101.99384,283.24,527.51
102.01380,277.13,519.70
102.03287,278.54,514.21
102.05203,283.47,510.36
102.07202,291.68,507.55
102.09295,304.31,510.85
102.11243,314.07,507.30
102.13203,325.85,507.45
102.15206,334.38,508.89
102.17279,348.12,510.56
102.19372,357.61,512.08
102.21376,367.70,515.77
102.23343,376.10,514.38
102.25233,383.22,517.10
102.27271,389.74,519.55
102.29393,395.59,520.28
102.31319,403.81,521.32
102.33315,406.18,522.63
102.35220,405.14,522.56
102.37384,403.91,516.59
102.39366,403.64,510.02
102.41245,405.11,509.84
102.43237,407.43,506.69
102.45353,409.07,507.82
102.47340,411.02,506.60
102.49223,411.99,506.71
102.51293,414.11,512.06
102.53208,417.88,512.20
102.55249,420.18,512.73
102.57304,422.30,513.72
102.59288,424.47,515.37
102.61344,421.99,518.64
102.63372,426.12,522.35
102.65349,426.11,524.61
102.67296,424.76,524.66
102.69347,426.33,524.94
102.71275,425.30,525.30
102.73209,425.01,525.13
102.75204,424.84,526.69
102.77296,429.73,525.44
102.79390,429.14,526.75
102.81378,429.78,527.30
102.83327,427.92,528.62
102.85401,427.12,526.01
102.87319,426.47,525.98
102.89452,426.92,524.86
102.91387,426.21,526.91
102.93413,423.80,525.60
102.95411,427.44,525.25
102.97340,427.89,528.25
102.99447,425.43,527.71
103.01319,426.54,525.03
103.03488,428.93,525.32
103.05454,429.53,528.70
103.07476,429.80,526.65
103.09439,430.17,529.55
103.11394,427.94,527.41
103.13482,428.87,528.08
103.15417,429.89,526.00
103.17393,430.98,527.00
103.19495,430.80,526.88
103.21315,429.63,528.97
103.23404,431.82,530.71
103.25315,427.48,527.73
103.27416,429.77,531.44
103.29493,429.41,528.66
103.31477,430.47,532.22
103.33425,431.99,529.41
103.35359,430.18,528.50
103.37388,429.95,527.24
103.39394,428.90,530.85
103.41411,432.12,530.88
103.43488,429.91,528.75
103.45410,431.15,527.65
103.47499,430.64,529.15
103.49435,429.96,526.27
103.51492,432.30,525.67
103.53455,430.96,525.20
103.55332,429.49,522.61
103.57465,427.51,524.22
103.59468,442.92,530.44
103.61477,460.25,541.04
103.63397,485.88,551.11
103.65344,514.36,562.60
103.67478,540.32,570.22
103.69451,558.77,571.10
103.71483,572.21,575.47
103.73482,577.31,573.56
103.75379,579.33,571.52
103.77367,579.69,567.16
103.79343,577.09,561.78
103.81388,568.89,555.25
103.83450,559.39,550.11
103.85434,552.59,545.82
103.87366,541.16,543.60
103.89395,530.79,539.62
103.91499,519.42,537.84
103.93349,509.70,533.28
103.95438,500.36,536.01
103.97435,488.41,533.41
103.99388,480.82,532.08
104.01390,471.93,532.59
104.03319,467.60,531.49
104.05445,461.66,533.04
104.07433,460.71,532.33
104.09459,453.68,533.54
104.11434,451.31,532.22
104.13496,446.54,530.60
104.15322,445.15,531.97
104.17417,443.27,532.38
104.19446,439.93,530.78
104.21438,440.49,530.84
104.23349,439.29,533.32
104.25212,437.89,534.26
104.27375,435.41,534.72
104.29324,435.32,533.37
104.31486,434.81,529.95
104.33336,433.91,530.51
104.35370,433.37,530.05
104.37484,434.53,531.41
104.39467,436.42,531.40
104.41391,432.86,530.14
104.43473,434.39,529.83
104.45465,430.52,532.67
104.47486,433.86,530.07
104.49460,432.57,531.00
104.51467,429.47,531.14
104.53438,433.00,532.14
104.55239,430.26,529.38
104.57397,431.59,531.40
104.59333,430.20,529.67
104.61302,432.53,530.48
104.63484,430.83,531.89
104.65399,415.58,534.16
104.67435,396.46,540.09
104.69378,368.75,536.85
104.71448,344.61,531.81
104.73432,324.04,525.77
104.75353,303.53,516.06
104.77341,286.63,508.72
104.79347,276.39,502.42
104.81403,277.04,496.36
104.83467,282.75,494.18
104.85438,290.80,493.23
104.87355,302.40,496.93
104.89333,313.33,496.02
104.91438,325.98,498.11
104.93421,335.35,499.19
104.95416,346.17,501.56
104.97437,358.54,504.61
104.99409,364.80,503.93
105.01490,376.09,505.77
105.03446,383.59,509.93
105.05374,391.44,509.33
105.07490,397.47,511.23
105.09323,400.82,515.78
105.11360,407.07,517.99
105.13488,409.62,516.64
105.15439,414.35,519.33
105.17339,415.60,521.20
105.19447,420.65,524.33
105.21496,418.00,525.58
105.23466,421.43,526.38
105.25323,422.18,529.97
105.27379,425.90,532.85
105.29336,425.47,536.60
105.31442,429.14,541.34
105.33413,428.66,540.48
105.35491,429.45,541.84
105.37328,427.74,541.45
105.39352,429.60,542.90
105.41309,431.27,540.01
105.43431,429.79,539.05
105.45417,431.46,538.40
105.47419,433.16,539.74
105.49435,432.97,537.56
105.51477,432.38,537.60
105.53537,435.02,537.63
105.55412,435.49,535.42
105.57582,433.57,534.10
105.59454,435.19,536.53
105.61493,435.62,534.41
105.63412,435.59,534.85
105.65553,434.26,536.70
105.67438,434.91,535.27
105.69367,438.59,534.78
105.71494,438.09,533.34
105.73482,438.38,533.07
105.75516,439.51,529.97
105.77512,437.31,530.26
105.79442,436.39,530.37
105.81420,437.54,528.94
105.83606,436.44,530.61
105.85685,438.88,529.46
105.87651,436.61,529.20
105.89619,435.57,532.40
105.91577,439.71,532.43
105.93547,437.45,534.26
105.95662,438.33,533.40
105.97608,441.57,531.79
105.99639,441.64,533.79
106.01605,442.65,532.42
106.03552,443.13,532.06
106.05552,441.10,533.63
106.07508,442.48,531.01
106.09582,440.78,532.19
106.11699,441.73,530.41
106.13547,441.80,531.62
106.15576,445.03,533.69
106.17658,442.25,534.81
106.19550,443.20,530.40
106.21509,442.52,531.52
106.23674,440.77,530.74
106.25618,442.42,529.95
106.27551,440.28,529.53
106.29626,438.73,532.07
106.31448,439.26,532.43
106.33685,442.01,532.57
106.35585,439.59,531.00
106.37615,442.09,532.44
106.39665,442.09,531.78
106.41502,439.88,533.26
106.43733,443.78,532.66
106.45726,442.40,534.74
106.47747,443.36,535.23
106.49630,444.49,532.74
106.51713,443.64,532.18
106.53700,444.40,532.03
106.55767,444.02,533.50
106.57889,444.92,531.09
106.59710,443.16,533.39
106.61769,444.38,531.23
106.63855,444.89,533.81
106.65719,445.58,532.19
106.67718,442.27,531.23
106.69696,443.41,531.54
106.71804,445.46,530.31
106.73724,446.24,530.98
106.75802,444.00,533.50
106.77710,444.61,532.37
106.79754,448.25,533.45
106.81805,464.15,539.03
106.83824,492.59,553.97
106.85875,525.47,567.04
106.87857,554.81,575.61
106.89681,578.49,581.02
106.91816,595.20,585.20
106.93704,605.56,579.36
106.95900,606.79,576.00
106.97753,605.43,571.47
106.99686,599.09,562.35
107.01768,594.38,552.63
107.03823,581.73,545.91
107.05719,570.45,542.68
107.07783,559.14,536.96
107.09743,547.37,533.16
107.11801,538.29,526.09
107.13719,525.32,527.31
107.15752,516.51,523.16
107.17889,506.77,522.62
107.19732,499.61,526.88
107.21888,491.03,527.41
107.23880,483.35,529.03
107.25759,479.30,528.41
107.27759,470.94,528.34
107.29772,467.01,530.54
107.31854,464.00,529.06
107.33713,464.01,530.39
107.35727,459.67,533.21
107.37809,458.89,532.60
107.39604,454.83,534.38
107.41752,453.75,535.92
107.43797,452.25,536.49
107.45845,453.40,533.88
107.47834,451.94,534.32
107.49714,451.25,535.58
107.51853,450.13,536.66
107.53714,449.10,536.53
107.55719,445.82,536.56
107.57790,448.82,533.61
107.59656,448.23,536.12
107.61887,444.92,533.86
107.63759,444.39,533.13
107.65979,444.40,536.07
107.67929,446.11,535.53
107.69802,446.19,535.45
107.71932,445.16,534.37
107.73982,440.97,537.41
107.75943,430.06,538.65
107.77882,417.64,543.07
107.79794,403.48,543.50
107.81914,378.83,537.62
107.83960,349.15,530.24
107.85925,321.58,519.58
107.87830,298.98,502.49
107.89855,278.48,489.13
107.91995,266.40,481.57
107.93898,268.43,479.74
107.95953,274.31,475.91
107.97813,283.35,475.19
107.99773,296.89,478.13
108.01850,307.85,487.62
108.03885,324.46,497.84
108.05868,335.12,501.84
108.07964,347.96,510.51
108.09889,358.48,514.94
108.11923,366.87,519.89
108.14008,376.29,523.09
108.16096,386.10,526.38
108.17929,392.31,528.24
108.20093,398.88,529.83
108.21996,405.34,532.45
108.23928,411.82,535.43
108.26019,416.88,538.32
108.28061,421.07,538.42
108.29935,421.98,536.86
108.32023,425.20,534.56
108.34061,425.82,536.25
108.35925,429.11,537.32
108.37911,430.97,538.22
108.40065,431.41,536.09
108.41959,430.63,534.74
108.44095,431.71,534.30
108.45989,434.65,534.23
108.48022,434.96,533.41
108.49987,435.13,536.24
108.51922,434.98,535.71
108.53913,438.66,534.92
108.55954,435.83,532.37
108.57918,436.86,532.42
108.59961,437.69,531.82
108.62051,436.67,532.63
108.64000,439.44,529.56
108.66093,438.17,531.49
108.67901,437.17,530.09
108.70064,438.44,530.04
108.71931,438.54,530.60
108.74010,436.18,529.85
108.75956,437.58,530.31
108.77921,435.07,530.70
108.79858,438.09,529.82
108.81952,437.19,530.85
108.84065,437.85,531.70
108.86009,436.41,531.10
108.88003,435.89,531.07
108.90020,434.17,532.63
108.92140,432.42,531.01
108.94193,432.60,530.99
108.96072,432.75,531.79
108.98020,433.37,530.62
109.00041,432.72,532.30
109.02038,431.48,532.90
109.04144,433.87,533.78
109.06033,434.54,530.84
109.08027,433.98,532.97
109.10187,433.40,531.88
109.12048,434.87,531.57
109.14137,432.97,531.81
109.16192,433.40,531.52
109.18024,434.12,530.55
109.20033,434.11,531.68
109.22171,430.04,532.24
109.24090,430.63,531.46
109.26032,432.11,533.07
109.28159,431.19,530.60
109.30099,431.30,533.01
109.32147,435.14,533.10
109.34031,433.13,532.38
109.36067,432.47,532.77
109.38074,433.73,533.82
109.40107,431.71,531.51
109.42132,435.12,533.62
109.44192,450.91,542.22
109.46139,473.59,553.47
109.48107,502.37,569.34
109.50093,531.63,579.55
109.52106,556.25,586.20
109.54049,574.23,586.06
109.56089,586.07,586.88
109.58190,594.42,578.19
109.59986,598.24,570.87
109.62053,595.71,566.11
109.64016,589.02,556.91
109.66189,580.82,551.75
109.68041,571.89,545.50
109.70097,558.18,541.61
109.72121,547.08,537.14
109.74151,538.65,533.67
109.76128,528.55,531.50
109.77927,515.87,528.29
109.80162,504.96,525.85
109.82186,498.34,527.14
109.84145,490.05,527.28
109.85916,480.43,529.15
109.88081,471.64,527.62
109.90009,467.23,529.90
109.92023,459.94,531.85
109.93969,457.12,531.89
109.95931,453.36,529.09
109.98066,449.11,529.85
110.00193,445.56,530.31
110.01950,443.35,528.72
110.03987,440.68,532.61
110.06060,440.77,533.12
110.08055,439.25,533.11
110.09937,437.47,532.05
110.12025,434.20,531.50
110.14127,433.81,531.64
110.16024,433.92,531.63
110.17925,434.16,532.27
110.20126,430.37,535.81
110.22105,430.69,535.32
110.24089,432.22,531.73
110.26175,432.02,534.31
110.28024,430.42,534.93
110.30165,431.65,532.79
110.32071,428.54,533.49
110.34069,426.22,532.81
110.36057,430.52,533.11
110.38116,424.83,535.42
110.40001,409.37,541.30
110.42043,388.45,538.96
110.44124,361.94,537.54
110.46100,328.93,530.49
110.47977,302.25,523.36
110.50122,282.03,515.94
110.52022,263.26,505.69
110.54133,257.70,500.67
110.56097,258.97,500.19
110.58021,264.84,499.10
110.60123,274.33,497.66
110.62067,288.64,497.26
110.64180,301.83,502.86
110.66028,312.05,504.25
110.68075,326.06,505.67
110.70107,336.90,509.34
110.72176,349.97,513.89
110.74005,359.17,515.90
110.76106,367.09,518.66
110.78097,373.98,520.90
110.80086,382.17,521.24
110.82084,387.93,522.52
110.84170,392.32,524.12
110.86206,397.19,525.67
110.88119,402.79,526.01
110.90119,407.40,529.11
110.92109,408.46,530.22
110.94107,412.87,530.65
110.96199,416.36,528.21
110.98244,417.60,527.63
111.00183,417.85,530.80
111.02183,418.43,531.16
111.04264,420.41,533.56
111.06119,423.71,534.00
111.08185,424.00,531.12
111.10183,420.99,528.72
111.12073,422.48,530.67
111.14124,428.17,530.68
111.16241,427.57,528.54
111.18078,428.10,527.64
111.20111,429.83,529.58
111.22164,427.90,529.86
111.24205,426.87,530.28
111.26244,428.67,525.40
111.28116,429.17,526.81
111.30290,430.44,523.01
111.32142,430.50,521.54
111.34167,430.11,525.63
111.36171,429.30,522.19
111.38033,429.29,522.80
111.40264,427.07,525.62
111.42209,426.05,526.04
111.44200,427.32,524.28
111.46249,428.47,527.28
111.48109,428.63,525.33
111.50193,428.37,527.40
111.52159,427.45,528.06
111.54173,427.45,529.21
111.56278,428.77,529.33
111.58283,429.02,529.42
111.60138,431.48,527.67
111.62284,430.94,530.80
111.64138,427.22,530.09
111.66145,427.23,530.27
111.68116,425.91,527.38
111.70148,428.74,527.81
111.72125,427.16,528.78
111.74203,428.50,528.48
111.76263,430.43,528.61
111.78134,431.06,528.96
111.80156,432.66,530.01
111.82036,428.95,528.67
111.84141,430.27,529.09
111.86286,430.65,529.84
111.88108,429.17,527.79
111.90198,432.18,529.39
111.92114,429.10,530.64
111.94173,429.78,531.19
111.96209,428.35,529.34
111.98104,430.09,530.64
112.00252,428.93,531.67
112.02222,431.36,528.66
112.04263,431.45,529.37
112.06078,434.89,530.69
112.08206,436.15,530.36
112.10268,436.93,530.42
112.12142,433.16,531.16
112.14098,433.46,532.74
112.16166,433.47,533.80
112.18187,433.68,531.63
112.20110,432.27,531.29
112.22242,434.45,535.08
112.24208,434.54,533.99
112.26045,434.32,534.82
112.28082,433.53,531.82
112.30187,431.59,534.37
112.32105,431.89,530.76
112.34201,431.55,533.75
112.36294,433.51,533.59
112.38286,430.67,529.65
112.40018,431.25,532.51
112.42008,432.26,528.91
112.44271,429.38,528.47
112.46141,431.85,528.61
112.48073,431.24,528.45
112.50153,430.34,529.90
112.52262,432.14,529.40
112.54142,431.86,528.87
112.56064,428.82,532.59
112.58156,427.44,533.07
112.60123,428.12,531.98
112.62162,430.11,528.98
112.64132,427.81,529.68
112.66280,428.27,529.76
112.68063,431.42,531.61
112.70072,432.45,533.13
112.72120,443.52,537.71
112.74289,461.42,546.13
112.76178,485.75,554.87
112.78150,507.74,566.00
112.80019,531.56,569.24
112.82006,546.74,571.39
112.84124,558.58,569.38
112.86158,566.71,565.11
112.88010,571.55,559.67
112.90274,573.20,553.82
112.92144,570.76,546.12
112.94244,565.65,539.97
112.96022,562.22,533.13
112.98190,554.53,531.90
113.00125,543.94,527.02
113.02028,535.78,526.91
113.04158,526.30,525.48
113.06176,515.83,521.19
113.08221,507.33,521.84
113.10105,498.66,523.37
113.12282,492.71,525.50
113.14309,482.08,524.74
113.16368,479.37,527.65
113.18189,471.57,526.68
113.20340,466.74,528.65
113.22241,466.00,529.21
113.24283,460.56,530.48
113.26251,456.67,529.05
113.28267,452.97,529.77
113.30141,454.02,532.36
113.32104,449.60,534.67
113.34163,447.37,533.07
113.36334,445.52,533.47
113.38555,443.46,534.83
113.40202,442.19,532.87
113.42177,444.11,535.32
113.44277,440.84,531.87
113.46155,439.82,534.06
113.48143,437.75,531.31
113.50267,439.13,529.43
113.52188,439.12,524.73
113.54245,438.90,526.02
113.56246,438.29,521.23
113.58107,438.52,522.30
113.60177,439.05,520.29
113.62212,438.10,520.44
113.64201,435.97,527.83
113.66275,437.82,530.49
113.68271,435.14,533.55
113.70389,435.98,537.36
113.72222,436.11,538.64
113.74252,437.97,540.71
113.76285,435.35,537.61
113.78260,435.39,540.32
113.80270,432.10,538.47
113.82248,423.15,540.25
113.84186,405.18,539.70
113.86263,384.11,538.96
113.88274,358.83,535.60
113.90220,331.25,530.47
113.92218,308.07,523.37
113.94275,292.93,518.17
113.96256,282.93,514.41
113.98280,276.86,509.66
114.00271,283.01,507.86
114.02356,289.37,508.07
114.04427,301.96,508.73
114.06470,310.35,510.84
114.08369,324.59,509.53
114.10288,336.20,512.94
114.12488,349.15,515.40
114.14328,359.03,514.77
114.16212,370.67,517.27
114.18402,380.50,517.34
114.20396,388.99,519.49
114.22331,395.48,521.64
114.24301,401.62,524.22
114.26332,407.16,524.62
114.28476,412.03,526.61
114.30311,418.50,528.25
114.32491,423.37,525.51
114.34538,427.10,529.80
114.36362,429.24,527.54
114.38424,431.49,528.73
114.40472,434.15,527.69
114.42335,435.95,530.08
114.44330,434.75,528.90
114.46496,436.42,526.31
114.48385,438.79,525.47
114.50562,439.35,527.81
114.52547,442.36,527.50
114.54496,440.65,526.29
114.56327,445.31,527.44
114.58589,446.71,529.49
114.60378,444.11,529.30
114.62422,445.09,532.54
114.64474,447.89,529.84
114.66442,449.78,532.82
114.68591,448.57,534.18
114.70325,447.57,530.45
114.72376,447.33,532.40
114.74328,448.30,530.10
114.76373,445.70,529.47
114.78578,446.08,532.58
114.80415,446.16,532.99
114.82413,448.11,530.67
114.84587,444.78,529.85
114.86344,447.83,531.86
114.88309,447.65,530.82
114.90433,447.09,532.52
114.92359,448.02,532.75
114.94473,447.44,530.60
114.96433,444.38,531.36
114.98491,447.75,531.13
115.00456,447.80,530.33
115.02437,449.73,531.94
115.04446,448.46,534.39
115.06427,446.61,532.85
115.08438,448.49,531.74
115.10356,446.86,534.07
115.12462,446.85,534.99
115.14347,446.98,534.67
115.16481,448.53,534.76
115.18476,450.92,539.97
115.20385,451.64,550.26
115.22408,454.10,564.63
115.24357,455.43,585.99
115.26462,457.31,601.07
115.28431,459.20,616.52
115.30599,459.78,629.76
115.32455,455.37,628.92
115.34373,450.86,617.96
115.36437,443.87,593.01
115.38347,437.41,559.22
115.40339,432.11,527.39
115.42342,427.90,500.03
115.44370,425.40,477.65
115.46430,425.57,462.53
115.48514,423.00,452.12
115.50476,426.60,448.72
115.52495,428.39,444.54
115.54479,430.82,449.67
115.56306,433.04,448.88
115.58379,433.06,453.23
115.60443,435.19,456.46
115.62483,433.01,457.12
115.64347,432.87,460.54
115.66477,434.83,467.08
115.68554,436.13,470.70
115.70465,435.39,476.76
115.72307,436.54,480.74
115.74350,437.67,487.96
115.76302,439.66,495.44
115.78485,437.60,498.80
115.80406,439.04,486.42
115.82448,436.00,469.69
115.84401,434.03,447.35
115.86507,432.12,432.20
