Program Time [s],data 0,data 1
77.96238,345.20,450.95
77.98372,343.67,448.88
78.00406,343.86,451.78
78.02405,345.42,452.38
78.04370,346.20,452.78
78.06288,343.26,455.82
78.08379,339.57,453.34
78.10245,341.86,459.99
78.12266,353.51,465.08
78.14342,356.58,475.97
78.16360,360.33,498.48
78.18342,363.56,519.57
78.20294,365.98,540.50
78.22400,355.36,539.28
78.24427,349.40,531.37
78.26248,344.78,515.11
78.28356,341.57,496.36
78.30426,336.98,476.21
78.32249,336.54,458.92
78.34268,335.01,442.63
78.36307,333.89,432.93
78.38334,334.75,425.81
78.40354,337.45,427.14
78.42236,339.77,427.75
78.44323,337.76,443.83
78.46266,335.38,464.79
78.48353,342.66,503.88
78.50376,340.41,535.34
78.52239,340.62,552.06
78.54306,329.89,567.51
78.56332,334.12,576.56
78.58399,335.98,572.41
78.60224,334.00,564.10
78.62342,336.12,547.41
78.64269,338.15,518.91
78.66300,341.50,486.25
78.68301,346.28,456.84
78.70259,346.86,435.55
78.72344,347.91,416.87
78.74414,348.36,397.61
78.76313,350.15,385.16
78.78388,353.60,378.36
78.80372,352.54,372.17
78.82369,350.01,367.69
78.84331,349.98,367.35
78.86301,346.45,367.26
78.88406,346.91,372.56
78.90336,347.31,374.99
78.92350,344.79,381.58
78.94299,343.71,387.12
78.96342,345.46,391.24
78.98370,344.20,396.65
79.00357,345.12,399.94
79.02395,344.73,404.02
79.04420,346.13,407.69
79.06390,345.95,409.66
79.08372,347.21,417.48
79.10327,346.01,418.85
79.12271,343.71,428.74
79.14316,346.15,431.91
79.16364,343.00,437.93
79.18306,341.57,439.63
79.20300,342.36,443.78
79.22269,342.84,446.97
79.24368,343.33,446.88
79.26382,341.13,448.93
79.28330,340.26,450.62
79.30364,337.95,449.11
79.32373,338.98,451.98
79.34323,343.81,451.48
79.36348,344.26,449.31
79.38397,342.85,449.85
79.40264,345.71,451.70
79.42427,346.99,447.66
79.44470,344.37,448.35
79.46464,348.28,451.15
79.48461,345.56,448.98
79.50427,348.31,450.06
79.52505,345.23,449.31
79.54466,343.82,449.12
79.56376,344.03,450.82
79.58321,343.07,451.08
79.60388,344.84,449.71
79.62368,341.88,452.16
79.64431,344.06,453.12
79.66460,344.66,450.65
79.68453,343.55,451.64
79.70520,342.81,451.54
79.72527,342.59,451.91
79.74603,342.30,450.99
79.76586,343.69,448.34
79.78570,343.29,448.31
79.80514,342.57,444.19
79.82486,339.75,445.82
79.84522,341.67,445.46
79.86474,341.81,441.08
79.88562,337.36,443.72
79.90514,340.66,444.12
79.92557,346.50,444.82
79.94475,350.11,443.41
79.96502,353.02,443.84
79.98437,350.98,439.88
80.00485,351.78,441.32
80.02414,351.49,442.79
80.04610,349.86,444.13
80.06548,350.83,444.65
80.08543,348.88,443.05
80.10617,348.37,444.62
80.12546,348.31,443.98
80.14484,346.46,444.84
80.16551,350.78,448.00
80.18477,359.26,455.07
80.20478,380.13,463.62
80.22554,404.33,470.79
80.24601,425.91,475.35
80.26617,443.25,471.78
80.28561,455.75,471.42
80.30579,460.67,465.15
80.32461,458.70,455.16
80.34465,459.03,450.96
80.36546,453.79,441.54
80.38511,443.59,437.92
80.40414,436.41,434.29
80.42481,428.16,434.25
80.44688,420.62,431.12
80.46626,414.41,432.65
80.48786,405.06,429.18
80.50756,396.02,429.81
80.52763,388.28,430.07
80.54776,382.17,427.48
80.56818,377.23,428.45
80.58751,371.45,428.60
80.60813,369.17,430.69
80.62891,363.83,432.45
80.64899,360.05,435.38
80.66771,354.41,435.35
80.68731,355.09,434.59
80.70764,349.34,435.48
80.72816,347.40,437.53
80.74859,346.67,441.16
80.76768,345.87,441.31
80.78758,342.34,443.38
80.80914,345.25,442.72
80.82823,341.05,446.34
80.84716,340.76,443.18
80.86860,340.59,446.01
80.88859,340.39,446.88
80.90911,340.36,446.20
80.92723,339.29,449.15
80.94899,337.94,447.79
80.96875,336.13,449.56
80.98898,337.44,446.29
81.00780,336.43,445.91
81.02805,334.44,448.81
81.04767,335.89,449.38
81.06748,337.59,453.70
81.08917,333.97,457.25
81.10786,324.30,461.87
81.12767,310.76,466.49
81.14884,291.11,472.27
81.16826,270.53,470.74
81.18803,249.26,464.05
81.20909,226.53,457.12
81.22863,210.98,450.86
81.24745,201.99,443.17
81.26910,203.68,440.79
81.28846,207.17,435.29
81.30761,215.18,435.19
81.32731,224.04,433.53
81.34788,235.05,434.92
81.36839,244.27,433.63
81.38764,252.62,436.29
81.40889,263.60,437.65
81.42796,273.10,437.42
81.44799,279.42,436.72
81.46733,287.39,436.55
81.48855,296.12,440.93
81.50744,299.83,438.15
81.52748,307.07,440.60
81.54765,311.42,442.51
81.56784,317.67,440.60
81.58872,318.69,443.45
81.60854,319.89,445.13
81.62929,324.07,444.53
81.64780,323.38,444.60
81.66813,327.33,446.20
81.68863,329.15,442.64
81.70750,328.45,443.34
81.72770,329.38,444.87
81.74887,329.72,441.78
81.76890,331.08,443.85
81.78890,332.92,442.21
81.80866,334.03,442.03
81.82872,334.95,443.25
81.84999,334.75,440.27
81.87014,332.41,440.41
81.88986,336.38,444.11
81.90959,334.76,440.58
81.93013,333.89,444.46
81.94858,334.92,442.88
81.96838,335.99,445.01
81.98881,336.19,442.38
82.00834,334.75,446.13
82.02998,334.17,441.68
82.04973,334.80,441.40
82.06953,335.98,444.67
82.09009,336.79,442.33
82.10914,338.53,444.88
82.13007,338.35,444.88
82.14897,334.92,445.26
82.17030,335.45,445.51
82.18961,336.09,442.82
82.20967,336.33,440.68
82.22977,337.79,439.10
82.24966,337.02,440.09
82.27021,340.42,436.16
82.28874,337.69,438.58
82.30882,338.95,436.66
82.32969,337.03,438.72
82.34843,338.01,440.31
82.36962,339.14,438.13
82.38992,337.33,439.51
82.40957,337.34,443.02
82.42977,338.66,441.21
82.45002,337.22,442.84
82.46871,336.93,442.92
82.49022,337.18,444.01
82.51011,339.89,441.20
82.52917,336.86,442.65
82.55105,337.18,443.06
82.56963,341.87,444.75
82.59205,339.57,446.80
82.61200,339.53,446.72
82.63154,337.75,445.91
82.65144,339.31,446.22
82.67045,342.07,447.22
82.69138,343.32,444.83
82.71171,341.34,447.23
82.73197,344.10,445.85
82.75078,345.46,446.03
82.77035,345.14,446.10
82.79215,342.28,445.04
82.81027,343.16,446.26
82.83072,345.74,447.73
82.85025,345.41,450.76
82.87022,352.69,457.82
82.89097,365.88,471.80
82.91203,393.43,490.79
82.93206,418.54,505.59
82.95181,443.25,514.73
82.97176,460.68,516.68
82.99049,473.88,508.71
83.01121,479.05,501.50
83.03153,479.98,488.68
83.05161,478.58,478.21
83.07106,470.51,464.38
83.09141,463.73,456.45
83.11098,454.11,448.80
83.13156,446.55,439.57
83.15166,436.94,432.81
83.17040,427.41,428.00
83.19088,417.87,425.10
83.21048,406.83,423.20
83.23089,398.52,421.66
83.25027,394.85,423.39
83.27219,387.98,423.61
83.29087,380.84,426.83
83.31166,377.28,428.07
83.33081,374.37,434.40
83.35016,368.38,434.30
83.37065,366.75,435.69
83.39011,363.66,439.80
83.41153,362.76,440.09
83.43133,359.28,441.29
83.45167,358.03,442.21
83.47291,358.49,440.90
83.49144,353.42,445.52
83.51199,354.35,446.99
83.53250,352.81,446.87
83.55265,352.32,447.93
83.57203,353.71,447.34
83.59210,353.69,447.28
83.61278,351.41,449.32
83.63234,352.19,447.25
83.65225,350.67,449.96
83.67279,353.92,446.93
83.69216,352.00,446.79
83.71146,352.78,449.85
83.73142,351.84,450.56
83.75291,351.60,449.05
83.77139,351.92,448.50
83.79259,353.87,449.24
83.81138,349.76,449.74
83.83242,337.85,455.00
83.85290,324.86,460.96
83.87124,307.57,466.76
83.89178,286.55,469.43
83.91102,269.90,464.18
83.93256,250.33,457.59
83.95183,234.35,449.12
83.97265,224.53,440.00
83.99159,225.01,434.21
84.01163,228.81,428.36
84.03191,233.03,424.75
84.05158,240.13,421.37
84.07122,249.93,419.85
84.09310,262.27,419.95
84.11142,269.87,419.39
84.13231,279.02,417.74
84.15204,287.55,419.38
84.17238,293.37,420.59
84.19232,300.43,421.26
84.21230,308.42,422.35
84.23298,313.38,427.35
84.25139,317.39,424.77
84.27202,323.72,430.17
84.29181,327.09,429.37
84.31243,329.43,433.52
84.33111,336.51,433.27
84.35261,336.13,433.33
84.37250,338.63,431.86
84.39271,340.75,433.40
84.41285,341.70,432.84
84.43140,343.74,431.41
84.45237,342.46,431.72
84.47244,344.53,435.44
84.49235,345.02,437.35
84.51124,345.50,438.37
84.53265,348.17,440.11
84.55176,348.08,438.30
84.57136,348.88,439.64
84.59113,347.13,439.73
84.61211,348.14,439.07
84.63157,351.48,442.69
84.65274,349.64,444.14
84.67145,348.65,442.32
84.69265,349.18,445.66
84.71341,350.28,446.23
84.73256,350.25,447.23
84.75282,348.31,447.63
84.77334,349.58,444.13
84.79377,349.73,446.27
84.81318,348.71,445.16
84.83358,350.49,444.27
84.85254,352.25,443.62
84.87239,351.22,446.36
84.89371,350.62,446.21
84.91232,350.71,447.73
84.93312,352.76,448.50
84.95271,351.76,447.96
84.97408,348.37,447.63
84.99337,349.59,449.06
85.01244,347.95,451.06
85.03308,351.25,450.53
85.05315,349.98,451.29
85.07353,350.10,449.53
85.09246,349.37,450.91
85.11341,350.75,449.64
85.13209,350.13,450.32
85.15266,352.45,450.54
85.17270,352.07,449.04
85.19322,350.85,447.40
85.21351,350.75,449.33
85.23403,351.02,448.12
85.25244,352.67,446.87
85.27243,351.97,447.90
85.29327,350.11,450.43
85.31208,352.13,449.94
85.33358,351.09,450.27
85.35467,350.87,449.31
85.37402,347.71,450.78
85.39417,349.96,449.40
85.41464,349.62,448.90
85.43377,347.00,448.89
85.45439,347.67,448.75
85.47332,347.15,449.92
85.49327,345.67,448.34
85.51369,347.72,448.57
85.53505,348.47,449.76
85.55363,350.41,446.99
85.57486,347.93,449.32
85.59517,349.49,445.62
85.61501,346.46,445.76
85.63386,345.67,446.33
85.65364,346.43,447.90
85.67409,349.48,447.95
85.69459,346.43,450.16
85.71339,345.37,452.66
85.73424,346.37,451.12
85.75434,347.69,453.29
85.77402,344.45,451.61
85.79330,349.21,454.43
85.81403,348.05,454.10
85.83343,346.65,453.09
85.85519,347.00,453.31
85.87418,345.92,455.02
85.89401,352.58,455.60
85.91495,366.14,461.62
85.93340,388.87,468.68
85.95333,407.99,478.08
85.97463,427.00,481.08
85.99353,439.02,481.29
86.01375,450.30,480.04
86.03415,458.00,472.57
86.05468,462.90,470.96
86.07330,462.64,466.52
86.09490,458.93,462.21
86.11390,453.43,457.51
86.13386,448.28,456.69
86.15414,443.21,451.10
86.17404,436.69,449.91
86.19449,429.78,447.50
86.21433,418.04,446.17
86.23401,411.36,444.17
86.25331,402.92,442.37
86.27342,396.75,444.65
86.29417,392.12,444.10
86.31335,384.80,442.50
86.33407,382.17,444.97
86.35517,375.85,442.91
86.37376,371.94,443.51
86.39426,368.58,446.86
86.41527,364.47,446.01
86.43363,362.72,446.50
86.45348,358.86,448.19
86.47418,358.07,448.48
86.49373,358.31,446.89
86.51503,356.94,446.85
86.53392,353.08,447.86
86.55340,353.67,447.89
86.57425,352.17,446.91
86.59415,352.45,449.77
86.61467,349.25,448.78
86.63466,349.73,450.97
86.65392,348.32,447.03
86.67342,348.39,449.73
86.69352,345.88,449.50
86.71330,346.13,446.26
86.73414,345.26,446.30
86.75504,347.84,447.12
86.77517,346.32,449.99
86.79489,346.99,447.72
86.81333,346.85,449.94
86.83386,347.40,449.57
86.85383,344.63,450.83
86.87392,334.98,450.76
86.89469,320.65,452.71
86.91363,300.65,450.26
86.93477,280.07,446.65
86.95485,260.52,440.41
86.97516,244.49,433.19
86.99429,237.62,429.23
87.01378,234.30,423.71
87.03462,238.45,422.56
87.05333,241.90,420.80
87.07513,248.53,420.91
87.09561,257.33,420.64
87.11566,266.10,424.42
87.13523,272.81,425.77
87.15563,282.07,427.80
87.17441,289.50,433.25
87.19573,296.72,434.07
87.21444,301.49,434.47
87.23502,306.00,438.62
87.25718,310.10,437.88
87.27671,315.29,442.02
87.29529,317.25,442.17
87.31622,319.51,443.80
87.33529,324.68,447.46
87.35559,326.02,447.12
87.37679,330.68,445.63
87.39630,329.29,445.97
87.41619,331.82,446.73
87.43553,333.32,447.04
87.45625,336.67,446.91
87.47592,336.04,447.28
87.49643,330.85,445.77
87.51547,326.65,440.09
87.53654,325.75,441.37
87.55637,323.15,439.59
87.57573,321.59,437.78
87.59692,322.33,437.41
87.61666,325.14,439.34
87.63630,323.45,439.57
87.65629,325.18,440.21
87.67533,328.45,440.46
87.69559,328.36,438.31
87.71670,328.94,438.40
87.73630,331.36,437.95
87.75656,331.60,440.53
87.77708,333.05,441.59
87.79540,331.52,442.27
87.81610,335.96,442.95
87.83654,335.49,440.17
87.85520,335.28,442.56
87.87678,334.80,441.37
87.89595,336.73,442.94
87.91647,336.45,445.14
87.93572,336.77,444.74
87.95618,333.24,449.28
87.97695,325.83,451.31
87.99704,321.52,451.25
88.01547,315.75,453.95
88.03702,318.05,454.83
88.05705,315.66,453.93
88.07504,315.72,456.36
88.09584,319.13,455.22
88.11555,319.97,451.53
88.13532,319.81,451.99
88.15653,323.77,450.87
88.17555,322.89,450.04
88.19689,324.05,452.25
88.21650,325.97,450.68
88.23664,328.98,450.12
88.25627,326.13,447.98
88.27631,328.65,448.40
88.29695,328.64,450.76
88.31647,331.03,449.18
88.33540,330.57,450.51
88.35625,331.82,447.09
88.37680,334.60,449.11
88.39553,330.95,446.67
88.41563,334.10,447.88
88.43652,331.37,447.54
88.45662,333.75,447.47
88.47586,334.29,446.18
88.49671,337.91,447.00
88.51626,335.42,446.04
88.53654,335.19,445.87
88.55649,335.26,446.22
88.57700,337.71,445.90
88.59781,338.03,448.16
88.61732,335.56,445.51
88.63729,339.35,444.98
88.65698,336.61,448.67
88.67789,337.93,447.60
88.69658,338.61,447.68
88.71757,338.19,446.98
88.73617,338.10,448.58
88.75717,336.54,445.41
88.77604,336.83,444.58
88.79629,336.88,445.21
88.81688,338.39,442.88
88.83768,337.74,443.49
88.85762,337.20,441.83
88.87894,337.88,440.65
88.89852,338.62,442.34
88.91815,336.54,440.69
88.93884,338.15,439.99
88.95984,338.40,438.93
88.97841,334.19,442.43
88.99933,335.96,439.89
89.02079,335.33,441.64
89.04130,339.08,440.58
89.06204,339.00,440.30
89.08101,338.30,440.20
89.10058,344.03,442.92
89.12099,360.19,451.41
89.14152,383.47,459.29
89.16033,407.05,470.54
89.18149,428.17,477.40
89.20095,449.30,482.31
89.22095,459.84,485.24
89.24162,469.25,481.53
89.26168,474.97,479.01
89.28110,476.58,474.11
89.30107,472.01,467.80
89.32263,467.46,462.25
89.34279,461.93,457.00
89.36233,453.26,449.92
89.38144,442.91,445.26
89.40258,433.46,444.29
89.42330,424.91,443.22
89.44265,419.31,442.58
89.46305,410.94,442.01
89.48278,403.26,438.31
89.50363,392.45,439.57
89.52260,386.26,438.17
89.54212,382.87,442.15
89.56307,378.79,442.30
89.58322,372.66,440.91
89.60225,369.62,442.81
89.62356,367.37,442.04
89.64369,362.77,440.58
89.66259,362.34,443.09
89.68248,360.09,442.73
89.70388,356.98,441.67
89.72353,356.70,446.57
89.74397,356.74,444.75
89.76289,355.69,446.38
89.78399,351.85,445.84
89.80249,350.68,444.40
89.82313,351.60,443.50
89.84404,350.74,443.20
89.86247,350.37,444.41
89.88238,349.91,444.53
89.90233,349.67,442.58
89.92397,351.84,443.99
89.94221,345.42,444.19
89.96239,328.62,444.84
89.98400,308.53,441.91
90.00328,285.75,439.81
90.02253,264.50,437.11
90.04386,243.86,431.31
90.06377,221.94,426.25
90.08215,210.25,423.86
90.10297,204.84,422.88
90.12339,208.48,420.02
90.14347,212.57,420.17
90.16234,223.80,423.71
90.18322,236.03,425.11
90.20346,245.35,426.43
90.22396,257.82,432.75
90.24378,268.20,433.11
90.26363,276.70,436.88
90.28293,287.40,436.60
90.30310,294.67,437.89
90.32390,303.23,440.40
90.34275,309.02,441.85
90.36200,313.34,440.41
90.38270,319.88,439.75
90.40364,325.35,440.63
90.42364,329.60,443.12
90.44390,330.73,441.64
90.46219,335.01,442.95
90.48299,335.42,443.43
90.50345,338.61,444.06
90.52266,342.61,445.65
90.54238,342.46,443.44
90.56235,343.78,444.83
90.58212,343.12,443.70
90.60231,347.02,446.40
90.62371,348.08,445.98
90.64226,346.01,442.87
90.66310,345.80,445.55
90.68266,347.65,445.30
90.70251,349.99,444.59
90.72333,348.06,445.41
90.74388,347.03,448.93
90.76406,348.17,446.55
90.78363,351.62,446.44
90.80206,349.95,447.05
90.82251,352.02,446.80
90.84253,351.39,449.38
90.86226,351.75,449.16
90.88344,350.86,445.73
90.90248,351.20,446.17
90.92485,349.76,448.48
90.94413,350.39,447.36
90.96435,351.31,446.26
90.98419,348.97,446.34
91.00397,346.46,448.34
91.02363,346.83,446.25
91.04458,347.58,448.89
91.06384,351.45,449.80
91.08419,353.79,447.90
91.10480,352.83,448.47
91.12380,355.91,450.82
91.14337,355.98,446.74
91.16338,354.30,447.48
91.18433,355.37,448.19
91.20341,356.32,449.95
91.22388,356.06,447.65
91.24338,357.02,448.04
91.26461,355.69,448.67
91.28411,353.12,445.75
91.30441,351.33,445.61
91.32421,350.56,448.44
91.34459,352.15,448.49
91.36332,352.80,447.79
91.38410,350.00,447.10
91.40419,348.92,446.83
91.42329,350.16,448.87
91.44429,349.62,445.89
91.46394,350.42,446.44
91.48471,349.64,447.46
91.50466,348.69,447.20
91.52381,350.06,445.35
91.54316,348.54,447.22
91.56394,347.24,447.53
91.58499,345.23,446.07
91.60353,347.79,448.28
91.62423,345.65,445.46
91.64443,346.26,448.58
91.66422,346.99,446.91
91.68414,347.50,449.13
91.70377,346.47,449.50
91.72321,348.69,450.42
91.74426,345.54,446.19
91.76304,345.28,447.78
91.78366,346.91,449.10
91.80444,345.84,449.33
91.82455,347.70,446.66
91.84435,349.08,445.55
91.86355,347.34,447.48
91.88358,345.72,445.21
91.90459,348.28,446.79
91.92413,346.18,445.21
91.94332,344.96,445.49
91.96391,345.33,446.45
91.98381,346.58,447.26
92.00422,344.13,444.49
92.02500,346.21,444.77
92.04430,345.74,444.27
92.06438,343.65,443.41
92.08307,346.34,443.42
92.10309,344.74,444.52
92.12437,345.23,445.85
92.14411,347.74,449.46
92.16489,362.22,456.85
92.18566,374.96,464.21
92.20593,395.87,474.50
92.22454,418.11,481.96
92.24590,436.61,484.23
92.26557,450.65,481.12
92.28456,462.34,478.41
92.30542,469.53,475.16
92.32508,472.59,469.08
92.34643,470.36,461.98
92.36537,467.54,459.63
92.38687,461.25,453.44
92.40612,451.56,449.49
92.42655,444.46,444.99
92.44612,434.53,443.68
92.46508,426.28,444.60
92.48650,419.92,445.89
92.50649,412.09,444.09
92.52695,404.60,445.69
92.54696,396.42,445.68
92.56682,386.85,444.63
92.58608,381.93,444.26
92.60583,378.31,443.74
92.62677,370.17,442.95
92.64616,368.38,443.33
92.66666,364.03,445.63
92.68641,360.64,444.13
92.70537,358.94,445.77
92.72573,353.99,445.56
92.74655,353.91,445.33
92.76667,350.78,448.86
92.78593,351.80,449.95
92.80564,348.29,447.46
92.82637,350.19,450.68
92.84662,350.26,449.62
92.86516,347.44,452.07
92.88661,347.32,450.72
92.90609,345.78,450.49
92.92538,345.48,451.74
92.94504,343.96,451.12
92.96580,345.55,449.03
92.98639,342.61,449.50
93.00717,340.85,450.68
93.02733,344.41,451.35
93.04766,341.52,451.29
93.06811,342.38,451.32
93.08690,342.71,451.72
93.10680,338.64,452.44
93.12706,341.48,451.61
93.14669,337.20,451.27
93.16774,322.74,446.97
93.18769,303.75,442.81
93.20621,284.89,440.92
93.22683,264.39,435.90
93.24656,242.70,427.34
93.26745,223.43,425.81
93.28655,210.91,416.95
93.30687,205.48,417.99
93.32652,205.49,416.81
93.34747,210.18,416.98
93.36739,218.24,417.72
93.38773,226.48,418.17
93.40721,237.36,419.35
93.42742,246.57,423.72
93.44594,257.27,426.08
93.46728,268.53,429.42
93.48679,274.58,432.23
93.50616,282.74,432.14
93.52740,289.82,436.35
93.54699,298.36,436.63
93.56777,304.76,438.13
93.58744,310.50,438.87
93.60653,312.34,439.71
93.62646,317.67,441.37
93.64640,320.55,440.18
93.66688,321.06,441.02
93.68655,323.12,442.93
93.70691,325.44,444.17
93.72625,327.32,444.84
93.74592,329.92,443.68
93.76732,331.35,444.76
93.78591,332.39,443.86
93.80688,333.41,446.03
93.82668,332.91,445.87
93.84716,335.81,444.64
93.86707,335.42,446.00
93.88661,335.32,443.60
93.90624,333.59,445.82
93.92658,335.54,446.04
93.94774,336.87,444.14
93.96693,336.06,444.29
93.98724,335.97,447.84
94.00609,335.20,445.46
94.02680,338.28,448.92
94.04753,336.88,447.76
94.06783,339.44,448.24
94.08736,338.66,450.01
94.10602,336.62,447.32
94.12733,337.19,447.76
94.14709,336.35,448.45
94.16688,339.42,446.29
94.18710,336.42,448.18
94.20640,338.48,446.22
94.22634,337.02,448.48
94.24785,335.51,447.14
94.26638,336.23,445.00
94.28678,339.89,447.57
94.30783,339.23,444.31
94.32636,340.93,444.60
94.34766,338.92,444.87
94.36617,337.30,445.50
94.38717,337.13,445.01
94.40779,337.86,446.84
94.42644,336.83,445.12
94.44749,337.17,444.98
94.46710,337.80,444.18
94.48797,336.16,445.72
94.50657,337.74,444.67
94.52725,334.96,445.38
94.54605,336.25,446.07
94.56713,337.76,444.06
94.58636,338.15,444.38
94.60601,336.15,446.86
94.62717,337.38,444.69
94.64680,335.87,444.00
94.66753,336.19,442.58
94.68737,336.82,444.53
94.70766,334.35,444.69
94.72713,333.98,444.67
94.74608,336.02,444.26
94.76679,335.22,445.17
94.78780,335.01,445.00
94.80763,333.44,444.70
94.82732,336.26,442.98
94.84731,336.14,440.32
94.86590,334.62,443.29
94.88655,337.17,444.00
94.90656,338.07,442.80
94.92691,337.63,444.26
94.94704,337.72,443.66
94.96768,334.91,441.80
94.98751,338.02,444.64
95.00708,335.84,442.14
95.02724,341.03,445.03
95.04642,345.50,451.45
95.06635,361.16,460.72
95.08752,383.09,471.37
95.10710,402.46,480.14
95.12682,426.92,488.24
95.14723,442.97,489.79
95.16757,455.92,488.24
95.18704,458.56,484.91
95.20701,462.80,476.69
95.22690,461.67,472.71
95.24587,459.45,465.97
95.26635,455.84,461.72
95.28728,449.12,456.44
95.30849,442.43,450.93
95.32799,430.81,450.25
95.34914,424.40,446.75
95.36889,414.31,442.55
95.38907,408.50,439.86
95.40934,397.31,442.59
95.42928,392.79,439.57
95.44883,386.88,441.65
95.46937,379.65,438.99
95.48920,373.08,438.51
95.50956,370.48,441.56
95.52879,365.63,438.98
95.54807,362.40,441.15
95.56979,358.80,444.28
95.58922,355.19,443.30
95.60854,351.60,445.31
95.62962,349.05,444.25
95.64842,350.30,445.36
95.66938,346.48,443.81
95.68901,347.87,447.16
95.70929,345.76,446.30
95.72863,346.76,445.22
95.74915,346.35,446.46
95.76807,344.84,443.20
95.78912,343.87,445.85
95.80860,340.91,445.15
95.82950,342.96,446.68
95.84860,340.66,443.49
95.86856,342.21,443.25
95.88846,341.10,443.81
95.90994,337.84,444.65
95.92790,336.70,446.03
95.94810,339.65,447.67
95.96921,336.90,445.20
95.98966,336.51,448.09
96.00797,336.70,446.80
96.02914,337.34,447.93
96.04935,340.30,448.49
96.06938,341.41,447.46
96.08942,340.26,445.87
96.10976,335.76,444.64
96.12831,325.83,444.79
96.14975,313.02,448.17
96.16976,296.22,444.10
96.18800,275.82,440.81
96.20904,255.53,433.56
96.22971,239.19,424.69
96.24862,220.21,417.51
96.26794,210.09,408.09
96.28910,206.29,405.25
96.30867,208.58,404.38
96.32793,213.49,403.56
96.34849,223.25,406.73
96.36905,230.64,410.56
96.38896,242.52,411.77
96.40837,250.07,415.59
96.42984,263.06,419.45
96.44975,270.62,421.27
96.46932,280.66,426.84
96.48900,287.50,427.62
96.50806,297.13,429.92
96.52949,301.84,434.73
96.54779,306.28,438.62
96.56950,314.98,437.69
96.58797,317.45,441.34
96.60831,320.01,438.68
96.62909,324.61,441.91
96.64928,328.00,444.09
96.66800,330.61,444.24
96.68806,331.35,444.31
96.70805,334.68,444.24
96.72918,335.90,446.54
96.74773,336.52,445.58
96.76963,337.66,445.49
96.78919,337.17,449.21
96.80927,337.31,449.21
96.82854,339.72,447.40
96.84864,337.20,446.64
96.86898,341.45,447.81
96.88887,340.05,447.07
96.90844,339.51,444.20
96.92910,338.22,442.95
96.94878,340.92,444.98
96.96819,338.03,444.90
96.98791,341.47,446.01
97.00839,340.45,443.72
97.02958,338.49,446.77
97.04880,342.13,447.11
97.06963,341.51,446.32
97.08957,340.40,446.06
97.10817,339.99,446.16
97.12862,340.50,447.98
97.14844,340.17,446.43
97.16887,343.40,448.11
97.18915,341.34,446.43
97.20890,340.50,447.03
97.22885,341.85,446.29
97.24875,342.81,446.49
97.26816,343.29,445.47
97.28852,344.25,446.71
97.30835,345.13,448.04
97.33029,345.11,444.99
97.35084,345.87,447.35
97.36968,345.72,446.30
97.38977,346.56,445.70
97.40961,348.04,445.08
97.43083,345.54,446.38
97.44954,346.25,446.36
97.47098,345.97,445.66
97.48987,348.02,447.84
97.50916,348.72,445.27
97.52987,347.87,447.80
97.54909,346.66,446.26
97.57064,347.47,445.02
97.58982,345.23,446.72
97.60916,345.70,448.04
97.62892,346.79,449.34
97.65007,345.57,448.61
97.67007,346.96,449.38
97.68966,347.05,449.97
97.71146,348.92,449.84
97.72976,346.83,448.43
97.75033,347.30,448.59
97.77128,350.02,448.31
97.79144,351.35,448.48
97.81110,351.15,446.34
97.83033,351.89,446.92
97.85175,347.93,444.23
97.87161,351.42,442.84
97.89044,351.52,442.36
97.91116,348.72,444.12
97.92982,351.80,445.32
97.95126,349.86,445.80
97.97092,350.34,445.17
97.99013,353.25,446.93
98.01072,351.62,445.73
98.03004,351.45,447.77
98.05173,349.82,447.55
98.06993,348.50,446.40
98.09071,349.68,445.86
98.11090,350.12,447.02
98.13127,350.82,444.67
98.15051,351.18,447.71
98.17042,348.30,446.97
98.19009,350.11,447.60
98.21123,349.07,448.40
98.23096,348.78,446.37
98.25128,349.83,448.38
98.27066,349.87,445.55
98.29147,350.00,447.19
98.31022,352.51,449.11
98.33160,350.17,448.32
98.35030,357.62,454.20
98.37105,373.82,461.31
98.39032,393.52,474.38
98.41177,421.22,489.42
98.43019,444.66,497.57
98.44995,461.85,497.12
98.47128,477.22,493.10
98.49144,483.15,486.69
98.51015,487.95,481.42
98.53121,483.51,470.29
98.55154,480.89,462.08
98.57133,472.29,457.73
98.59142,464.34,450.60
98.61058,453.63,448.84
98.62994,445.42,446.30
98.65164,434.91,443.57
98.66973,427.53,443.55
98.69151,415.56,442.92
98.70995,407.92,446.14
98.73151,399.28,443.61
98.75034,394.26,445.03
98.77045,387.52,447.17
98.79156,383.56,446.86
98.81138,376.13,448.15
98.83150,375.84,451.54
98.85021,368.52,451.52
98.87127,366.16,449.62
98.89011,365.08,451.64
98.91010,362.17,452.55
98.93157,360.54,450.74
98.95133,359.63,452.28
98.97133,360.20,452.88
98.99194,357.60,449.77
99.01079,358.42,449.53
99.03002,355.15,449.69
99.05189,353.54,450.15
99.06995,354.82,449.60
99.09015,353.30,451.47
99.11034,354.39,447.41
99.13032,352.48,449.83
99.15174,349.18,449.53
99.17096,344.52,451.78
99.19031,332.77,452.09
99.21099,313.30,449.56
99.23133,291.14,444.87
99.24975,268.52,438.98
99.27098,246.63,433.76
99.29149,226.89,425.45
99.31151,214.57,421.10
99.33012,212.08,419.80
99.35008,213.36,419.37
99.37045,218.08,420.63
99.38999,227.86,422.11
99.40983,238.46,421.94
99.43166,247.39,424.78
99.45088,261.68,426.46
99.47060,270.40,432.46
99.49096,279.67,434.12
99.51156,286.06,436.35
99.53159,294.22,437.01
99.55063,302.75,440.83
99.56995,306.64,442.29
99.59001,313.18,441.60
99.61143,316.71,443.56
99.63144,323.04,445.31
99.65105,326.08,446.34
99.67085,330.60,445.63
99.69105,333.60,445.88
99.71017,334.95,446.35
99.73099,334.48,447.89
99.75075,338.96,445.08
99.77092,340.03,446.55
99.79171,342.18,446.76
99.80982,345.44,444.68
99.82999,342.97,448.34
99.85153,344.33,447.90
99.87139,348.43,447.88
99.89167,348.04,446.36
99.91113,346.14,447.64
99.93131,347.22,448.49
99.95108,348.68,449.43
99.97102,347.30,448.31
99.99089,345.60,447.27
100.01057,348.83,448.92
100.03069,347.15,450.84
100.05146,344.60,451.07
100.07050,345.93,451.62
100.09189,345.72,449.69
100.11121,344.74,449.63
100.13147,345.39,449.87
100.15077,344.90,447.13
100.17187,344.09,449.16
100.19183,345.61,446.81
100.21027,345.91,448.32
100.23023,347.71,446.78
100.25043,346.78,447.13
100.27193,348.95,447.30
100.29014,349.61,447.53
100.31116,346.56,447.25
100.33165,347.72,447.58
100.35197,350.68,446.43
100.37174,349.89,444.58
100.39035,346.16,444.75
100.41006,347.16,445.54
100.43209,349.11,446.23
100.45295,347.70,447.90
100.47124,347.10,446.47
100.49114,346.78,446.17
100.51270,347.52,447.58
100.53129,346.63,448.22
100.55160,348.39,446.55
100.57237,345.20,445.60
100.59157,347.74,447.99
100.61238,346.21,445.39
100.63283,345.02,447.12
100.65264,345.00,445.11
100.67390,344.98,443.89
100.69331,344.85,445.17
100.71205,342.06,447.91
100.73246,345.35,444.30
100.75334,343.00,447.45
100.77307,343.32,447.18
100.79239,342.61,445.53
100.81222,344.84,448.27
100.83314,343.15,449.12
100.85334,342.33,446.74
100.87393,342.74,446.99
100.89309,341.96,446.87
100.91250,344.96,445.86
100.93252,344.84,447.18
100.95400,342.47,447.15
100.97353,341.57,443.75
100.99396,343.96,442.03
101.01268,342.40,442.24
101.03226,343.00,443.17
101.05353,344.89,445.44
101.07233,362.41,452.82
101.09248,378.22,461.86
101.11249,399.80,471.51
101.13390,422.52,477.48
101.15263,440.05,481.69
101.17212,457.54,484.45
101.19293,465.89,480.67
101.21373,470.07,476.70
101.23388,471.02,472.64
101.25273,468.97,464.96
101.27296,463.63,461.35
101.29223,457.38,453.67
101.31258,451.17,447.73
101.33344,442.75,446.75
101.35374,433.75,441.82
101.37360,427.13,440.15
101.39293,417.69,440.45
101.41252,410.86,437.69
101.43292,400.72,439.31
101.45277,394.94,437.19
101.47276,388.62,438.85
101.49226,380.73,438.19
101.51386,374.10,440.80
101.53243,369.51,439.73
101.55248,364.95,441.86
101.57214,361.49,442.52
101.59257,357.93,442.15
101.61318,356.62,445.40
101.63258,351.07,444.82
101.65358,351.56,448.18
101.67263,350.81,447.37
101.69396,346.68,449.81
101.71365,347.33,449.83
101.73333,344.56,448.18
101.75386,344.92,450.29
101.77237,343.02,448.48
101.79397,341.32,448.85
101.81367,343.13,450.77
101.83327,341.08,449.56
101.85259,334.07,452.94
101.87301,317.64,460.04
101.89360,300.55,464.00
101.91400,283.76,464.27
101.93339,261.16,463.12
101.95226,244.71,460.62
101.97364,229.39,453.27
101.99236,217.50,444.56
102.01358,210.27,439.34
102.03277,212.20,433.81
102.05217,216.06,430.60
102.07387,224.83,429.05
102.09398,231.91,429.33
102.11223,242.18,426.73
102.13292,250.65,429.15
102.15214,259.98,426.81
102.17226,269.58,429.48
102.19311,277.64,429.09
102.21254,285.17,433.56
102.23302,292.54,432.00
102.25271,299.02,432.11
102.27249,306.86,433.79
102.29377,311.95,436.73
102.31283,313.78,436.56
102.33360,316.80,439.10
102.35256,316.31,440.99
102.37219,314.35,434.96
102.39281,317.47,427.97
102.41285,315.07,427.61
102.43207,316.09,427.29
102.45240,319.85,425.67
102.47276,323.62,425.78
102.49339,324.31,428.85
102.51313,326.06,429.38
102.53334,325.58,431.68
102.55294,330.02,432.93
102.57358,333.53,431.87
102.59296,333.54,433.94
102.61372,333.37,437.14
102.63351,332.38,439.54
102.65396,334.78,441.33
102.67288,332.97,438.44
102.69394,333.82,442.11
102.71309,332.44,441.90
102.73270,333.33,442.71
102.75369,333.16,443.31
102.77396,337.29,441.24
102.79303,337.54,439.48
102.81273,337.60,441.01
102.83287,337.81,440.35
102.85410,334.34,441.89
102.87379,333.44,443.19
102.89358,333.52,442.01
102.91385,333.09,441.80
102.93310,333.24,441.55
102.95316,335.26,441.59
102.97363,336.70,442.81
102.99379,335.39,440.09
103.01481,334.62,441.76
103.03333,336.50,443.26
103.05460,335.27,442.41
103.07425,335.16,443.11
103.09465,337.11,442.88
103.11419,338.82,444.92
103.13362,339.52,443.85
103.15403,339.73,442.39
103.17399,340.77,443.13
103.19427,339.86,443.22
103.21349,338.14,445.55
103.23365,336.40,443.22
103.25341,337.83,445.07
103.27450,338.76,446.94
103.29386,336.70,445.91
103.31329,338.52,443.90
103.33439,338.10,443.67
103.35312,336.75,444.40
103.37409,336.52,444.90
103.39482,337.69,445.94
103.41331,337.69,442.21
103.43485,337.15,442.93
103.45449,338.64,443.93
103.47381,337.32,442.91
103.49382,337.97,443.27
103.51468,340.12,439.58
103.53429,336.07,442.79
103.55358,337.10,440.88
103.57413,336.10,441.27
103.59414,348.62,444.64
103.61330,363.71,454.43
103.63454,386.08,464.23
103.65485,407.59,469.99
103.67436,425.64,478.63
103.69321,443.15,479.09
103.71334,454.36,479.40
103.73488,457.43,479.21
103.75416,462.89,478.72
103.77453,461.78,474.63
103.79464,456.96,470.83
103.81411,451.38,465.32
103.83411,445.73,459.73
103.85452,436.80,457.60
103.87482,429.34,455.49
103.89311,418.35,452.76
103.91409,408.21,448.90
103.93447,403.64,449.39
103.95427,393.60,448.18
103.97450,386.34,449.67
103.99339,381.41,446.03
104.01389,375.35,446.35
104.03401,367.68,446.77
104.05477,365.04,448.37
104.07313,360.40,448.95
104.09332,357.41,445.43
104.11315,354.93,447.92
104.13438,351.01,447.75
104.15382,348.54,446.63
104.17465,349.09,445.09
104.19476,349.20,447.59
104.21398,346.70,447.07
104.23403,345.33,448.74
104.25278,344.93,445.48
104.27237,344.46,447.61
104.29453,341.75,447.87
104.31462,343.07,445.75
104.33304,342.19,444.78
104.35400,342.66,446.98
104.37378,342.29,445.45
104.39352,343.23,444.72
104.41426,340.89,443.28
104.43381,340.91,443.37
104.45369,338.67,447.37
104.47328,340.73,445.95
104.49433,338.23,444.43
104.51367,338.40,444.95
104.53327,339.29,445.65
104.55258,339.89,444.47
104.57427,339.94,444.08
104.59387,339.11,444.36
104.61324,339.95,442.88
104.63341,335.15,444.95
104.65328,325.73,448.77
104.67354,308.12,450.14
104.69492,288.46,450.30
104.71316,268.88,447.90
104.73359,248.14,440.92
104.75411,233.37,433.26
104.77306,220.14,427.59
104.79339,212.99,422.15
104.81441,215.02,416.70
104.83393,215.49,415.90
104.85353,225.36,416.67
104.87362,233.24,417.12
104.89207,242.75,418.29
104.91312,249.79,417.82
104.93487,261.05,420.32
104.95497,267.96,421.53
104.97378,278.04,422.57
104.99325,284.72,422.53
105.01342,292.91,424.92
105.03495,298.01,427.86
105.05499,305.47,430.52
105.07490,308.68,428.96
105.09343,314.99,430.48
105.11305,319.29,433.96
105.13302,318.85,434.06
105.15448,325.90,437.47
105.17361,328.47,438.61
105.19351,329.98,440.07
105.21335,328.89,441.02
105.23372,330.90,441.11
105.25491,333.45,442.68
105.27392,334.79,446.01
105.29306,334.64,451.71
105.31460,337.10,451.58
105.33348,336.95,454.10
105.35405,336.56,457.03
105.37459,337.11,455.15
105.39410,336.32,453.26
105.41456,339.30,453.21
105.43489,335.95,453.88
105.45461,339.79,453.54
105.47456,340.96,450.62
105.49415,339.64,452.19
105.51578,340.83,448.95
105.53489,339.49,448.84
105.55474,341.28,447.60
105.57508,341.39,449.99
105.59406,341.09,449.36
105.61415,342.45,450.09
105.63567,340.42,448.87
105.65527,341.64,448.10
105.67404,341.59,448.52
105.69471,344.00,446.47
105.71377,345.07,447.40
105.73539,344.22,447.96
105.75457,342.20,444.73
105.77567,344.70,447.54
105.79329,342.64,446.64
105.81419,342.38,444.23
105.83674,345.81,443.96
105.85674,344.17,443.03
105.87613,344.54,446.32
105.89697,344.38,446.78
105.91573,342.42,445.04
105.93664,343.27,445.33
105.95603,346.73,448.18
105.97539,347.01,446.83
105.99666,348.20,448.55
106.01693,346.23,445.09
106.03675,345.86,446.44
106.05583,348.08,445.43
106.07590,349.63,446.52
106.09503,346.85,447.56
106.11516,347.05,448.02
106.13612,347.44,445.30
106.15462,348.96,447.70
106.17675,350.40,447.42
106.19665,348.65,446.89
106.21482,346.06,445.51
106.23602,348.35,444.71
106.25646,345.80,444.23
106.27535,346.41,447.64
106.29632,344.36,445.83
106.31481,347.28,446.37
106.33507,347.93,446.27
106.35631,347.10,445.93
106.37617,346.47,445.88
106.39633,346.51,447.90
106.41535,346.50,449.08
106.43614,346.53,449.47
106.45664,349.32,447.69
106.47608,349.77,446.69
106.49614,348.84,446.31
106.51846,348.16,448.59
106.53816,351.80,445.91
106.55706,351.40,448.00
106.57849,349.02,445.25
106.59738,348.53,446.73
106.61834,347.93,446.59
106.63740,349.17,445.16
106.65764,349.11,445.82
106.67838,348.60,447.37
106.69622,349.88,446.11
106.71845,351.79,447.89
106.73788,352.27,445.51
106.75863,350.72,446.41
106.77828,348.23,448.27
106.79725,352.37,449.45
106.81862,368.44,451.55
106.83716,391.25,463.60
106.85896,416.23,474.05
106.87894,441.92,481.99
106.89665,460.88,489.05
106.91841,472.67,489.95
106.93796,481.55,487.94
106.95733,483.75,484.35
106.97727,481.54,475.47
106.99653,479.42,471.67
107.01718,473.20,464.00
107.03714,460.93,458.73
107.05739,453.37,453.13
107.07839,443.08,450.65
107.09644,433.97,448.04
107.11769,427.37,443.28
107.13879,418.95,440.22
107.15721,408.21,439.58
107.17755,401.92,441.67
107.19779,392.88,440.58
107.21817,389.34,439.86
107.23730,383.42,444.69
107.25870,377.71,445.02
107.27834,371.70,444.78
107.29700,369.06,442.80
107.31819,364.81,444.73
107.33785,365.94,447.98
107.35812,363.12,448.68
107.37758,361.41,448.95
107.39744,358.86,448.83
107.41708,357.53,449.10
107.43808,355.89,450.60
107.45754,355.85,449.77
107.47849,355.95,450.85
107.49860,354.61,449.14
107.51782,353.57,450.02
107.53826,353.06,450.85
107.55784,351.16,450.40
107.57759,350.54,448.50
107.59767,352.44,447.96
107.61810,350.40,449.81
107.63890,350.73,449.97
107.65913,351.23,449.61
107.67849,351.25,447.46
107.69802,350.82,447.38
107.71918,352.01,451.52
107.73884,344.50,451.90
107.75983,337.58,452.92
107.77912,327.46,454.08
107.79898,314.91,457.04
107.81950,294.09,451.02
107.83930,271.69,444.10
107.85820,249.64,435.27
107.87884,229.96,422.57
107.89753,213.01,413.66
107.91908,205.49,404.66
107.93805,204.66,400.60
107.95933,209.24,402.73
107.97947,217.03,401.11
107.99817,227.17,404.57
108.01975,238.26,411.01
108.03841,251.44,417.74
108.05836,260.52,422.88
108.08000,269.41,425.98
108.09851,278.21,431.50
108.12088,285.83,436.54
108.13942,295.22,439.51
108.16002,302.42,444.08
108.18089,307.62,442.71
108.20096,314.31,444.35
108.21939,317.17,446.31
108.23978,321.57,448.14
108.25975,327.27,451.19
108.27973,327.98,452.44
108.29884,333.96,451.24
108.31931,336.03,450.96
108.33996,336.54,450.92
108.36028,335.32,449.33
108.37990,339.29,452.38
108.39950,336.96,449.85
108.41961,338.48,451.54
108.43989,339.12,448.70
108.46093,343.81,449.89
108.48036,340.55,450.75
108.50075,344.32,447.95
108.52015,341.22,446.17
108.53906,342.48,449.55
108.55926,343.45,446.31
108.58079,342.63,448.57
108.59943,344.93,448.05
108.61999,344.12,445.55
108.63974,345.66,446.97
108.65925,346.03,447.16
108.68034,345.46,447.75
108.70030,343.97,445.64
108.71931,342.49,445.55
108.73952,342.55,444.15
108.75857,342.30,443.69
108.77938,345.02,444.24
108.79815,343.89,447.47
108.81829,345.28,444.25
108.84116,343.63,447.31
108.86031,342.82,448.84
108.87911,342.68,445.22
108.90096,343.23,446.54
108.92022,339.37,444.90
108.94121,339.88,446.50
108.96129,340.87,445.32
108.98093,342.25,448.33
109.00123,339.07,445.52
109.02119,338.17,448.96
109.04100,342.30,446.19
109.06088,339.13,448.83
109.08165,338.08,445.09
109.10107,339.56,448.28
109.12192,340.48,447.28
109.14143,340.37,445.53
109.16006,339.98,446.32
109.18039,342.04,444.20
109.20109,339.48,444.89
109.22092,339.77,444.44
109.24028,341.02,444.79
109.26034,340.70,444.89
109.28189,341.62,445.37
109.30116,339.81,445.71
109.32004,342.33,445.82
109.34020,339.61,446.19
109.36013,339.27,447.12
109.38156,340.20,447.98
109.40121,342.13,448.35
109.42198,343.27,448.03
109.44164,354.23,453.45
109.46177,373.35,466.57
109.48051,396.09,476.82
109.50094,419.11,486.87
109.52104,438.74,492.66
109.54011,456.57,493.51
109.56137,466.01,489.48
109.58167,474.73,487.00
109.59996,474.09,480.83
109.62091,472.53,473.21
109.64089,468.19,468.23
109.66167,458.66,463.30
109.67943,454.58,455.59
109.70089,442.01,454.91
109.72166,433.39,448.29
109.74064,426.05,448.45
109.76187,416.90,446.39
109.78079,409.21,445.33
109.80011,401.16,441.08
109.82074,394.55,441.18
109.84147,384.65,441.62
109.86011,378.99,445.28
109.88009,372.30,445.36
109.90001,369.13,444.84
109.92120,364.26,443.79
109.94042,359.55,444.39
109.95931,356.80,446.62
109.98076,356.05,446.28
110.00029,351.70,445.00
110.02042,347.47,445.08
110.04031,349.37,444.06
110.06080,343.32,444.42
110.07964,344.77,446.82
110.09932,345.33,446.82
110.12199,343.21,448.93
110.14073,339.54,446.24
110.16142,338.70,447.78
110.17944,339.53,447.14
110.20187,340.18,449.43
110.22054,340.30,447.99
110.24105,339.19,446.80
110.26051,338.93,447.49
110.28036,337.73,448.36
110.30123,338.97,445.28
110.32113,337.94,448.10
110.34087,335.18,445.17
110.36121,336.95,448.10
110.38148,333.10,450.25
110.40086,318.89,452.49
110.42153,300.87,451.86
110.44149,279.02,452.14
110.46188,256.73,447.34
110.47932,232.70,437.70
110.50136,216.18,433.67
110.52016,201.04,426.42
110.54074,195.94,423.09
110.56022,197.87,419.78
110.58119,204.57,420.05
110.60056,213.61,419.49
110.62058,222.84,418.32
110.64196,231.18,422.43
110.66081,243.23,424.95
110.67963,251.59,423.25
110.70039,263.06,425.37
110.72136,269.60,431.90
110.74194,277.29,432.91
110.76160,287.64,435.49
110.77936,290.59,436.32
110.79970,297.85,438.26
110.82150,304.46,440.82
110.84069,307.27,441.11
110.86134,312.24,441.65
110.88135,314.78,441.99
110.90171,316.73,442.66
110.92284,319.76,443.79
110.94064,322.69,443.99
110.96197,325.66,442.92
110.98242,329.31,443.05
111.00129,328.05,444.30
111.02168,330.39,445.85
111.04184,330.92,448.33
111.06295,331.37,444.65
111.08055,332.64,447.72
111.10159,330.96,445.87
111.12078,333.82,443.32
111.14141,334.85,446.31
111.16154,336.31,443.82
111.18006,336.70,444.45
111.20257,337.06,443.79
111.22217,335.81,445.35
111.24133,335.33,443.39
111.26253,337.05,441.94
111.28253,337.02,441.96
111.30181,338.68,438.30
111.32254,337.70,440.89
111.34144,336.84,439.92
111.36258,337.26,441.01
111.38146,337.82,438.81
111.40268,336.64,440.68
111.42149,336.57,441.34
111.44141,336.78,438.26
111.46134,335.22,440.45
111.48145,337.80,440.02
111.50114,337.03,444.09
111.52153,335.63,444.46
111.54165,335.23,443.41
111.56294,337.39,441.74
111.58272,337.45,444.84
111.60284,338.23,444.08
111.62204,336.06,444.80
111.64140,335.63,446.14
111.66272,335.99,444.92
111.68029,335.69,443.68
111.70108,337.45,446.02
111.72113,337.64,443.26
111.74181,338.46,444.93
111.76209,336.64,442.70
111.78225,336.69,443.51
111.80115,337.16,446.07
111.82122,339.94,445.89
111.84145,337.42,442.91
111.86135,337.60,443.88
111.88022,336.13,442.89
111.90250,338.29,443.35
111.92243,337.57,445.47
111.94147,339.30,445.33
111.96204,339.33,446.80
111.98186,338.36,444.37
112.00124,336.64,445.55
112.02256,339.71,445.93
112.04100,340.57,446.19
112.06160,343.37,445.34
112.08114,340.87,443.78
112.10298,342.40,445.68
112.12002,342.76,447.16
112.14176,340.77,444.97
112.16278,340.68,447.64
112.18136,339.95,446.01
112.20129,342.04,448.04
112.22294,340.50,446.62
112.24144,339.80,449.45
112.26043,340.46,448.26
112.28152,341.17,449.54
112.30054,341.60,445.71
112.32191,338.86,445.99
112.34259,338.73,448.58
112.36275,337.82,447.79
112.38288,338.52,447.10
112.40004,337.65,447.60
112.42015,340.41,444.19
112.44202,339.62,444.16
112.46092,340.54,442.95
112.48169,339.55,444.10
112.50136,338.52,442.92
112.52148,336.54,443.24
112.54268,335.99,444.83
112.56108,336.07,446.99
112.58291,338.38,445.39
112.60261,338.25,444.75
112.62170,335.45,445.81
112.64107,334.99,444.04
112.66277,337.61,444.16
112.68171,336.56,447.78
112.70188,338.66,446.89
112.72136,346.17,449.88
112.74127,362.76,457.27
112.76194,382.35,466.92
112.78139,402.72,474.01
112.80109,420.83,475.74
112.82064,433.10,478.86
112.84117,441.93,475.94
112.86170,448.34,473.61
112.88197,452.55,466.73
112.90147,456.87,464.43
112.92132,451.89,459.43
112.94206,450.04,452.47
112.96035,443.95,448.48
112.98145,437.62,447.12
113.00039,432.94,444.84
113.02036,427.57,439.48
113.04002,420.12,438.27
113.06172,410.66,438.51
113.08166,400.65,439.71
113.10151,397.43,438.36
113.12158,388.94,439.93
113.14215,380.87,441.09
113.16333,376.55,441.19
113.18148,374.19,442.36
113.20299,369.95,442.74
113.22256,367.01,444.51
113.24218,365.20,443.12
113.26295,359.31,443.92
113.28236,359.44,444.41
113.30229,355.02,446.61
113.32159,356.04,449.03
113.34104,354.31,447.62
113.36243,352.64,448.38
113.38537,349.41,447.12
113.40281,346.57,449.03
113.42168,349.42,448.54
113.44123,346.93,446.12
113.46221,345.84,445.41
113.48267,345.05,447.74
113.50122,345.39,443.86
113.52178,346.29,442.80
113.54340,344.19,442.16
113.56235,346.13,439.06
113.58179,344.86,440.38
113.60141,343.44,439.25
113.62208,343.08,439.84
113.64242,343.23,442.73
113.66294,341.49,447.51
113.68239,343.95,447.37
113.70377,343.23,448.78
113.72193,341.50,450.74
113.74345,342.08,454.28
113.76265,344.75,450.64
113.78103,342.62,449.96
113.80198,340.06,452.92
113.82297,331.88,454.97
113.84227,317.86,452.52
113.86212,299.77,452.76
113.88105,280.16,447.39
113.90396,256.95,442.27
113.92287,237.72,438.95
113.94309,226.89,436.41
113.96244,217.46,431.08
113.98354,212.80,430.65
114.00286,214.68,425.65
114.02391,222.37,428.41
114.04337,232.85,428.11
114.06457,239.18,425.99
114.08265,251.77,428.27
114.10226,261.75,429.26
114.12389,272.26,431.07
114.14377,279.84,431.79
114.16231,288.81,435.68
114.18457,298.54,436.47
114.20342,304.70,435.97
114.22367,309.64,438.19
114.24481,314.04,441.13
114.26354,319.06,439.50
114.28338,323.96,440.40
114.30479,328.02,443.59
114.32447,329.82,443.18
114.34589,332.47,443.26
114.36345,335.44,441.70
114.38552,337.77,444.71
114.40492,337.81,445.18
114.42463,339.49,446.00
114.44343,342.10,443.20
114.46396,343.87,442.55
114.48312,345.71,443.52
114.50595,347.76,442.90
114.52413,349.36,442.27
114.54368,348.08,443.11
114.56491,347.67,444.15
114.58400,351.15,442.92
114.60497,351.04,444.31
114.62361,350.61,444.51
114.64451,350.71,447.77
114.66318,351.70,447.20
114.68583,352.84,446.57
114.70335,352.48,444.98
114.72404,351.66,445.92
114.74436,352.70,447.78
114.76437,350.34,444.45
114.78471,353.11,446.23
114.80435,350.45,444.83
114.82445,353.75,444.27
114.84596,350.21,446.02
114.86315,352.17,445.34
114.88348,349.69,446.31
114.90412,349.78,444.08
114.92353,349.66,447.01
114.94431,351.01,444.52
114.96393,351.47,444.65
114.98358,350.90,444.87
115.00377,350.77,447.59
115.02324,354.02,447.14
115.04464,350.83,446.30
115.06358,351.44,448.75
115.08407,349.87,448.82
115.10341,352.19,448.01
115.12313,351.64,446.30
115.14400,351.14,448.22
115.16405,353.91,449.25
115.18345,354.61,455.91
115.20491,353.20,462.82
115.22338,356.48,475.02
115.24407,359.09,487.79
115.26446,360.29,505.58
115.28383,363.03,516.45
115.30432,360.63,527.22
115.32531,360.89,525.33
115.34414,354.84,516.56
115.36424,350.19,496.10
115.38400,345.84,469.57
115.40329,340.73,442.40
115.42328,333.92,418.07
115.44464,334.06,403.64
115.46453,333.12,388.69
115.48492,332.32,383.02
115.50312,334.55,379.36
115.52472,334.16,376.91
115.54407,338.27,377.51
115.56340,341.10,379.28
115.58421,342.02,381.08
115.60470,341.46,384.34
115.62307,339.25,385.62
115.64475,340.40,390.77
115.66439,342.86,394.44
115.68491,341.02,396.64
115.70410,343.86,398.78
115.72365,342.95,406.54
115.74391,344.30,412.93
115.76356,345.20,419.49
115.78475,345.11,417.74
115.80438,346.07,411.33
115.82532,345.28,395.07
115.84599,339.82,377.71
115.86519,339.18,366.91
