Program Time [s],data 0,data 1
3.80124,500.02,560.28
3.8212,500.41,560.62
3.84136,499.13,561.5
3.86119,498.1,562.4
3.88122,498.28,562.52
3.90123,498.83,561.62
3.92121,498.66,560.89
3.94121,498.33,559.51
3.96142,501.46,559.41
3.98128,499.17,558.73
4.00119,499.54,558.38
4.0212,499.23,557.31
4.04137,499.38,555.85
4.06121,498.31,554.48
4.08119,498.25,554.58
4.10119,497.6,554.66
4.12121,496.68,554.53
4.14131,498.54,554.03
4.16122,498.23,554.82
4.18142,499.19,554.06
4.20122,500.55,553.05
4.22121,499.84,553.44
4.24123,499.47,553.95
4.26125,500.58,554.36
4.28129,501.66,555.69
4.30136,502.33,554.55
4.32126,503.66,554.84
4.3412,503.93,555.47
4.36127,503.74,556.78
4.38156,503.2,554.82
4.40139,502.76,554.46
4.42149,503.21,553.77
4.4416,501.16,552.61
4.46135,500.73,550.49
4.48205,499.99,551.59
4.50121,500.39,552.87
4.5214,501.31,553.3
4.54136,500.05,554.24
4.56144,501.24,554.79
4.58152,500.39,554.43
4.60145,500.11,556.15
4.6212,498.89,555.92
4.64161,499.31,556.13
4.66136,498.05,557.31
4.6815,499.44,558.65
4.70125,500.75,557.52
4.72142,500.4,557.61
4.74143,501.52,557.89
4.76153,502.62,560.31
4.78121,503.29,560.05
4.8014,503.23,560.24
4.8215,502.79,560.79
4.84128,502.83,562.03
4.86148,503.46,563.23
4.88121,502.77,563.58
4.9014,502.02,563.47
4.92123,501.81,563.77
4.94151,502.65,563.42
4.9614,505.12,562.93
4.98124,505.9,562.75
5.00119,507.92,562
5.02144,509.73,561.8
5.04135,505.79,559.24
5.06125,506.43,559.79
5.0812,506.94,562.03
5.10119,505.55,563.43
5.1212,503.84,563.94
5.14125,503.08,564.35
5.16138,503.46,564.88
5.18126,500.57,566.51
5.20126,499.85,566.6
5.22117,497.88,569.48
5.24119,497.71,569.19
5.26119,498.77,569.95
5.2812,497.81,567.36
5.30123,497.85,565.29
5.32135,499.28,563.43
5.34122,501.62,564.14
5.36115,503.3,566.32
5.38126,503.44,567.25
5.4012,503.35,567.6
5.4212,502.88,570.48
5.44125,503.5,570.79
5.46136,502.8,572.43
5.4812,504.04,572.14
5.50126,506.83,573.51
5.52121,505.87,572.01
5.5412,506.49,572.01
5.56138,500.4,570.41
5.5812,487.92,562.13
5.60136,467.93,549.5
5.62119,442.95,536.6
5.64136,416.36,524.88
5.66135,389.69,514.7
5.68125,367.55,505.56
5.7012,351.84,501.85
5.72121,340.47,501.28
5.74136,333.98,503.62
5.76126,330.78,507.5
5.7812,331.63,513.2
5.80122,334.7,518.96
5.82126,339.56,527.57
5.84135,349.05,534.65
5.86135,361.24,539.12
5.88119,373.39,542.3
5.90119,385.51,546.44
5.92116,397.01,550.35
5.94126,408.21,553.68
5.96117,419.57,555.34
5.98119,429.85,557.08
6.00123,438.68,558.86
6.0212,445.75,559.69
6.04126,453.8,559.55
6.06135,460.44,559.24
6.08116,465.75,561.19
6.1012,480,565.55
6.12117,511.8,577.84
6.14138,559.44,593.47
6.16121,618.15,607.18
6.1812,664.32,613.14
6.20117,688.66,611.91
6.2212,697.93,606.13
6.24136,695.74,599.11
6.26135,688.39,591.68
6.28112,677.71,584.75
6.30138,664.57,578
6.32218,651.06,573.6
6.3422,636.25,571.48
6.36214,621.4,568.78
6.38225,607.92,566.43
6.40224,596.53,564.74
6.42216,585.23,563.59
6.44212,573.38,563.07
6.46215,562.71,563.06
6.48221,554.76,561.85
6.50235,546.61,562.48
6.52311,540.89,562.58
6.54319,534.51,562.87
6.56321,530.81,561.89
6.58319,526.65,559.51
6.60325,523.12,559.41
6.62314,519.89,559.93
6.64324,516.92,560.34
6.66324,514.73,560.47
6.68327,512.59,559.78
6.70314,511.47,559.42
6.72325,509.57,559.34
6.74313,508.06,559.87
6.76316,507.85,558.7
6.78336,507.08,559.96
6.80317,505.46,560.97
6.82317,504.77,559.77
6.84316,504.82,560.42
6.86325,504.85,559.73
6.88321,504.28,559.39
6.90347,504.63,559.31
6.92313,504.5,558.85
6.94315,504,557.48
6.96325,503.8,556.98
6.98325,503.44,556.59
7.00325,503.95,557.67
7.02322,503.56,558.74
7.04316,503.45,559.79
7.06332,503.16,560.23
7.08435,501.93,560.38
7.10519,500.94,560.11
7.12517,501.35,559.09
7.14541,501.88,558.27
7.16524,501.31,557.42
7.18523,500.85,557.33
7.20625,501.28,555.27
7.22627,501.82,555.61
7.24617,502.06,554.49
7.2672,502.05,553.79
7.28725,501.84,553.43
7.30714,501.67,553.35
7.32722,501.74,553.68
7.34719,501.39,554.34
7.36716,501.51,553.27
7.38725,501.41,553.22
7.40725,500.13,553.98
7.42716,500.7,552.78
7.44725,500.36,552.62
7.46724,500.49,551.3
7.48721,498.99,552.64
7.50712,497.99,553.71
7.52716,497.99,554.37
7.54722,498.2,554.7
7.56737,498.56,553.36
7.58737,499.05,552.69
7.60725,499.84,553.35
7.62722,500.07,554.08
7.64713,500.46,554.26
7.66718,499.76,554.01
7.68718,500.01,555.61
7.70735,495.21,555.89
7.72717,477.17,551.31
7.7471,449.13,542.45
7.76725,415.71,532.96
7.78735,385.17,522.17
7.80718,359.93,513.13
7.82723,340.35,506.11
7.84712,326.08,502.09
7.86726,318.26,501.67
7.88726,316.01,502.93
7.90716,318.81,506.55
7.92715,326.45,510.64
7.94718,336.56,513.91
7.96734,347.05,517.53
7.98735,358.84,520.82
8.0071,372.87,523.66
8.02722,385.9,526.33
8.04727,396.92,529.26
8.06713,408.93,531.21
8.08719,419.75,533.37
8.10716,429.2,535.89
8.1272,438.16,537.32
8.14716,445.73,540.05
8.16734,451.78,543.64
8.18722,457.22,551.11
8.20711,473.58,565.49
8.22737,497.66,597.39
8.24709,531.13,644.11
8.26719,571.5,693.49
8.28717,615.4,731.19
8.30725,658.32,749.15
8.32717,691.66,744.12
8.34725,707.93,722.7
8.36725,709.54,691.16
8.38815,707.03,654.33
8.40824,698.63,619.26
8.42836,685.3,587.41
8.44815,670.24,560.53
8.46819,654.99,539.42
8.48831,640.59,521.74
8.50912,624.28,509.59
8.52912,610.22,500.87
8.54914,597.38,497.3
8.56922,579.9,495.04
8.58928,563.92,494.63
8.60917,550.14,496.1
8.62922,540.51,498.68
8.64914,532.61,502.75
8.66922,525.69,507.6
8.68913,521.35,511.08
8.70912,517.48,515.46
8.72919,514.18,518.77
8.75024,510.75,521.02
8.77129,508.2,524.81
8.79145,506.56,528.25
8.81115,504.65,532.2
8.83135,504.92,533.96
8.8521,504.33,536.17
8.87212,502.87,538.73
8.89213,501.89,542.59
8.91224,502.11,543.47
8.93246,502.29,543.38
8.95219,501.43,545.5
8.97213,502.75,547
8.9922,501.8,549
9.01228,501.44,549.6
9.03217,501.55,549.88
9.05214,501.84,550.3
9.07231,502.07,550.24
9.09216,501.26,550.19
9.11234,501.81,550.96
9.13241,501.04,551.36
9.15235,500.24,551.09
9.17222,501.79,550.27
9.19227,502.43,549.82
9.21251,502.34,549.05
9.23222,502.08,548.84
9.25227,501.26,549.88
9.27227,499.81,550.9
9.29224,499.45,552.92
9.31227,499.56,553.74
9.33226,499.85,553.59
9.35219,499.88,554.47
9.3731,500.1,554.18
9.39324,500.28,553.94
9.41416,499.02,555.55
9.43418,498.62,557.24
9.45536,498.7,558.99
9.47613,497.76,560.6
9.49635,498.61,561.28
9.51718,498.48,562.62
9.53727,499.79,562.5
9.55713,500.03,563.2
9.57718,500.22,563.76
9.59715,499.78,564.01
9.61813,500.02,565.81
9.63821,501.62,566.44
9.65908,501.69,567.56
9.67911,501.56,568.84
9.69923,500.64,570.08
9.71924,500.72,570.46
9.73919,500.57,571.77
9.75919,500.66,573.21
9.77917,496.93,574.57
9.79915,481.54,569.66
9.81922,457.03,561.73
9.83922,428.03,550.58
9.85938,398.62,541.66
9.88015,374.1,532.73
9.90014,353.48,524.59
9.92022,337.38,520.87
9.9402,326.31,520.09
9.96017,319.44,523.68
9.98017,318.16,528.94
10.0011,319.92,532.55
10.0211,325.14,535.84
10.0414,333.71,538.47
10.0622,344.17,539.98
10.0821,355.14,539.58
10.1022,367.11,539.47
10.1221,379.69,539.97
10.1421,392.35,539.78
10.1624,404.68,540.22
10.1822,415.54,542.98
10.2022,426.03,545.18
10.2232,435.23,546.35
10.2432,443.58,546.88
10.2634,452.07,547.1
10.2832,459.45,548.48
10.3032,464.96,550.58
10.3231,470.17,552.87
10.3431,482.14,558.69
10.3632,508.71,574.16
10.3841,552.17,597.12
10.4042,608.53,613.7
10.4242,672.63,618.56
10.4452,718.5,616.05
10.4651,739.6,607.44
10.4851,742.88,597.75
10.5052,735.5,588.4
10.5252,723.8,582.92
10.5452,709.04,577.54
10.5651,691.43,573.43
10.5861,673.15,568.74
10.6062,654.92,566.39
10.6261,637.13,564.32
10.6462,620.11,562.65
10.6662,606.29,561.92
10.6861,585.63,561.74
10.7061,570.3,560.19
10.7262,558.24,558.95
10.7463,547.79,558.56
10.7665,540.24,558.45
10.7862,533.99,557.76
10.8061,528.59,557.21
10.8261,523.87,558.97
10.8461,519.3,560.37
10.8661,515.64,561.1
10.8862,513.11,560.68
10.9062,511.09,560.54
10.9271,507.87,561.03
10.9472,506.1,559.83
10.9673,503.88,559.66
10.9871,502.5,559.33
11.0071,501.4,559.86
11.0272,501.52,560.69
11.0475,500.02,560.35
11.0672,499.01,561.28
11.0871,499.01,560.43
11.1071,499.01,560.74
11.1272,499.41,559.59
11.1472,498.53,560.27
11.1672,498.82,558.62
11.1872,500.46,557.5
11.2071,499.97,558.4
11.2271,501.17,559.32
11.2471,500.54,559.65
11.2673,500.83,558.32
11.2873,500.06,557.46
11.3072,500.25,556.17
11.3271,501.2,556.53
11.3472,501.76,556.63
11.3673,500.81,556.9
11.3874,500.25,556.92
11.4071,500.6,557.34
11.4274,500.48,556.87
11.4471,499.38,556.7
11.4671,499.91,555.56
11.4872,498.92,557.45
11.5072,499.74,557.16
11.5271,499.59,558.12
11.5472,500.07,558.3
11.5682,499.86,557.64
11.5892,500.49,556.31
11.6091,500.79,556.65
11.6292,500.83,556.32
11.6491,500.07,556.66
11.6692,500.05,555.72
11.6891,499.64,556.38
11.7091,500.31,555.7
11.7292,500.25,555.36
11.7501,499,555.29
11.7701,499.6,554.43
11.7902,499.88,553.75
11.8102,500.5,552.4
11.8302,499.2,552.72
11.8502,499.76,551.57
11.8712,500.01,551.26
11.8922,500.21,551.81
11.9122,499.97,552.45
11.9321,499.77,553.56
11.952,499.42,553.45
11.9722,498.33,555.16
11.9921,496.67,556.53
12.0122,497.53,556.82
12.0322,489.43,554.66
12.0522,466.94,545.12
12.0724,434.55,529.3
12.0921,400.04,513.64
12.1121,369.43,500.31
12.1322,343.75,490.65
12.1522,324.2,484.92
12.1722,314.76,482.74
12.1922,310.81,483.59
12.2123,311.65,488.27
12.2322,315.92,495.22
12.2521,325.13,502.17
12.272,337.51,508.14
12.2925,349.81,514.91
12.3122,363.24,519.73
12.3322,377.4,524.38
12.3521,391.32,526.71
12.3722,403.85,530.37
12.3922,416.08,533.49
12.4123,427.67,534.59
12.4321,437.53,536.67
12.4522,445.43,538.94
12.4721,453.74,540.15
12.4922,460.79,540.52
12.5122,465.83,542.42
12.5324,469.67,543.93
12.5521,473.53,545.15
12.5722,475.43,548.52
12.5921,485.74,558.41
12.6122,510.39,580.53
12.6321,551.51,603.43
12.6521,606.21,617.54
12.6722,662.97,620.43
12.6922,695.58,617.75
12.7122,709.26,611
12.7321,710.01,602
12.7522,704.41,593.8
12.7722,693.13,587.64
12.7921,681.1,581.71
12.8122,666.68,576.37
12.8321,649.34,573.89
12.8521,633.28,573.12
12.8721,618.22,572.29
12.8925,604.58,571.23
12.9124,593.46,568.19
12.9321,581.77,566.35
12.9521,571.82,564.28
12.9722,561.65,562.22
12.9922,553.52,561.38
13.0124,546.42,559.5
13.0322,539.93,558.6
13.0533,534.15,556.48
13.0731,528.72,556.39
13.0932,524.17,555.11
13.1133,520.54,553.89
13.1344,516.23,554.11
13.1541,514.19,553.29
13.1742,511.75,553.63
13.1941,510.2,553.5
13.2144,509.16,552.6
13.2341,508.33,553.28
13.2541,506.26,554.23
13.2742,504.61,553.98
13.2942,503.29,553.78
13.3141,503.23,552.83
13.3341,502.18,553.26
13.3542,501.35,552.81
13.375,501.68,553.05
13.3952,500.34,553.84
13.4153,500.67,554.07
13.4354,499.54,554.86
13.4553,498.63,555.49
13.4752,499.1,555.59
13.4953,499.48,556.67
13.5153,498.39,557.74
13.5354,498.31,558.59
13.5551,498.25,558.47
13.5753,498.8,557.38
13.5953,498.84,555.9
13.6153,497.27,555.92
13.6354,498.22,556.34
13.6552,497.97,557.47
13.6751,499.38,556.58
13.6952,500.1,555.46
13.7151,499.48,554.37
13.7353,498.39,554.29
13.7551,499.11,553.84
13.7751,499.09,554.47
13.7951,498.87,554.97
13.8152,498.9,554.58
13.8351,498.72,552.26
13.8552,497.97,552.81
13.8751,496.98,551.45
13.8952,497.38,551.96
13.9151,497.31,552.97
13.9351,498.25,553.17
13.9551,499,552.94
13.9752,499.2,552.95
13.9952,500.36,551.36
14.0151,500.29,551.09
14.0351,499.03,552.47
14.055,499.62,552.58
14.0751,499.9,552.06
14.0952,499.32,552.65
14.1151,500.85,551.92
14.1351,500.08,552.54
14.1551,501.27,551.03
14.1751,501.41,550.82
14.1952,501.53,551.26
14.2151,491.82,550.61
14.2351,466.66,540.69
14.2554,431.13,526.35
14.275,393.1,514.08
14.2951,358.88,502.06
14.3151,330.11,495.65
14.3351,311.08,491.72
14.3551,299.87,491.78
14.375,297.29,493.22
14.3952,301.44,496.38
14.4155,307.15,501.5
14.4352,317.12,507
14.4551,331.49,511.4
14.4751,346.2,514.92
14.4955,361.76,516.14
14.5151,375.61,518.31
14.5353,389.48,521.05
14.555,401.99,524.44
14.5751,413.79,526.95
14.5954,425.43,529.76
14.6152,434.95,532.41
14.6352,443.36,534.33
14.655,451.49,536.66
14.6753,456.99,539.93
14.6953,462.99,541.74
14.7153,467.79,543.19
14.7352,472.23,545.56
14.7551,475.19,547.84
14.7752,477.95,550.68
14.7953,480.36,553.74
14.8155,480.89,562.19
14.8351,492.11,582.35
14.8551,515.09,619.68
14.8751,550.07,647.95
14.8951,599.46,650.96
14.9154,657.77,636.37
14.9354,701.81,614.49
14.9552,723.05,592.99
14.9754,728.44,576.4
14.9955,723.75,562.72
15.015,714.8,551.57
15.0354,701.24,543.86
15.0551,684.59,540.09
15.0754,667.47,538.07
15.0955,649.58,538.26
15.1154,632.66,540.4
15.1354,617.73,540.92
15.1553,602.18,542.54
15.1751,589.15,544.23
15.1951,578.72,545.38
15.2151,567.57,545.71
15.2351,557.66,548.17
15.2552,549.73,550.13
15.2753,542.78,552.31
15.2953,536.83,553.25
15.3155,531.66,553.4
15.3353,527.13,552.92
15.3551,523.9,551.93
15.375,520.32,551.95
15.3951,517.26,552.16
15.4155,514.41,553.33
15.4354,511.92,554.46
15.4551,509.94,555.37
15.4752,508.35,554.49
15.4951,507.48,554.2
15.5155,506.39,555.96
15.5351,505.11,555.77
15.5553,504.29,556.41
15.5752,503.23,555.93
15.5951,502.18,557.14
15.6152,501.95,556.32
15.6353,501.96,555.85
15.6551,500.97,555.88
15.6752,500.17,555.71
15.6952,501.34,555.36
15.7153,499.87,555.09
15.7354,500.5,555.07
15.7554,500.2,555.06
15.775,499.76,555.45
15.7952,500.21,554.36
15.8151,500.16,553.09
15.8353,501.13,552.47
15.8552,501.51,552.37
15.8761,501.6,553.7
15.8961,500.88,553.76
15.9163,500.51,552.81
15.9364,500.21,553.05
15.9563,500.76,552.24
15.9761,501.81,551.19
15.9961,501.45,550.95
16.0163,500.56,551.56
16.0363,499.65,551.65
16.0561,498.12,551.32
16.0764,498.29,551.66
16.0961,498.04,552.32
16.1165,498.03,551.86
16.1361,498.02,553.09
16.1561,497.42,552.47
16.1761,497.73,552.78
16.1962,496.39,554.02
16.2161,497.11,554.22
16.2364,497.89,553.37
16.2565,497.71,552.7
16.2763,496.77,553.16
16.2962,497.81,553.53
16.3161,497.85,553.82
16.3362,498.48,553.46
16.3562,498.79,554.57
16.3761,500.03,552.65
16.3961,498.82,553.72
16.4164,498.06,556.18
16.4362,487.65,556.74
16.4562,463.32,549.19
16.4761,432.85,537.55
16.4961,403.28,529.84
16.5164,376.03,529.68
16.5362,354.82,528.14
16.5561,338.46,525.71
16.5764,327.77,517.57
16.5962,319.21,509.66
16.6166,315.17,504.32
16.6361,318.34,502.26
16.6565,324.67,501.21
16.6761,334.54,501.17
16.6961,344.83,503.73
16.7164,355.46,506.39
16.7364,365.97,509.11
16.7564,378.78,512.29
16.7762,391.22,516.63
16.7961,403.18,519.5
16.8163,414.14,523.2
16.8362,425.11,526.16
16.8564,433.89,529.13
16.8762,442.51,530.9
16.8964,451.41,534.12
16.9164,457.73,535.1
16.9362,462.98,537.28
16.9561,468.39,538.42
16.9763,472.11,539.34
16.9962,478.69,544.87
17.0164,500.75,557.7
17.0364,537.8,576.76
17.0562,589.24,593.21
17.0764,646.79,604.56
17.0964,684.43,607.25
17.1165,699.15,603.6
17.1362,704.32,597.68
17.1561,701.25,589.74
17.1764,692.4,584.2
17.1964,680.12,578.96
17.2162,665.5,575.77
17.2362,649.6,573.21
17.2561,633.88,570.97
17.2763,618.7,568.98
17.2962,604.36,568.38
17.3164,592.49,567.1
17.3365,581.99,566.28
17.3562,571.59,565.63
17.3764,561.87,565.5
17.3963,553.9,565
17.4162,546.72,565.4
17.4362,540.58,567.12
17.4563,534.66,567.9
17.4762,527.53,568.32
17.4961,522.22,569.25
17.5162,517.38,568.6
17.5362,513.5,568.88
17.5561,510.4,568.71
17.5762,508.12,567.96
17.5961,507.5,566.77
17.6162,506.6,564.22
17.6364,505.68,562.97
17.6562,503.14,562.58
17.6762,503.11,560.06
17.6962,502.89,558.45
17.7163,501.31,557.16
17.7361,501.05,556.73
17.7561,501.04,557.38
17.7762,502.03,555.71
17.7962,500.43,554.56
17.8164,500.34,553.65
17.8361,499.67,552.92
17.8561,498.74,551.54
17.8761,498.39,551.43
17.8961,498.11,551.14
17.9162,497.29,550.52
17.9363,498.23,550.61
17.9562,497.99,551.89
17.9761,498.79,552.11
17.9962,499.43,551.89
18.0161,499.94,551.31
18.0362,499.56,553.25
18.0562,499.84,552
18.0762,499.88,552.6
18.0961,499.7,552.68
18.1164,500.36,552.74
18.1364,499.89,552.19
18.1561,498.91,552.56
18.1764,498.53,551.84
18.1961,499.02,551.48
18.2164,498.62,551.38
18.2361,499.09,552.5
18.2561,499.48,552.6
18.2764,499.98,553.28
18.2964,499.98,552.63
18.3163,499.59,552.1
18.3361,499.27,551.88
18.356,499.82,549.9
18.3763,500.65,549.72
18.3962,499.32,548.98
18.4164,498.26,550.18
18.4364,498.21,549.95
18.456,497.16,549.96
18.4761,496.73,550.37
18.4963,496.19,550.49
18.516,497.35,549.99
18.5361,496.68,551.4
18.5562,498.14,552.92
18.5761,488.31,550.33
18.5963,466.45,542.87
18.6162,438.56,533.09
18.636,407.85,522.87
18.656,376.88,513.5
18.6761,350.5,504.4
18.6963,331.4,497.32
18.716,317.92,495.46
18.7361,311.54,495.76
18.7561,310.63,499.41
18.7762,315.1,503.33
18.796,321.88,507.26
18.8164,331.71,511.81
18.8361,343.57,515.45
18.8561,356.45,517.76
18.8761,370.16,521.21
18.896,383.93,523.77
18.9162,396.34,523.81
18.9361,407.47,529.05
18.9561,418.58,532.84
18.9762,429.06,534.07
18.9962,439.05,535.06
19.0161,446.24,537.05
19.0361,451.99,538.24
19.0563,459.59,539.59
19.0763,465.88,541.07
19.096,470.9,542.46
19.1161,474.52,543.17
19.136,477.22,544.53
19.1562,480.77,544.83
19.1763,483.22,547.06
19.196,484.77,550.65
19.2164,492.82,556.12
19.2364,511.26,567.9
19.2563,542.4,583.72
19.2763,586.92,595.17
19.2963,641.14,599.74
19.3166,686.91,599.39
19.3364,709.33,593.51
19.3561,717.66,588.01
19.3772,714.33,582.21
19.397,704.86,577.37
19.417,691.69,574.49
19.4371,676.75,571.19
19.4574,660.8,569.16
19.4771,644.24,566.72
19.4974,628.79,565.18
19.5171,614.03,563.14
19.5376,600.43,562.11
19.557,587.94,562.09
19.577,577.35,559.87
19.5971,567.48,557.9
19.6181,558.99,555.32
19.638,551.39,554.86
19.6582,542.91,553.68
19.6781,536.53,553.15
19.6981,531.42,553.12
19.718,524.94,552.49
19.7384,519.35,554.4
19.7584,515.28,552.72
19.778,512.42,552.77
19.798,510.34,552.02
19.8181,508.67,551.81
19.838,507.34,551.45
19.8582,506.27,550.96
19.8781,505.22,551.37
19.8981,503.77,550.9
19.9181,503.62,551.52
19.9382,502.89,552.21
19.9584,502.52,551.57
19.9782,502.41,550.66
19.998,501.53,550.53
20.0181,502.42,549.62
20.0384,501.54,549.9
20.058,501.63,549.12
20.0781,500.31,549.89
20.098,500.24,549.51
20.1183,500,547.81
20.138,500.2,546.45
20.1584,502.16,545.56
20.1782,502.33,545.45
20.198,502.26,544.56
20.2181,502.21,545.05
20.2384,501.97,545.04
20.2582,502.97,544.63
20.2781,501.98,545.5
20.298,501.98,544.2
20.318,502.59,543.76
20.338,502.27,545.01
20.3582,502.82,544.61
20.3782,501.85,546.49
20.398,501.88,546.99
20.4181,502.31,546.99
20.4382,501.64,548.39
20.4584,501.72,549.31
20.4783,501.97,549.45
20.4984,502.98,549.36
20.5182,503.58,548.89
20.538,503.67,548.31
20.5585,502.73,547.65
20.5781,500.79,548.52
20.598,499.43,548.82
20.6181,497.54,549.25
20.6393,497.03,550
20.6591,497.23,550.4
20.6794,497.58,549.72
20.6996,496.87,549.98
20.7191,496.49,549.98
20.7392,496.79,549.99
20.7592,497.64,549.39
20.7793,497.11,549.71
20.7994,497.29,550.37
20.819,499.03,551.69
20.8391,487.22,549.76
20.859,457.18,542.4
20.879,421.14,533.72
20.8993,384.71,525.98
20.9192,352.37,520.38
20.939,330.3,514.51
20.9593,317.64,509.81
20.9791,310.71,508.04
20.999,309.97,506.84
21.0191,315.37,506.87
21.039,322.7,508.29
21.0591,332.96,511.24
21.0791,344.37,513.79
21.0991,357.49,515.63
21.1191,371.8,516.9
21.139,386.04,519.52
21.159,398.83,522.62
21.1791,410.86,526.7
21.1993,421.69,528.76
21.2191,430.95,532
21.2391,438.56,534.8
21.2591,447.85,536.24
21.2792,454.88,538.79
21.299,462.3,540.24
21.3192,468.24,541.39
21.3392,472.79,543.31
21.359,475.64,544.05
21.3794,479.11,546.64
21.3992,482.69,548.11
21.4191,488.15,553.09
21.4391,504.52,567.47
21.459,533.62,594.18
21.479,577.89,617.94
21.4992,631.51,629.35
21.5191,677.41,628.08
21.5391,703.33,620.27
21.559,707.06,612.01
21.579,707.65,600.21
21.5993,701.12,588.17
21.6191,690.7,578.13
21.6391,677.16,570.71
21.659,661.53,563.37
21.6794,645.22,558.49
21.6992,629.98,555.79
21.7193,615.38,553.84
21.7395,601.5,553.07
21.7591,588.6,552.25
21.7792,577.68,551.8
21.7991,567.15,551.04
21.8193,557.52,551.43
21.839,549.61,552.35
21.8593,542.49,553.28
21.8791,536.79,554.42
21.8991,533.03,555.94
21.919,527.83,556.55
21.9391,523.26,556.24
21.959,520.21,555.19
21.9794,517.37,554.15
21.9994,514.29,553.92
22.0193,512.04,553.14
22.0391,511.43,553.11
22.0593,510.94,552.69
22.0793,509.95,552.55
22.099,509.16,551.84
22.1191,508.13,552.67
22.1392,507.9,553.54
22.1592,507.12,552.83
22.1792,506.3,553.26
22.199,505.04,553.21
22.219,505.23,551.97
22.2391,503.79,551.58
22.2593,503.43,551.06
22.2791,503.14,551.45
22.2991,503.31,551.16
22.319,504.05,550.73
22.3394,504.44,549.98
22.3591,504.95,549.59
22.3793,504.36,549.47
22.399,503.09,549.97
22.419,503.67,550.18
22.4391,503.14,550.34
22.4591,502.91,550.27
22.4794,501.93,549.82
22.4992,501.14,549.46
22.5192,501.11,549.56
22.539,500.89,549.05
22.5593,499.71,549.64
22.5791,500.57,549.11
22.5991,500.26,549.29
22.6191,500.81,549.83
22.6392,500.84,552.07
22.659,499.48,553.05
22.6792,498.58,553.44
22.6994,498.66,553.35
22.719,497.93,553.28
22.7391,498.75,553.63
22.7593,499,553.5
22.779,498.6,554.2
22.7991,499.88,555.56
22.8192,492.5,556.65
22.8391,471.2,552.52
22.859,440.56,546.62
22.8792,406.05,543.49
22.8991,374.64,539.39
22.919,347.11,534.91
22.9391,326.29,527.53
22.959,314.43,519.23
22.9791,308.75,511.58
22.9992,309.8,505.86
23.0191,314.44,503.09
23.039,323.15,503.67
23.059,333.32,505.94
23.079,346.06,509.15
23.0991,359.44,510.12
23.119,372.16,512.5
23.139,386.72,512.6
23.1592,400.38,513.68
23.1792,412.7,516.34
23.1994,424.76,516.87
23.2194,434.41,519.3
23.2391,444.53,519.84
23.259,453.62,521.07
23.2792,461.1,521.86
23.2993,466.88,523.09
23.319,471.7,525.27
23.339,475.36,528.21
23.3594,478.89,531.77
23.3793,481.71,533.62
23.3991,484.97,533.69
23.4192,487.38,537.16
23.439,489.3,539.72
23.4591,491.04,542.78
23.4791,491.63,545.02
23.4992,492.71,546.62
23.519,493.16,549.1
23.539,495.93,552.08
23.559,513.35,560.86
23.5791,545.48,576.09
23.5993,590.98,591.47
23.619,642.78,601.58
23.6391,688.43,604.06
23.6592,711.54,600.65
23.6793,719.23,594.72
23.6994,717.19,588.18
23.719,708.35,583.14
23.7392,695.08,578.91
23.7593,680.26,575.53
23.7794,664.61,573.62
23.7994,648.29,571.3
23.8191,632.03,570.24
23.8394,618.02,568.39
23.859,603.62,566.91
23.8793,589.7,565.13
23.8994,578.56,563.1
23.919,569.05,560.28
23.9394,559.64,560.03
23.959,550.51,559.02
23.9791,543.81,557.82
23.9992,535.45,558.45
24.019,529.36,559.36
24.039,523.69,559.29
24.0593,518.75,559.63
24.079,515.4,559.11
24.0991,512.52,558.28
24.119,511.02,557.43
24.1391,509.01,556.74
24.1594,507.61,556.39
24.179,507.09,555.32
24.1991,506.87,555.05
24.219,506.1,555.84
24.2393,505.68,554.87
24.2591,504.74,555.3
24.2795,504.19,554.84
24.2994,503.15,553.27
24.3191,502.92,552.02
24.3394,503.54,551.21
24.3592,503.23,551.57
24.3792,503.38,550.26
24.399,503.11,550.81
24.419,501.89,551.24
24.439,501.71,551.2
24.459,501.77,551.16
24.479,501.61,551.53
24.499,501.49,551.82
24.5193,500.79,552.26
24.5392,501.03,552.6
24.559,501.83,552.48
24.5791,501.86,552.59
24.5994,501.09,552.27
24.6192,499.47,552.02
24.6392,498.38,553.01
24.659,499.5,551.81
24.6791,500.8,552.05
24.6991,501.04,552.24
24.7193,500.23,551.99
24.7393,498.99,552.99
24.7594,498.99,551.99
24.7794,498.79,552.4
24.799,498.23,551.92
24.819,499.39,551.93
24.8391,500.71,551.15
24.8592,500.77,551.72
24.879,501.21,550.97
24.899,500.77,551.38
24.919,500.42,552.1
24.9391,501.33,551.28
24.9594,501.07,551.03
24.9794,501.65,550.82
24.9994,501.12,551.26
25.0191,500.9,552.01
25.039,500.52,552.4
25.0592,500.01,552.92
25.079,500.01,552.94
25.0991,500.61,553.15
25.1189,501.09,553.12
25.139,500.67,553.5
25.159,499.94,555
25.179,500.75,555.4
25.1991,490.6,554.12
25.219,468.28,547.49
25.2392,439.22,536.2
25.2591,409.58,523.76
25.2793,380.66,512.81
25.299,357.73,502.84
25.3189,341.18,496.28
25.3391,331.95,491.02
25.3592,328.56,488.02
25.3794,330.45,488.41
25.3992,335.16,491.33
25.4191,343.53,494.66
25.4391,352.02,498.53
25.4591,363.02,504.03
25.4791,375.61,507.62
25.499,387.89,511.3
25.519,398.91,515.04
25.539,409.93,519.03
25.559,421.14,523.42
25.579,431.32,526.94
25.599,440.85,528.75
25.6194,449.68,530.8
25.6393,455.95,532.44
25.659,462.76,535.35
25.6789,467.41,537.68
25.6989,472.52,540.15
25.719,476.22,541.52
25.7392,479.18,543.01
25.7591,482.14,544.21
25.7794,483.71,545.57
25.7991,485.17,547.45
25.819,486.94,549.56
25.839,486.55,552.85
25.86,495.04,563.28
25.8802,513.63,585.62
25.9002,541.9,613.5
25.9202,577.92,634.4
25.9403,618.34,641.72
25.9602,653.47,639.58
25.9799,683.18,630.46
26.0002,699.14,618.17
26.02,703.51,603.93
26.04,698.81,592.15
26.0601,689.45,582.12
26.0801,677.36,573.09
26.1004,662.09,566.68
26.1204,647.27,561.14
26.14,631.82,557.31
26.16,618.45,554.05
26.18,604.36,552.24
26.2003,593.09,550.99
26.2201,582.67,550.59
26.24,572.74,550.67
26.2599,563.59,550.74
26.28,555.47,552.39
26.3002,548.58,552.71
26.3202,539.06,554.57
26.3401,532.25,556.26
26.36,526.8,556.41
26.38,521.64,556.72
26.4001,517.51,556.58
26.4201,513.81,556.46
26.4399,511.25,555.37
26.46,509.4,555.7
26.48,507.92,556.76
26.5001,506.73,555.61
26.52,505.19,555.08
26.5401,503.75,554.87
26.5601,503,554.69
26.5801,502.4,554.36
26.601,502.92,554.68
26.621,502.14,553.95
26.6411,501.91,553.96
26.6612,501.93,553.57
26.6814,502.54,551.25
26.7013,503.03,550.4
26.721,502.83,550.52
26.741,502.66,550.62
26.761,501.93,551.89
26.7811,501.34,552.92
26.8013,501.27,552.33
26.8212,501.42,552.07
26.8412,500.14,551.65
26.861,499.51,551.32
26.881,499.81,549.66
26.901,500.05,551.13
26.9209,499.64,552.1
26.9411,500.11,551.68
26.9611,500.69,551.34
26.9811,500.75,550.88
27.001,500.4,550.7
27.0211,500.92,550.76
27.0409,502.74,550.41
27.0613,503.19,550.53
27.081,502.95,550.22
27.1009,501.76,550.98
27.1211,501.01,552.18
27.1414,501.21,551.75
27.1609,501.17,552.4
27.1812,502.13,551.92
27.201,502.11,550.73
27.2211,502.88,550.19
27.2409,502.91,550.35
27.2609,501.93,550.08
27.2812,501.94,550.06
27.3013,501.35,550.25
27.3211,501.88,550.8
27.3414,502.51,550.64
27.3611,505.2,550.51
27.3809,491.76,545.01
27.401,466.61,534.01
27.4211,436.89,521.41
27.4411,409.31,513.33
27.4609,382.85,506.86
27.4811,362.28,501.89
27.5012,346.42,498.51
27.5213,336.94,495.01
27.5409,332.95,494.21
27.5612,334.96,495.77
27.581,339.57,499.41
27.6009,346.85,502.93
27.6211,355.88,505.74
27.641,367.11,511
27.661,380.29,516.4
27.681,393.03,520.72
27.701,406.22,523.97
27.7211,420.38,524.18
27.7415,433.1,524.54
27.761,445.48,525.43
27.781,454.59,526.35
27.8011,463.27,526.88
27.821,470.01,529.7
27.8411,475.41,530.96
27.861,478.73,533.97
27.881,481.58,537.18
27.9019,484.07,538.94
27.9222,486.25,540.75
27.9423,487.8,542.4
27.9619,489.04,543.12
27.9822,491.83,543.5
28.0021,493.67,544
28.022,498.53,547
28.0423,516.23,556
28.0623,547.18,574
28.0822,588.55,593.2
28.1024,627.84,609.56
28.1219,656.67,615.85
28.142,669.54,614.68
28.1621,672.23,608.34
28.1823,668.58,600.27
28.2032,660.87,591.02
28.2232,651.49,585.02
28.243,639.99,580.41
28.2632,626.8,576.73
28.2842,612.04,574.78
28.304,599.83,571.43
28.3243,591.46,572.74
28.3442,583.17,575.79
28.3641,574.34,575.43
28.384,565.67,572.95
28.4044,558.94,570.16
28.4244,552.35,566.93
28.4441,545.68,564.34
28.4641,539.94,561.07
28.4841,536.15,558.86
28.5041,531.72,558.09
28.5241,526.78,557.07
28.5442,523.02,555.66
28.5642,520.42,554.32
28.584,517.53,553.26
28.6041,515.43,552.81
28.6239,512.74,553.25
28.6441,510.79,552.6
28.664,509.44,552.28
28.684,508.95,552.22
28.7042,507.16,553.18
28.7241,505.33,553.14
28.744,503.86,553.11
28.7642,503.09,553.69
28.7841,503.07,553.55
28.8044,502.06,553.64
28.8239,502.25,553.11
28.844,502,553.49
28.864,501.8,553.39
28.884,501.64,554.11
28.9039,500.71,554.69
28.924,500.17,555.55
28.9441,501.33,555.44
28.964,500.47,555.95
28.984,500.97,555.76
29.0039,500.98,557.61
29.0239,500.58,558.69
29.044,500.27,558.35
29.064,499.01,558.28
29.0839,499.81,557.62
29.104,500.65,556.1
29.1241,500.72,554.28
29.1441,500.98,554.02
29.164,501.78,553.42
29.184,501.62,552.94
29.2042,502.3,552.95
29.2246,502.04,552.96
29.244,502.23,553.17
29.2642,502.39,552.73
29.284,502.51,552.99
29.304,501.81,552.39
29.324,501.25,551.51
29.344,499.8,551.21
29.364,498.44,551.77
29.3841,497.55,551.41
29.404,497.04,552.53
29.424,496.63,553.42
29.4443,496.91,554.54
29.4643,488.12,547.63
29.484,469.3,524.91
29.5042,443.84,500.92
29.5241,419.27,479.34
29.5442,395.02,465.47
29.5641,374.81,457.38
29.584,358.25,456.9
29.604,346.6,463.72
29.624,340.68,470.58
29.6439,338.54,480.26
29.6641,339.84,491.41
29.684,343.47,502.13
29.7041,349.77,511.3
29.7243,356.22,520.04
29.7441,364.78,526.23
29.764,374.22,531.79
29.784,382.18,536.03
29.8041,392.54,538.62
29.8241,402.63,541.7
29.844,412.51,544.16
29.8641,421.61,545.93
29.884,430.68,547.54
29.9045,439.15,548.63
29.9241,446.52,547.51
29.9443,452.61,548.81
29.964,459.29,548.84
29.984,465.63,548.48
30.0042,469.51,548.98
30.0243,473.01,550.78
30.044,476.6,552.83
30.0641,479.08,554.66
30.0842,481.07,556.33
30.1042,483.05,556.46
30.1241,486.24,556.57
30.1441,487.59,556.66
30.164,488.68,557.13
30.184,491.14,558.5
30.2041,489.91,562.4
30.2241,499.93,573.92
30.244,519.14,602.74
30.264,548.32,637.19
30.2842,585.25,662.35
30.3042,629.2,674.88
30.3241,669.96,674.7
30.344,698.57,663.36
30.3642,710.86,646.89
30.384,711.68,628.11
30.404,703.95,611.69
30.4241,691.76,595.75
30.4443,677.21,581.6
30.464,661.37,571.68
30.4841,646.29,564.35
30.5039,631.63,558.28
30.524,616.71,555.22
30.544,602.77,552.78
30.564,590.01,550.02
30.584,578.41,548.62
30.604,568.93,548.69
30.6241,560.34,549.15
30.6442,552.07,549.12
30.6643,545.86,548.7
30.6842,539.49,549.56
30.704,533.59,550.05
30.724,528.47,550.04
30.7441,524.58,551.23
30.7639,518.66,551.38
30.784,514.33,550.31
30.804,510.06,550.25
30.8239,507.45,550.8
30.8439,504.16,552.44
30.8642,502.13,554.55
30.8839,501.9,555.84
30.9042,500.92,557.47
30.924,501.14,557.58
30.9441,501.31,557.66
30.964,500.45,556.93
30.984,499.36,557.94
31.0039,499.09,557.76
31.0239,499.67,559.2
31.0441,500.14,558.76
31.0641,501.11,559.21
31.0841,499.69,558.97
31.1043,499.75,558.57
31.1243,499.6,558.26
31.144,499.68,558.01
31.164,498.74,557.81
31.184,499.19,556.45
31.205,499.16,555.96
31.2249,498.32,556.56
31.245,499.06,556.05
31.265,498.65,557.24
31.2849,499.12,556.59
31.3049,498.89,554.67
31.325,498.12,556.14
31.3449,499.09,556.11
31.3649,500.27,555.69
31.3849,500.62,556.15
31.4049,501.3,555.92
31.4251,500.04,556.34
31.4451,499.43,557.27
31.4649,499.14,557.62
31.4849,498.91,557.89
31.5049,499.73,556.51
31.5249,499.99,556.01
31.545,498.99,556.21
31.5649,500.59,555.37
31.5849,499.87,556.09
31.6056,498.9,557.08
31.6252,498.72,557.46
31.6452,498.97,558.77
31.6649,499.98,558.81
31.6849,500.18,558.05
31.7049,499.75,558.04
31.725,499.4,558.83
31.7449,499.32,558.67
31.7649,499.65,557.73
31.7849,499.32,557.19
31.8051,498.46,559.15
31.825,497.37,560.32
31.845,479.69,557.86
31.8649,449.35,547.48
31.885,413.68,534.59
31.9049,379.15,522.27
31.9249,350.32,511.02
31.9449,329.45,503.81
31.965,313.56,499.85
31.9849,304.85,498.68
32.0051,302.68,500.74
32.0253,305.34,505
32.0449,311.88,511.4
32.0649,322.7,516.92
32.0849,335.56,521.33
32.105,349.85,524.67
32.125,363.48,527.53
32.1449,377.38,529.43
32.1649,390.31,531.54
32.1849,402.45,534.23
32.205,413.76,536.99
32.2252,424,539.59
32.2449,433.6,542.47
32.2651,441.88,544.58
32.285,449.91,545.46
32.3051,456.93,547.57
32.325,463.34,549.66
32.3452,467.27,551.92
32.3649,472.42,553.94
32.3851,476.53,554.35
32.4049,480.03,554.28
32.425,482.22,554.03
32.4449,484.78,554.62
32.4649,487.62,556.1
32.4854,487.9,560.68
32.5049,498.72,575.34
32.5249,521.57,599.47
32.5449,556.86,621.58
32.5649,604.29,632.66
32.5849,658.43,632.73
32.605,707.94,622.58
32.6252,736.96,609.27
32.6453,745.36,596.41
32.6651,741.09,585.13
32.6854,730.87,577.3
32.705,715.7,570.04
32.7249,699.36,564.24
32.7449,680.49,559.79
32.7649,662.39,557.43
32.7849,645.51,555.94
32.8052,628.01,554.76
32.8249,612.41,553
32.8451,598.33,552.2
32.8649,586.46,551.96
32.8849,574.57,553.17
32.9049,564.85,554.34
32.9249,550.88,556.47
32.9449,538.91,558.98
32.965,529.53,561.98
32.9849,522.22,563.38
33.0049,516.58,564.71
33.0249,511.46,565.17
33.0451,508.17,565.73
33.0652,506.34,564.19
33.0849,504.67,564.35
33.1049,504.53,563.88
33.1249,503.63,564.3
33.1449,502.3,563.84
33.1649,501.44,563.87
33.185,502.55,563.7
33.205,500.44,563.16
33.2252,496.95,562.93
33.2449,495.36,561.94
33.2649,494.49,562.75
33.285,494.59,560.4
33.3051,494.27,561.32
33.3255,495.82,560.66
33.3449,497.46,560.73
33.3649,498.16,559.98
33.3849,498.13,559.58
33.405,498.11,559.47
33.4252,498.48,559.37
33.4451,498.79,558.7
33.4652,498.63,559.56
33.485,498.7,559.05
33.5049,498.96,559.64
33.5249,499.57,558.91
33.545,499.06,560.73
33.5649,498.85,560.38
33.5849,498.48,561.51
33.605,498.58,560.8
33.625,498.46,561.24
33.645,497.57,562
33.6649,497.66,561
33.6849,499.33,561
33.7048,499.66,561.2
33.725,498.73,562.16
33.745,497.38,563.13
33.7649,496.51,563.7
33.7849,497.41,562.36
33.805,497.52,562.49
33.8252,497.42,562.59
33.8451,499.34,562.07
33.8649,500.67,562.06
33.8849,500.73,562.85
33.905,501.19,562.08
33.925,501.15,561.46
33.9449,500.72,561.77
33.9649,501.58,560.82
33.9849,500.26,561.25
34.0049,500.01,562.8
34.0252,500.41,562.64
34.0449,501.93,562.51
34.0649,491.54,554.01
34.0849,469.83,539.41
34.1049,441.87,524.93
34.125,410.89,514.14
34.1449,381.51,506.71
34.1649,355.41,499.57
34.1849,336.33,493.86
34.2051,325.86,492.49
34.2251,320.69,494.19
34.2449,320.35,496.75
34.2649,327.28,500
34.2849,335.63,502.8
34.3049,347.5,506.04
34.3249,360.6,509.83
34.3449,375.08,512.87
34.3649,388.46,516.89
34.3849,401.17,519.71
34.405,413.34,522.57
34.4249,423.87,527.26
34.4449,434.5,531.01
34.4649,444,535
34.4849,451,538.8
34.505,457,542.64
34.5252,462,546.31
34.5449,467.8,548.05
34.5649,472.64,551.44
34.5849,476.51,553.95
34.605,479.21,556.16
34.6248,481.57,558.93
34.6451,483.05,559.54
34.6649,483.84,561.04
34.685,484.87,563.03
34.7049,498.1,570.22
34.7249,524.48,589.58
34.7449,564.18,612.86
34.7649,610.35,633.89
34.785,654.28,647.51
34.8051,684.22,651.01
34.8252,698.58,646.21
34.845,700.66,638.97
34.8649,696.73,630.17
34.8849,686.78,620.54
34.905,672.83,613.63
34.925,659.26,607.7
34.945,644.01,604.36
34.9649,629.21,599.89
34.9849,614.77,595.91
35.0049,601.61,593.73
35.0253,589.89,589.18
35.045,578.91,585.15
35.065,569.13,581.12
35.0849,559.9,577.89
35.1049,551.72,575.32
35.1249,544.58,572.85
35.1451,537.86,571.88
35.1651,531.89,569.91
35.1863,527.31,567.52
35.206,523.85,565.82
35.2259,521.88,563.26
35.2461,518.3,561.6
35.266,515.64,560.28
35.2861,513.91,559.63
35.306,512.33,558.3
35.3261,510.87,558.84
35.3464,509.09,558.47
35.366,509.87,557.38
35.3859,509.3,556.7
35.406,507.84,557.16
35.426,506.87,556.73
35.4463,506.3,557.18
35.466,506.04,557.15
35.4861,505.43,558.72
35.5059,504.74,559.97
35.5262,503.4,561.18
35.546,502.32,561.74
35.5659,500.05,562.59
35.5859,500.04,562.48
35.6059,500.63,562.18
35.6261,499.51,562.14
35.646,499.01,562.32
35.666,500.6,562.45
35.6859,500.28,563.76
35.706,500.43,563.61
35.726,500.74,563.29
35.7461,500.99,562.23
35.766,499.39,563.98
35.7859,499.32,564.39
35.8059,498.85,564.71
35.8259,498.88,565.17
35.8461,499.31,564.93
35.8659,499.64,566.35
35.886,500.12,567.28
35.9059,500.49,567.62
35.9259,501.39,567.9
35.946,502.32,568.32
35.966,502.45,569.25
35.9859,502.96,567.8
36.0059,503.57,566.44
36.026,502.86,567.15
36.0459,503.28,567.32
36.0659,487.63,559.86
36.0859,461.5,547.49
36.1059,429.4,533.79
36.126,393.52,524.03
36.1459,362.42,517.23
36.1659,338.33,512.18
36.186,320.47,510.54
36.2059,311.17,511.24
36.2259,307.74,513.59
36.2461,307.79,517.87
36.266,313.63,521.9
36.2859,322.31,526.12
36.3059,332.25,530.69
36.3259,344,533.16
36.3463,356.2,537.32
36.3668,369.96,538.86
36.387,381.37,540.29
36.4069,393.09,541.23
36.4269,405.07,542.78
36.4469,416.26,544.23
36.4669,426.81,546.58
36.4869,436.65,547.27
36.5069,444.72,550.21
36.527,451.37,553.37
36.5471,457.3,556.5
36.5669,462.44,560
36.587,468.35,561.2
36.6069,473.68,562.76
36.6269,475.14,565.81
36.647,487.32,571.85
36.6669,511.05,581.28
36.687,546.24,590.82
36.7069,589.19,597.06
36.7269,623.95,598.05
36.7478,642.16,594.24
36.7678,649.93,588.39
36.788,648.34,583.51
36.8079,642.48,578.61
36.8279,634.18,574.29
36.848,623.54,572.83
36.868,613.04,571.46
36.888,609.23,573.37
36.9079,628.78,582.1
36.9283,650.63,590.88
36.9481,660.9,592.1
36.9679,661.32,588.48
36.9878,657.46,582.59
37.0079,649.57,577.47
37.0279,639.05,572.17
37.0478,627.64,568.34
37.068,615.51,565.47
37.0891,603.41,563.38
37.1089,591.73,562.1
37.1289,581.78,561.28
37.1489,571.63,560.63
37.1689,563.3,559.3
37.1889,554.24,559.04
37.2089,546.99,560.23
37.2289,540.79,561.59
37.2499,535.44,562.27
37.2709,529.75,561.41
37.2919,525.8,559.53
37.3119,521.64,559.23
37.3329,517.51,561.18
37.3539,515.81,560.14
37.3739,513.65,560.52
37.3939,512.92,560.81
37.414,500.33,564.05
37.4339,487.07,566.04
37.4539,478.25,567.83
37.4739,474,566.87
37.494,472.2,564.89
37.514,471.36,564.51
37.5338,472.09,562.61
37.5539,472.87,563.09
37.5739,474.9,561.07
37.5939,477.32,561.26
37.6138,479.65,560.61
37.6338,481.12,560.08
37.6539,483.9,558.87
37.674,485.12,559.09
37.694,486.7,559.88
37.7139,487.56,558.5
37.7339,489.04,557.6
37.7538,489.84,555.68
37.774,492.27,554.74
37.7939,493.61,555.2
37.8141,494.49,555.76
37.8339,495.39,555.2
37.8539,496.11,554.96
37.8739,496.89,554.97
37.894,497.51,555.38
37.9149,496.21,556.5
37.9358,495.97,556.2
37.9559,495.57,556.16
37.9758,496.06,555.53
37.9959,495.85,555.82
38.0158,496.08,555.66
38.0358,495.86,555.93
38.0558,499.69,555.34
38.0759,502.95,555.27
38.096,504.36,554.22
38.1159,504.89,554.17
38.1358,504.11,553.34
38.1559,503.89,552.87
38.176,505.11,551.3
38.1959,505.89,550.04
38.216,504.51,550.23
38.2362,503.21,550.78
38.2561,501.97,552.23
38.276,501.77,553.38
38.2959,501.42,554.11
38.3159,500.94,553.08
38.3359,500.95,553.27
38.356,501.96,552.61
38.3759,502.37,552.29
38.396,500.89,552.43
38.4162,500.91,551.75
38.4359,500.13,551
38.4559,500.31,550.2
38.4758,500.04,549.76
38.496,498.84,549.81
38.516,497.87,550.05
38.5358,498.89,549.24
38.5559,498.72,549.79
38.5758,498.37,549.63
38.596,499.3,548.1
38.616,498.44,548.48
38.6359,497.75,547.79
38.6559,497.8,548.23
38.676,498.64,547.78
38.6959,499.71,547.23
38.7159,498.97,547.98
38.7359,498.18,547.99
38.7559,498.74,548.19
38.7768,499.39,547.75
38.7969,499.71,548.2
38.817,499.57,549.96
38.8368,500.86,549.97
38.8568,501.89,549.97
38.8768,501.31,550.98
38.8968,501.45,552.38
38.917,501.56,551.31
38.937,500.85,551.05
38.9568,500.28,550.04
38.977,500.02,549.03
38.9969,499.02,549.22
39.0169,498.21,549.38
39.0369,497.37,549.5
39.0569,497.7,549.6
39.0769,497.76,548.88
39.0978,497.01,550.51
39.1178,496,551.4
39.138,495.4,551.92
39.1579,496.12,551.74
39.178,496.5,552.59
39.1979,497.4,553.07
39.2178,497.72,552.06
39.2379,497.18,552.65
39.2578,497.14,552.92
39.278,497.91,551.53
39.2979,498.73,550.43
39.3179,499.58,549.54
39.338,500.27,549.03
39.3578,501.41,548.63
39.3779,502.13,548.5
39.3979,500.7,550
39.4179,500.56,550.2
39.438,499.85,550.16
39.4579,499.28,549.93
39.4779,498.42,550.14
39.4979,497.74,550.11
39.5179,497.79,551.29
39.538,498.23,551.63
39.558,498.39,550.91
39.578,497.51,551.53
39.5978,496.81,551.62
39.6181,496.45,551.3
39.6379,496.56,551.24
39.6578,496.05,551.79
39.678,495.84,552.03
39.6979,496.27,551.43
39.7179,496.82,550.34
39.7379,496.85,550.47
39.7579,497.08,551.18
39.7778,497.47,552.34
39.7979,498.17,551.27
39.8179,497.54,551.62
39.838,497.43,552.1
39.8578,505.54,549.68
39.8779,519.04,543.94
39.8978,526.83,540.95
39.9179,531.46,540.16
39.9391,533.57,538.93
39.9589,533.86,537.94
39.9788,533.28,536.56
39.9988,530.83,536.04
40.0188,528.66,536.44
40.0388,526.13,535.95
40.0588,523.5,535.16
40.0789,520.8,532.53
40.0988,517.84,530.22
40.1189,514.67,527.98
40.139,511.14,528.38
40.1589,509.91,535.91
40.1799,500.93,555.52
40.1999,500.14,605.42
40.2201,498.91,662.54
40.2399,502.73,703.23
