Program Time [s],data 0,data 1
4.421,499.79,551.87
4.44103,499.43,551.9
4.46106,499.75,553.92
4.48095,498.4,553.74
4.50108,499.12,552.79
4.52104,498.89,551.43
4.54121,500.12,551.94
4.56086,498.69,551.56
4.58098,499.15,550.44
4.60086,498.12,548.96
4.62086,498.5,548.16
4.64087,498.6,547.73
4.66085,499.88,547.79
4.68084,500.3,546.63
4.70086,500.24,547.1
4.72092,501.99,547.88
4.74103,501.6,549.11
4.76093,502.48,550.28
4.78097,504.18,551.83
4.80091,504.34,553.26
4.82102,503.68,553.61
4.841,502.74,552.89
4.86094,501.79,553.91
4.88086,500.83,555.73
4.90085,500.07,557.58
4.92087,499.05,557.67
4.94094,500.24,558.73
4.96092,500.59,559.39
4.98093,501.88,560.51
5.00091,501.7,561.41
5.02084,501.96,561.73
5.04092,502.57,561.18
5.06186,503.45,561.14
5.08194,504.56,560.32
5.10208,504.45,558.85
5.12188,503.56,558.08
5.14187,503.25,559.67
5.16189,503.6,559.33
5.1819,501.68,559.67
5.20193,501.14,560.33
5.22193,501.31,562.67
5.24188,488.85,559.13
5.26195,461.48,548.51
5.28197,427.99,533.81
5.30211,393.19,519.24
5.3222,361.95,507
5.34294,335.76,498
5.36394,319.01,492.8
5.38387,309.01,491.44
5.40394,305.01,492.55
5.42395,305.2,497.04
5.44407,310.76,501.83
5.46387,318.61,508.87
5.48395,331.29,515.49
5.50394,345.43,519.59
5.52395,359.74,524.08
5.5441,373.6,527.66
5.56403,388.28,530.13
5.58389,400.62,532.7
5.60396,412.7,534.36
5.62389,422.76,535.49
5.64388,433.01,538.59
5.66393,442.6,538.47
5.68387,450.28,538.78
5.70393,458.63,539.42
5.72495,464.1,541.54
5.74499,469.08,541.83
5.76496,472.87,542.86
5.78494,476.09,542.89
5.80489,485.87,547.51
5.82496,511.5,560.61
5.845,554.2,581.49
5.86488,616.56,600.19
5.8849,684.85,610.95
5.90488,732.08,612.56
5.92505,754.86,609.65
5.94494,756.89,601.32
5.96495,748.91,592.86
5.98506,735.73,583.88
6.00492,717.78,577.11
6.02507,699.63,572.49
6.045,679.7,568.79
6.06488,660.76,566.03
6.08487,642.21,564.42
6.10499,618.77,557.94
6.12489,600.21,552.55
6.14493,584.57,549.04
6.16497,570.86,546.23
6.18495,558.69,542.99
6.20494,548.15,541.79
6.22493,539.92,540.83
6.24494,533.13,540.87
6.26503,526.91,542.29
6.28495,522.93,542.23
6.30494,519.34,543.39
6.32496,515.87,543.71
6.34489,513.3,544.77
6.36501,509.64,545.01
6.38487,507.51,545.41
6.40494,507.01,545.33
6.42487,505.61,547.26
6.445,504.29,547.21
6.46498,503.83,546.97
6.4851,503.06,546.97
6.50494,501.85,546.98
6.52489,502.28,547.38
6.54498,502.02,547.11
6.56495,501.62,547.09
6.58501,501.3,545.87
6.6049,500.84,545.29
6.62487,501.27,545.44
6.64489,500.82,545.55
6.66495,501.25,545.84
6.68489,501,546.27
6.70494,501.4,547.02
6.72487,501.72,545.21
6.74489,501.18,545.57
6.76523,501.74,547.26
6.78487,499.79,547.21
6.80502,498.43,547.36
6.82487,498.15,547.89
6.84502,497.92,546.31
6.86495,498.13,546.45
6.88499,497.91,544.96
6.90488,498.73,546.57
6.92499,499.18,547.65
6.94489,498.34,548.92
6.96497,498.88,548.54
6.98487,498.7,547.83
7.00487,500.96,548.26
7.02496,500.17,548.61
7.04506,499.73,548.09
7.06493,499.99,547.67
7.0849,501.19,547.54
7.10486,501.95,548.03
7.12491,501.56,547.42
7.14513,501.25,548.14
7.16587,502,547.51
7.18592,501,547.01
7.20587,501.4,546.81
7.22588,500.12,547.25
7.24595,500.3,546.8
7.26694,499.24,546.44
7.28695,498.19,546.35
7.30797,498.15,546.88
7.32791,498.32,548.1
7.34803,498.86,548.48
7.36799,498.49,547.99
7.38787,497.59,547.79
7.40789,498.47,548.23
7.42804,498.38,549.99
7.4482,496.5,548.39
7.46795,479.2,544.71
7.48793,449.16,536.17
7.50793,411.93,523.33
7.528,373.54,511.87
7.54802,340.23,502.69
7.56787,313.99,495.96
7.58787,296.39,491.56
7.60787,287.91,488.85
7.62793,286.93,491.28
7.64814,291.74,493.42
7.66788,301.99,497.94
7.68793,312.6,500.55
7.70792,327.68,504.24
7.72791,342.54,507.99
7.74801,357.63,510.99
7.76794,373.91,514.2
7.78787,388.73,516.56
7.80789,401.38,519.25
7.82788,413.3,521.8
7.84788,423.04,524.44
7.86793,432.63,527.75
7.88801,441.11,529.8
7.90797,448.29,532.24
7.92794,455.03,535.79
7.94789,460.62,538.23
7.96795,465.7,540.99
7.9878,470.56,541.39
8.00786,473.05,542.11
8.02789,477.04,543.09
8.04787,487.23,550.67
8.06788,508.98,572.74
8.08796,546.19,596.79
8.10894,602.15,610.43
8.12886,670.12,613.35
8.14888,724.1,609.48
8.16896,748.08,600.98
8.18891,753.46,589.98
8.20887,747.77,578.79
8.229,735.22,568.23
8.24895,719.17,560.38
8.2689,700.54,554.31
8.2888,682.43,549.45
8.30887,662.54,545.76
8.32894,643.84,543.21
8.34899,626.67,541.76
8.36893,611.93,540.81
8.38889,593.95,541.05
8.40896,579.36,541.44
8.4289,566.29,541.35
8.44894,556.03,540.68
8.46904,548.42,541.14
8.48895,542.34,541.32
8.50895,534.27,542.25
8.52987,528.82,542
8.54993,522.85,542
8.57086,518.08,541.4
8.59082,514.47,542.52
8.61092,511.37,544.02
8.6321,508.5,544.41
8.65192,507,544.53
8.67196,505.8,544.22
8.69179,504.04,544.78
8.71193,502.23,544.82
8.7318,501.19,546.06
8.75187,500.75,545.45
8.77188,500.2,545.96
8.79179,499.76,545.97
8.81187,498.41,545.17
8.83197,497.53,545.34
8.85197,495.82,546.07
8.87188,495.26,546.66
8.89198,496.41,545.93
8.91196,496.72,545.34
8.93199,496.18,544.87
8.95287,496.94,545.3
8.97304,496.95,544.44
8.99289,497.16,543.35
9.01287,495.93,544.28
9.0328,496.54,544.02
9.05289,496.04,544.42
9.07332,497.03,544.94
9.09287,497.22,544.95
9.11289,495.98,545.56
9.13293,494.98,545.85
9.15287,493.99,545.68
9.17287,494.19,545.94
9.1928,494.15,545.95
9.21307,494.12,546.16
9.23289,493.9,546.33
9.2529,495.12,545.66
9.27305,495.69,544.73
9.29287,495.96,544.19
9.31388,495.76,543.95
9.33393,496.01,544.36
9.35388,495.01,543.89
9.37388,494.21,544.31
9.39398,495.77,545.05
9.41387,496.21,544.44
9.43387,495.77,544.15
9.45387,495.42,545.92
9.4739,493.73,547.14
9.49402,494.39,545.91
9.51394,494.91,545.33
9.53391,496.33,544.86
9.55389,496.06,545.69
9.57397,495.85,545.15
9.59411,494.88,545.92
9.61395,494.5,546.54
9.63387,494.4,547.63
9.6539,495.12,547.1
9.6739,496.1,547.08
9.69388,497.88,547.27
9.71391,497.3,547.81
9.73389,496.04,548.25
9.75389,495.63,547
9.77389,495.31,545.8
9.794,495.85,546.24
9.81389,494.88,545.39
9.83387,497.1,545.51
9.85396,485.08,541.81
9.87388,458.86,530.85
9.89414,423.69,518.68
9.91388,389.75,504.94
9.93401,358.6,492.75
9.95388,333.48,483.2
9.9739,316.99,477.56
9.99392,306.99,475.85
10.0139,304.19,477.88
10.0339,305.75,481.9
10.0539,312.8,486.52
10.0739,322.44,492.22
10.0939,332.95,497.17
10.114,346.16,501.74
10.1339,357.93,507.39
10.1539,369.14,511.71
10.1739,380.52,516.77
10.194,394.01,522.02
10.2139,405.41,525.41
10.2339,415.93,527.33
10.2539,425.94,529.86
10.2739,435.55,532.49
10.2939,444.24,533.59
10.3139,450.59,534.47
10.3339,455.08,536.18
10.354,460.46,536.54
10.3739,464.97,536.64
10.394,469.97,536.31
10.4139,474.18,536.65
10.434,478.14,539.12
10.4539,480.32,539.69
10.4739,481.45,541.95
10.494,483.76,543.76
10.5139,484.61,546.21
10.5339,491.89,550.77
10.5539,512.31,564.22
10.5739,546.85,578.97
10.5939,597.88,591.78
10.6139,658.3,601.82
10.6339,709.44,605.86
10.654,736.55,604.09
10.6739,744.64,597.27
10.6941,739.91,591.22
10.7141,729.33,584.57
10.7339,712.67,577.26
10.754,693.53,573.21
10.7739,675.43,568.76
10.7941,655.94,565.41
10.814,637.95,561.53
10.8339,620.36,558.22
10.8539,606.49,555.78
10.8739,592.59,553.62
10.8942,579.87,551.5
10.9139,568.5,548.8
10.9339,559.2,546.44
10.954,549.96,544.55
10.974,543.57,543.44
10.9939,536.25,541.95
11.0139,530.8,540.16
11.0341,526.04,540.13
11.0539,522.03,539.5
11.0742,517.83,538
11.094,514.26,539
11.1139,512.01,538
11.1339,509.21,537.6
11.1539,508.37,536.28
11.1739,506.09,535.22
11.1939,504.47,535.38
11.214,502.18,535.7
11.234,500.34,536.16
11.2539,501.07,535.33
11.2741,500.46,534.06
11.2939,499.97,534.25
11.3139,500.17,533.4
11.3339,500.34,534.12
11.3541,500.67,534.7
11.3739,501.14,534.76
11.394,500.71,533.81
11.414,500.17,532.84
11.4339,499.53,532.88
11.4539,498.23,533.1
11.474,496.18,533.28
11.4939,494.15,534.02
11.5139,493.92,534.22
11.5342,492.13,533.78
11.5539,491.91,534.62
11.574,492.53,534.5
11.5939,492.42,535.6
11.6142,492.34,536.08
11.6338,492.87,536.46
11.6539,494.1,536.37
11.6739,495.48,537.3
11.694,496.18,537.24
11.7139,495.14,537.79
11.7339,495.12,537.63
11.7539,495.49,537.71
11.7739,495.19,538.36
11.794,496.56,538.89
11.8139,496.64,538.91
11.8339,497.52,539.53
11.854,498.01,539.42
11.8748,498.01,540.14
11.8949,497.01,540.11
11.9148,497.41,540.49
11.935,498.33,540.19
11.9549,498.26,539.35
11.9749,498.41,538.88
11.9949,498.93,539.51
12.0149,498.74,538
12.0349,499.99,538.4
12.055,500.19,539.12
12.075,499.76,539.1
12.0948,498.6,538.88
12.1149,498.48,538.5
12.1349,499.19,537.8
12.1549,499.35,538.04
12.1749,499.48,538.63
12.1948,499.78,538.51
12.2149,500.03,540.21
12.2348,501.22,541.76
12.2548,501.38,543.21
12.2749,501.7,544.17
12.295,495.56,544.54
12.3159,471.45,535.83
12.3359,436.16,520.46
12.3558,398.93,504.37
12.3759,364.94,492.1
12.3959,336.55,482.28
12.4159,315.24,476.82
12.436,301.79,474.86
12.4558,296.04,477.09
12.4759,295.83,481.07
12.4959,299.66,486.65
12.516,307.93,493.72
12.5362,318.14,501.78
12.556,331.92,509.22
12.576,346.33,513.38
12.596,361.87,518.7
12.6158,376.29,521.76
12.6359,389.63,524.61
12.6559,402.51,527.49
12.6758,414.41,530.39
12.6959,425.52,532.11
12.716,434.62,534.29
12.7359,443.1,535.23
12.7559,450.68,536.79
12.7758,457.74,537.83
12.7959,464.19,537.66
12.8159,467.75,537.33
12.8359,472.6,536.86
12.856,477.48,537.09
12.8761,482.19,537.87
12.8959,484.75,537.7
12.9158,485,539.36
12.936,488.6,541.69
12.9559,505.68,552.15
12.9759,539.34,567.92
12.9958,587.67,581.34
13.0159,652.74,589.67
13.0369,718.19,593.93
13.057,749.15,592.95
13.0769,758.32,586.96
13.0968,754.26,578.97
13.1169,742.01,571.77
13.1371,725.81,565.82
13.1569,707.64,562.45
13.1769,688.12,559.76
13.197,668.09,556.81
13.2167,649.27,554.85
13.2369,630.22,553.68
13.2568,613.18,552.94
13.2769,598.14,551.75
13.2969,585.11,551.2
13.317,573.89,550.16
13.3369,563.31,549.93
13.3569,553.25,549.74
13.3769,545.6,548.4
13.3968,538.48,546.12
13.4169,533.78,545.29
13.4369,528.43,544.23
13.457,524.34,542.99
13.4769,520.07,541.79
13.4972,517.86,540.03
13.5169,515.69,539.43
13.537,513.15,539.34
13.5571,512.52,539.67
13.5771,511.22,539.34
13.597,509.37,539.47
13.617,507.7,538.98
13.6369,506.56,539.38
13.657,504.65,540.7
13.677,504.12,540.16
13.697,503.09,539.53
13.717,502.88,538.42
13.737,502.9,539.74
13.7569,500.92,540.79
13.7778,501.74,542.63
13.798,501.79,541.71
13.8178,503.43,543.17
13.8378,504.14,542.53
13.8581,503.52,541.03
13.878,505.61,539.62
13.8982,503.89,536.7
13.9179,504.11,533.16
13.9381,502.09,530.33
13.958,501.87,529.66
13.978,502.3,527.53
13.9978,501.24,524.82
14.018,502.19,524.46
14.038,500.35,524.77
14.0581,498.88,524.81
14.0779,498.51,522.85
14.0981,499.6,525.08
14.118,498.48,525.86
14.1379,499.79,526.09
14.1579,498.03,526.27
14.1778,497.42,528.02
14.1979,495.74,529.01
14.2179,495.19,530.21
14.2381,496.35,531.17
14.2581,496.88,532.14
14.278,498.11,532.51
14.298,497.88,532.61
14.318,498.11,534.09
14.3382,498.09,535.47
14.3579,498.07,535.37
14.3778,499.26,537.5
14.3979,499.6,539.4
14.418,499.48,538.92
14.438,497.79,538.94
14.4578,497.83,539.55
14.4779,498.26,541.04
14.4979,499.61,541.03
14.5181,498.49,541.02
14.5379,499.99,541.42
14.5578,500.79,542.34
14.5779,500.03,542.27
14.5978,501.83,541.61
14.6178,503.06,542.69
14.6379,501.85,542.55
14.6582,501.88,543.44
14.6782,501.5,542.55
14.6978,501.4,543.84
14.7181,495.72,543.67
14.7379,471.18,538.54
14.7578,432.94,529.43
14.7779,391.75,519.35
14.7978,351,512.48
14.8179,317.4,506.58
14.8379,294.12,500.86
14.8579,281.3,497.29
14.8781,274.44,494.03
14.8981,277.55,492.43
14.9179,287.84,492.14
14.9379,300.27,493.71
14.9579,316.42,495.97
14.978,333.73,497.38
14.9982,351.39,498.9
15.018,367.91,501.12
15.0379,382.53,505.1
15.0578,397.82,508.48
15.0779,410.86,510.18
15.098,422.29,513.35
15.1178,433.43,516.68
15.1378,442.34,519.94
15.1579,451.07,522.55
15.1782,457.86,523.44
15.1982,463.09,524.95
15.2179,468.47,526.76
15.238,473.18,527.41
15.2581,476.54,528.93
15.2778,478.43,530.14
15.298,480.75,531.31
15.3183,485,532.05
15.338,486.4,532.44
15.3579,487.72,532.55
15.3779,491.77,534.44
15.3979,494.82,534.95
15.418,505.06,539.36
15.4378,535.44,552.69
15.4581,590.76,567.35
15.4778,659,581.08
15.4979,723.8,590.27
15.5179,759.44,593.41
15.5379,771.35,590.13
15.5578,767.88,584.3
15.5781,754.11,578.24
15.5982,735.49,572.79
15.6179,716.79,568.04
15.6379,695.83,564.43
15.6579,675.86,562.14
15.6779,656.49,559.31
15.698,638.39,557.65
15.718,620.71,555.32
15.7377,604.37,554.06
15.7578,590.3,552.45
15.7779,578.04,551.16
15.7982,567.23,549.33
15.8179,557.78,547.86
15.8378,550.83,546.89
15.8579,544.46,547.11
15.8778,537.77,545.29
15.8979,530.82,543.23
15.9181,525.05,542.38
15.9378,521.04,541.71
15.958,515.83,541.17
15.9779,512.27,541.53
15.9979,510.01,540.03
16.0181,507.61,538.82
16.0379,505.09,539.46
16.0578,502.27,537.57
16.0779,501.42,536.05
16.0978,499.73,536.44
16.1181,499.19,537.55
16.1378,498.75,538.24
16.159,498.6,538.79
16.1788,497.88,541.24
16.1988,496.9,542.79
16.2191,497.92,543.83
16.2388,498.14,543.66
16.2589,498.71,544.33
16.2787,498.57,545.47
16.2989,498.65,544.97
16.3199,498.52,544.98
16.3409,498.82,544.38
16.3609,499.26,544.11
16.3811,499.2,543.28
16.4008,499.16,542.83
16.4209,498.73,542.06
16.4418,498.38,542.85
16.4619,499.11,543.48
16.4818,498.89,542.98
16.5018,499.51,541.99
16.5219,500.01,542.99
16.5419,498.81,543.79
16.5618,497.04,546.03
16.5821,497.04,546.63
16.6021,497.03,547.3
16.622,498.02,548.04
16.6419,498.22,548.63
16.6619,498.97,548.71
16.6819,498.18,548.97
16.7019,497.54,548.37
16.7218,496.64,549.3
16.7421,496.31,549.44
16.7619,496.45,548.75
16.782,495.56,547.4
16.8019,496.65,546.32
16.8219,496.32,545.06
16.842,497.45,543.85
16.8619,498.96,544.08
16.8821,499.37,544.86
16.9018,498.5,543.29
16.9219,498.4,542.43
16.942,497.52,541.74
16.9618,497.41,542
16.9819,498.93,540.2
17.0019,480.54,532.76
17.0217,449.04,519.21
17.0419,411.83,504.36
17.0618,374.46,492.29
17.0818,340.57,484.43
17.1019,316.06,479.95
17.1218,299.85,478.76
17.1419,292.88,480.21
17.1619,291.1,482.96
17.1819,295.28,487.37
17.2018,303.02,491.1
17.2219,313.82,495.88
17.2417,326.86,498.7
17.262,342.28,500.36
17.2817,356.43,504.49
17.3021,370.54,507.19
17.3218,384.43,510.55
17.3419,396.75,512.64
17.362,408.8,515.51
17.382,419.64,518.81
17.4019,429.11,520.45
17.4221,438.29,522.96
17.4417,445.63,523.37
17.4618,453.5,525.29
17.4819,458.4,526.24
17.5018,463.92,526.79
17.5218,469.14,527.43
17.5418,472.71,528.54
17.5619,476.37,529.44
17.5819,477.49,530.15
17.6029,479.4,530.92
17.6228,484.72,534.53
17.6429,506.77,547.23
17.6627,547.82,568.38
17.6829,606.85,588.71
17.7029,666.68,600.36
17.723,703.35,604.69
17.7429,718.28,602.75
17.7628,722.22,598.4
17.7829,716.78,592.92
17.8029,706.42,588.14
17.8229,691.94,582.91
17.8428,674.15,577.73
17.8629,658.72,573.78
17.883,640.98,570.03
17.9029,624.38,565.42
17.9228,610.7,562.34
17.9428,596.76,559.47
17.9629,584.41,558.18
17.9828,574.73,556.74
18.0029,564.78,554.59
18.0228,556.03,551.27
18.0428,549.02,548.82
18.0628,542.62,545.66
18.0828,536.89,544.72
18.103,530.91,542.58
18.1228,525.53,543.06
18.1428,521.23,541.25
18.1628,516.98,540.4
18.1827,511.98,539.72
18.2029,510.19,539.78
18.2227,509.55,539.42
18.2429,509.64,539.74
18.2628,509.11,540.39
18.2827,508.29,540.51
18.3029,507.23,541.01
18.3229,506.19,540.61
18.3427,506.15,540.49
18.3629,506.52,541.39
18.3829,505.21,541.31
18.4029,502.37,540.85
18.4228,501.9,540.08
18.4429,501.52,538.06
18.4628,501.41,537.45
18.4828,500.73,536.16
18.5029,499.59,537.13
18.5228,499.47,537.5
18.5429,498.37,537
18.5628,499.3,537.6
18.5827,502.24,538.48
18.6028,502.59,538.99
18.6228,501.67,538.39
18.643,499.94,538.11
18.6628,498.75,537.49
18.6831,497.8,537.39
18.7027,498.64,537.91
18.7229,498.51,538.53
18.743,497.41,540.22
18.7628,496.93,540.58
18.7828,496.54,540.46
18.8027,497.03,539.97
18.823,495.83,539.98
18.8433,496.26,539.38
18.8628,498.21,539.9
18.8829,499.57,540.92
18.9029,499.45,540.34
18.9229,500.56,540.87
18.9429,500.45,540.9
18.9629,500.96,539.52
18.983,500.97,539.81
19.0037,499.37,540.05
19.0242,499.7,539.64
19.0443,499.36,539.51
19.0642,498.29,539.61
19.0838,497.63,539.49
19.1039,499.5,539.19
19.1237,497.8,537.95
19.1441,497.84,539.76
19.1639,498.47,540.01
19.1837,499.38,540.41
19.2037,499.9,541.33
19.2237,494.12,539.66
19.2439,473.5,525.53
19.2639,440,506.02
19.2838,402.2,489.42
19.304,365.56,480.73
19.324,334.45,478.99
19.3438,308.96,482.19
19.3639,290.77,489.35
19.3839,282.41,492.68
19.4038,280.73,496.15
19.4239,284.18,498.12
19.4441,293.35,498.69
19.464,304.08,500.55
19.484,317.26,502.44
19.5049,331.01,505.15
19.5247,346.41,506.92
19.5448,362.73,507.54
19.565,378.38,511.03
19.5848,392.7,513.23
19.6047,406.16,514.58
19.6247,418.13,516.86
19.6449,429.1,519.89
19.6647,439.08,522.11
19.685,447.07,523.69
19.7053,454.85,526.35
19.7249,461.08,529.68
19.7451,465.47,530.35
19.7651,470.57,531.68
19.785,474.46,534.34
19.805,478.17,536.07
19.8248,480.93,537.26
19.845,482.75,539.81
19.865,492.2,547.25
19.8848,513.16,567.8
19.9048,547.93,602.04
19.9248,594.54,640.63
19.9448,653.23,663.9
19.965,700.79,667.92
19.985,740.83,657.14
20.005,754.86,635.31
20.025,754.09,610.85
20.0449,744.27,584.28
20.0651,728.82,562.82
20.085,709.85,544.66
20.1048,690.68,530.53
20.1248,669.95,520.02
20.1451,650.76,513.82
20.1651,632.21,510.85
20.185,615.76,509.08
20.205,600.01,508.07
20.2247,585.41,508.25
20.2448,573.73,507.6
20.2649,561.78,508.88
20.2849,554.03,511.31
20.3048,545.42,512.84
20.3247,537.34,514.88
20.3451,530.67,516.7
20.3648,525.94,520.16
20.3849,521.15,521.53
20.4047,518.12,524.02
20.4249,515.69,526.22
20.4448,513.36,528.37
20.465,510.28,529.9
20.4848,508.23,530.12
20.5048,506.38,530.1
20.5248,506.11,531.68
20.5447,503.88,532.14
20.5649,504.11,533.51
20.5848,501.69,535.21
20.6047,500.55,535.17
20.6247,494.84,535.73
20.6447,490.87,539.39
20.6648,488.5,540.71
20.6848,487.4,541.57
20.705,487.92,542.65
20.7251,488.13,542.52
20.7449,489.31,543.22
20.765,488.65,542.98
20.7851,490.52,544.18
20.8049,490.61,545.14
20.8249,489.89,546.32
20.8449,489.31,546.25
20.8651,488.85,547.2
20.885,488.48,546.96
20.9049,487.98,546.17
20.925,488.99,544.54
20.9448,489.99,543.43
20.9648,490.19,544.14
20.9852,491.35,544.71
21.0048,490.28,544.17
21.0248,492.03,544.94
21.0447,491.62,545.35
21.0648,494.5,545.48
21.0853,495.6,545.58
21.1049,495.88,544.87
21.1247,497.1,544.29
21.1451,499.28,544.63
21.1649,500.03,543.91
21.1848,500.62,545.13
21.205,501.7,545.7
21.2252,502.36,544.96
21.2448,502.69,543.57
21.2649,502.35,541.85
21.2849,503.28,542.48
21.3049,504.42,541.79
21.3249,503.34,542.83
21.3448,504.67,542.46
21.3647,505.14,542.97
21.3848,504.11,542.18
21.4049,502.09,542.34
21.4249,501.87,542.07
21.4447,501.7,541.26
21.4647,502.76,542.21
21.485,490.41,539.17
21.5048,464.72,527.73
21.5248,428.18,510.39
21.5447,389.54,490.11
21.5649,355.23,474.29
21.5848,327.79,463.83
21.6049,309.03,458.06
21.6248,300.22,458.25
21.6447,297.58,463
21.665,300.66,470.2
21.6849,308.53,477.36
21.7049,318.22,485.49
21.7247,329.98,494.19
21.7448,342.98,502.15
21.7647,356.19,509.32
21.7847,368.75,515.26
21.8049,381,520.81
21.8247,393,524.64
21.8447,405.2,527.92
21.8647,416.76,529.53
21.8847,426.81,531.83
21.9047,435.65,533.46
21.9247,442.72,533.57
21.9451,449.97,534.45
21.9647,456.58,535.16
21.9847,462.06,537.93
22.005,468.65,538.54
22.0247,472.72,538.24
22.0447,476.38,538.99
22.0649,484.7,545.99
22.0847,502.76,564.59
22.1047,532.21,591.27
22.1247,571.77,608.42
22.1448,623.41,612.94
22.1647,681.53,605.75
22.1847,721.62,592.4
22.2049,739.3,578.52
22.225,740.84,566.42
22.2447,732.87,554.93
22.265,722.1,547.55
22.285,705.28,543.24
22.3047,686.42,539.19
22.3247,669.34,537.75
22.3447,651.07,537
22.365,633.86,538
22.3848,617.29,539
22.4049,603.03,538.6
22.4247,589.82,538.68
22.4447,577.06,538.94
22.465,566.05,539.36
22.4849,556.24,539.08
22.5047,550.19,539.07
22.5247,541.35,539.65
22.5447,534.48,540.92
22.565,529.59,538.94
22.5847,526.87,537.95
22.6049,522.69,536.36
22.625,520.16,534.49
22.6449,517.12,532.99
22.6649,513.5,530.79
22.6849,512.6,531.23
22.7048,511.48,529.79
22.7248,509.38,529.03
22.7449,508.51,527.42
22.7648,507.21,526.54
22.7847,505.36,526.43
22.8048,503.29,525.74
22.8249,501.43,527.4
22.8448,501.55,528.72
22.865,500.64,530.77
22.8847,501.11,533.02
22.9049,499.49,532.82
22.9248,500.19,533.05
22.9447,499.55,534.64
22.9649,499.64,534.31
22.9847,500.91,534.85
23.0047,499.53,534.88
23.0247,500.22,535.7
23.0447,499.18,536.96
23.0647,497.34,536.97
23.0847,498.67,536.98
23.1047,497.74,539.38
23.1247,497.59,538.11
23.1449,497.67,538.28
23.1647,498.14,536.43
23.1849,498.11,535.34
23.2049,498.69,533.67
23.2247,501.75,533.14
23.2448,501.8,531.11
23.2649,500.24,529.49
23.2847,500.39,529.39
23.3047,499.31,529.91
23.325,499.45,531.53
23.3448,500.96,532.02
23.3647,499.37,533.02
23.3847,499.9,533.42
23.4047,499.32,534.13
23.4247,499.85,535.71
23.4447,500.68,535.96
23.4647,500.95,538.37
23.4847,501.76,539.9
23.5048,501.01,541.12
23.5248,500.8,542.29
23.5448,500.84,542.44
23.5649,501.07,542.55
23.5848,500.26,542.24
23.6049,499.61,542.39
23.6249,499.29,544.11
23.6448,499.03,544.89
23.6647,490.22,544.31
23.6847,465.58,539.65
23.7049,429.66,529.32
23.7247,391.53,518.66
23.7447,356.62,508.92
23.7647,325.5,501.54
23.7847,303.6,495.43
23.8048,291.68,492.55
23.8248,287.14,492.84
23.8446,289.31,495.27
23.8646,296.65,499.82
23.8847,310.12,504.45
23.9046,325.1,507.36
23.9247,339.88,512.89
23.9447,354.9,515.71
23.9648,370.32,519.37
23.9849,385.26,522.5
24.0047,400.41,524.8
24.0247,413.52,525.84
24.0447,424.02,527.47
24.0648,433.22,527.98
24.0847,442.97,528.58
24.1049,451.58,530.06
24.1247,458.46,530.85
24.1447,463.77,531.48
24.1649,469.02,532.79
24.1847,473.01,533.63
24.2048,477.01,533.7
24.2247,479.01,535.36
24.2447,489.81,542.09
24.2647,518.05,557.87
24.2847,562.04,574.7
24.3049,622.83,587.96
24.3247,684.46,591.37
24.3446,717.57,590.09
24.3647,728.46,584.67
24.3848,726.97,580.14
24.4047,718.77,574.71
24.4247,705.82,570.37
24.4447,690.65,566.7
24.4647,673.92,563.96
24.4847,657.34,562.17
24.5048,640.87,560.33
24.5247,623.3,558.27
24.5446,609.44,556.01
24.5649,595.95,554.61
24.5847,582.76,552.09
24.6049,570.61,550.87
24.6248,560.89,549.1
24.6446,552.71,547.48
24.6647,544.17,546.58
24.6847,538.93,545.07
24.7047,533.75,543.65
24.7247,530,542.32
24.7449,525,541.66
24.7646,521,539.93
24.785,518,538.74
24.8047,515.2,536.99
24.8247,512.16,534.79
24.8447,510.93,534.04
24.8648,508.74,532.63
24.8848,508.39,532.9
24.9047,506.91,533.92
24.9247,505.33,533.34
24.9449,503.67,533.87
24.9647,502.33,533.7
24.9848,500.67,535.56
25.0049,499.93,537.05
25.0247,501.95,538.24
25.0447,501.16,538.19
25.0647,502.13,540.15
25.0847,502.7,540.32
25.1048,503.36,540.46
25.1246,501.69,540.57
25.1446,500.95,540.65
25.1648,499.76,541.92
25.1848,498.41,543.14
25.2047,499.13,543.71
25.2247,497.9,543.37
25.2446,497.52,545.29
25.2648,498.42,545.44
25.2848,498.93,545.75
25.3049,499.55,545
25.3248,498.44,546.8
25.3447,498.95,546.84
25.3648,497.96,546.87
25.3849,498.97,546.1
25.4052,499.97,547.08
25.4248,499.78,546.86
25.445,500.22,546.09
25.4646,500.38,547.07
25.4849,500.1,546.06
25.5053,499.68,545.85
25.525,500.75,545.88
25.5447,500,546.7
25.5647,500.4,548.16
25.5847,499.32,548.33
25.6049,499.25,548.26
25.6247,500,548.01
25.6447,489.4,545.41
25.6657,460.92,532.73
25.6859,423.34,516.98
25.7058,387.87,500.59
25.726,356.1,490.47
25.746,333.68,483.37
25.7662,317.94,482.1
25.786,311.55,483.08
25.8059,309.84,486.06
25.826,315.67,490.85
25.846,322.74,495.48
25.8658,332.79,501.58
25.8856,345.23,506.67
25.9059,359.79,510.73
25.9257,374.03,514.99
25.9456,388.22,519.79
25.9657,401.18,523.03
25.9857,412.54,525.43
26.0057,421.83,528.74
26.0257,432.07,530.59
26.0459,441.85,532.27
26.0657,450.28,533.42
26.0856,457.63,535.94
26.106,463.5,535.35
26.1256,468,536.48
26.1457,472.4,536.78
26.1658,477.92,537.83
26.1859,480.94,537.86
26.2063,484.35,538.29
26.2259,486.28,539.63
26.2458,488.62,541.7
26.2657,489.9,542.96
26.286,490.92,542.57
26.3061,491.34,542.46
26.3256,496.67,544.97
26.3456,516.13,555.57
26.3657,551.11,572.66
26.3859,599.69,587.33
26.4059,658.55,596.06
26.4256,702.44,600.45
26.4457,723.35,597.36
26.4658,728.88,592.09
26.4858,722.7,588.27
26.5057,712.16,583.02
26.5258,697.33,579.81
26.5457,679.06,576.05
26.5658,662.65,571.64
26.586,645.12,567.91
26.6059,629.9,564.73
26.6257,613.72,561.98
26.6458,599.97,560.99
26.6657,585.18,559.79
26.6857,573.74,558.63
26.7059,563.39,556.11
26.726,554.92,555.88
26.746,547.73,553.91
26.7657,540.99,552.73
26.7858,536.99,552.18
26.8061,530.79,552.34
26.8261,527.63,551.68
26.8462,523.51,551.14
26.8658,520.41,551.51
26.8861,517.72,550.61
26.9058,515.58,549.89
26.926,512.26,550.11
26.946,511.01,549.89
26.9658,510.21,549.91
26.9858,506.97,548.93
27.0063,502.37,545.74
27.0258,499.1,544.19
27.0462,496.68,544.56
27.066,495.74,543.84
27.0867,495.59,542.68
27.1074,493.88,541.54
27.1269,493.3,540.63
27.1468,493.64,540.31
27.167,494.51,538.84
27.1868,493.21,538.28
27.207,494.37,538.42
27.227,494.89,538.54
27.2468,495.52,539.03
27.267,496.21,539.02
27.2871,496.97,539.02
27.307,496.58,538.81
27.3268,497.06,539.65
27.347,498.45,540.92
27.367,498.16,540.54
27.387,496.93,541.43
27.407,495.94,542.74
27.4269,494.55,545
27.4469,494.24,544.2
27.4671,495.79,542.96
27.4868,496.84,543.77
27.5071,497.27,544.41
27.5269,496.81,545.53
27.5467,496.25,546.62
27.567,494.8,548.1
27.5869,494.04,548.68
27.6067,494.83,547.14
27.6269,495.27,545.91
27.6478,496.01,544.73
27.6677,495.81,544.19
27.6877,496.25,544.55
27.7078,496,545.44
27.7278,497,546.55
27.7479,491,549.04
27.7679,471,548.63
27.7879,442.2,544.91
27.8078,408.56,535.52
27.8279,376.65,526.42
27.8481,351.12,515.14
27.868,330.09,504.31
27.8877,315.68,496.25
27.9078,308.94,491.2
27.9279,306.95,489.56
27.9477,309.96,490.45
27.9678,315.97,492.16
27.9879,325.38,493.73
28.0078,337.9,496.38
28.028,349.52,499.3
28.0477,364.62,503.84
28.0683,379.69,507.47
28.0882,392.35,509.38
28.1079,406.48,512.9
28.1282,418.99,513.92
28.148,429.99,515.14
28.1679,438.59,516.71
28.188,448.67,520.37
28.2078,456.34,522.29
28.2279,462.47,523.84
28.2478,467.78,525.27
28.2677,473.22,526.21
28.2889,476.78,527.57
28.3093,481.02,528.46
28.3289,483.62,530.57
28.349,485.89,532.05
28.369,494.92,535.24
28.3889,516.33,538.79
28.4089,546.87,544.04
28.429,574.69,550.03
28.4488,593.55,553.22
28.4687,604.24,553.18
28.4889,606.39,550.54
28.5096,604.72,547.83
28.5289,600.97,543.27
28.5488,595.58,542.01
28.569,588.06,541.01
28.5889,580.25,539.01
28.6088,574.2,537.01
28.6286,574.96,540.41
28.649,589.37,550.92
28.669,611.09,565.94
28.6886,622.68,575.95
28.7087,628.14,578.16
28.7286,627.71,576.93
28.7489,621.57,574.14
28.7687,613.66,570.31
28.7888,604.92,566.85
28.8087,596.14,564.48
28.8288,587.71,561.39
28.849,579.17,560.11
28.8689,570.14,558.29
28.8886,563.31,556.63
28.9087,556.65,555.1
28.9297,549.12,554.28
28.95,541.49,552.83
28.97,536.4,551.26
28.9901,530.32,550.41
29.01,525.65,548.93
29.0296,523.92,546.34
29.0498,522.54,544.07
29.07,520.03,541.06
29.09,518.02,540.25
29.11,514.42,539.8
29.1298,511.74,538.64
29.1497,510.79,537.71
29.1699,509.63,537.17
29.1898,507.3,536.33
29.2099,507.44,535.87
29.2299,505.35,534.89
29.2498,504.28,534.92
29.2696,503.83,535.33
29.2901,502.46,535.67
29.3098,501.77,536.13
29.3298,500.22,537.31
29.3499,499.77,537.04
29.3698,500.42,537.64
29.3901,501.33,539.31
29.41,499.67,538.25
29.4299,498.33,538.2
29.4501,497.67,538.96
29.4698,497.53,538.77
29.4899,495.43,538.61
29.5097,495.34,539.09
29.5296,494.47,538.07
29.5496,495.58,538.26
29.5697,496.26,537.61
29.5899,497.21,538.29
29.6097,497.17,538.83
29.6297,496.93,539.26
29.6499,496.95,540.01
29.6697,497.76,540.61
29.6896,497.61,540.29
29.7097,497.69,540.63
29.7296,497.75,543.3
29.7496,490.6,542.44
29.7696,466.48,538.15
29.7897,433.18,533.52
29.81,397.15,530.02
29.8299,366.12,524.41
29.85,340.69,516.73
29.8699,322.55,511.19
29.8897,312.84,506.95
29.9096,309.08,505.96
29.9296,310.46,505.37
29.9499,316.57,506.09
29.97,327.05,507.47
29.9896,339.24,509.78
30.0097,351.19,513.82
30.0296,365.76,517.06
30.0498,378.2,520.45
30.0696,390.76,523.16
30.09,403.41,525.33
30.1098,415.33,526.66
30.1296,425.86,527.33
30.1498,434.89,529.06
30.1697,442.91,530.05
30.1899,449.53,533.04
30.2099,457.82,533.83
30.2299,463.26,533.87
30.2502,467.81,534.89
30.2699,472.85,536.11
30.2899,476.68,538.09
30.3099,479.54,538.87
30.3298,481.83,540.1
30.35,483.67,542.08
30.3696,485.73,542.06
30.3899,487.39,543.65
30.4098,502.11,551.12
30.4297,530.09,563.1
30.4496,569.67,574.48
30.4697,618.34,584.58
30.4896,656.87,589.87
30.5098,677.9,588.49
30.5298,685.92,584.39
30.55,684.53,580.52
30.5699,677.83,576.61
30.5901,668.86,572.29
30.6096,657.29,569.03
30.6296,642.03,567.63
30.6501,627.62,566.5
30.6696,613.9,563.8
30.6896,601.52,560.04
30.7097,590.62,557.63
30.7306,587.49,556.71
30.7506,604.79,556.16
30.7705,621.24,554.93
30.7906,629.39,552.15
30.8107,629.31,547.52
30.8306,625.65,543.21
30.851,617.12,540.37
30.8708,609.3,539.9
30.891,599.84,540.52
30.911,590.47,539.21
30.9307,581.98,539.77
30.9506,573.98,541.42
30.9707,567.18,542.53
30.9907,559.15,543.03
31.0106,552.72,542.82
31.0306,546.17,542.46
31.0507,540.34,543.17
31.0706,535.87,543.13
31.0908,531.3,543.71
31.111,526.44,543.56
31.1307,521.95,545.65
31.1508,519.36,546.32
31.1708,514.29,547.06
31.1909,511.63,546.85
31.2109,508.9,547.88
31.2308,506.12,547.9
31.2509,504.5,546.92
31.2709,503.2,547.54
31.2907,501.36,547.23
31.311,501.89,546.98
31.3306,500.91,546.59
31.3508,499.33,546.87
31.3708,499.66,548.3
31.3908,500.93,549.24
31.411,499.14,549.59
31.4309,499.12,548.87
31.451,498.69,546.9
31.4707,499.95,545.92
31.4909,504.16,547.53
31.511,508.13,548.63
31.5308,510.1,548.9
31.5511,512.68,548.52
31.571,513.95,549.02
31.5908,514.76,547.61
31.6111,512.81,545.89
31.6306,513.24,545.31
31.6506,512.4,544.65
31.6708,511.72,543.32
31.6906,510.37,543.06
31.7116,508.7,541.64
31.7327,507.16,541.32
31.7536,504.33,542.25
31.7737,503.06,541.6
31.7936,503.05,540.88
31.8136,503.44,540.31
31.8336,503.15,540.04
31.8547,502.32,539.84
31.8747,500.86,539.27
31.8946,499.49,540.41
31.9147,499.39,539.53
31.9346,499.91,538.83
31.9546,499.33,538.06
31.9746,500.06,538.45
31.9947,499.65,537.96
32.0148,499.92,538.77
32.0356,489.14,539.01
32.0556,478.71,540.41
32.0758,473.77,539.53
32.0957,471.21,539.82
32.1166,469.97,539.26
32.1366,469.38,539.41
32.1576,471.3,539.13
32.1777,472.64,539.1
32.1976,474.91,538.88
32.2176,477.13,538.7
32.2376,480.3,537.56
32.2577,482.64,538.05
32.2777,484.51,537.04
32.2976,486.21,537.43
32.3175,488.77,535.95
32.3377,488.42,536.36
32.3576,488.93,536.09
32.3776,489.75,535.47
32.3976,489.8,536.77
32.4177,491.64,536.22
32.4376,493.31,536.58
32.4578,495.25,536.66
32.4777,495.6,537.53
32.4977,496.28,538.42
32.5176,497.42,538.34
32.5378,497.94,537.67
32.5576,497.95,538.74
32.5775,497.36,538.39
32.5976,498.89,538.51
32.6176,498.91,538.21
32.6376,500.13,537.37
32.6576,500.5,537.29
32.6779,500.6,538.24
32.6977,500.88,537.39
32.7176,499.71,536.31
32.7376,498.76,535.65
32.7577,498.41,535.32
32.7776,497.33,537.65
32.7977,497.86,536.52
32.8177,496.49,536.82
32.8377,496.59,537.86
32.8577,496.87,538.08
32.8776,497.3,539.07
32.8977,496.84,539.25
32.9177,497.27,538.2
32.9376,497.62,540.16
32.9576,498.49,540.33
32.9777,498.2,540.06
32.9976,497.36,540.25
33.0176,496.48,539.8
33.0376,495.79,539.24
33.0577,494.63,540.79
33.0776,495.1,540.03
33.0978,495.08,538.83
33.1176,495.67,538.06
33.1377,496.93,537.25
33.1576,495.95,536.4
33.1778,499.36,537.32
33.1977,503.09,538.46
33.2176,505.67,539.36
33.2376,507.13,541.09
33.2579,506.91,540.47
33.2777,507.53,540.18
33.2976,507.02,539.54
33.3177,505.02,538.83
33.3377,505.21,539.47
33.3577,503.17,538.77
33.3778,503.14,537.82
33.3977,501.91,536.66
33.4176,502.13,536.12
33.4376,501.9,535.7
33.4577,501.32,535.36
33.4777,501.86,537.29
33.4977,500.49,537.23
33.5176,500.59,536.98
33.5376,500.27,536.19
33.5576,498.42,536.55
33.5778,498.13,536.24
33.5976,497.11,536.59
33.6176,497.49,537.47
33.6376,496.19,537.58
33.6577,486.15,539.66
33.6778,481.32,540.73
33.6979,477.46,542.18
33.7176,476.77,541.15
33.7376,475.61,541.92
33.7577,475.89,540.73
33.7776,475.91,538.79
33.7978,477.33,538.83
33.8176,479.06,538.06
33.8377,480.45,538.85
33.8577,482.56,538.68
33.8778,484.05,538.74
33.8976,485.44,538.6
33.9177,486.95,539.28
33.9376,487.96,538.42
33.9576,488.37,537.54
33.9777,491.09,536.63
33.9977,490.68,536.3
34.0176,499.34,535.84
34.0376,508.67,536.07
34.0577,515.34,535.86
34.0776,518.27,534.09
34.0978,518.62,533.87
34.1176,518.49,532.1
34.1376,518.19,529.28
34.1576,518.16,527.82
34.1778,517.12,526.86
34.1978,513.9,526.29
34.2176,513.72,524.43
34.2377,512.78,522.34
34.2577,511.42,520.47
34.2779,510.14,518.38
34.2976,509.31,515.5
34.3176,508.65,513.4
34.3376,508.52,510.92
34.3576,508.21,510.54
34.3776,508.57,509.63
34.3977,513.06,509.1
34.4178,515.05,507.68
34.4376,516.64,509.75
34.4577,521.11,510.8
34.4778,523.29,510.44
34.4977,525.43,512.35
34.5176,524.14,515.68
34.5376,524.32,523.74
34.5576,523.45,543.2
34.5777,522.36,589.96
34.5978,520.09,647.57
34.6177,520.47,687.45
34.6376,521.58,712.96
34.6577,525.26,714.17
34.6776,530.01,690.14
34.6978,531.81,652.51
34.7176,532.45,609.21
34.7376,530.96,565.57
34.7576,530.57,527.05
34.7778,528.65,495.04
34.7976,527.52,470.43
34.8176,526.22,452.35
34.8377,524.57,439.88
34.8577,521.46,434.7
34.8778,519.97,433.96
34.8976,518.97,438.37
34.9176,514.78,443.9
34.9377,511.82,449.32
34.9586,509.06,455.25
34.9787,506.05,462.8
34.9987,503.84,471.84
35.0186,503.27,478.27
35.0386,500.82,485.22
35.0586,499.65,492.18
35.0786,495.52,499.14
35.0987,492.82,506.51
35.1187,490.05,513.41
35.1386,488.44,523.93
35.1586,486.95,548.34
35.1786,484.16,594.47
35.1987,479.33,657.58
35.2186,472.86,701.86
35.2386,468.49,712.89
35.2586,468.99,693.91
35.2787,469.59,659.53
35.2985,473.48,619.02
35.3187,474.98,581.02
35.3386,477.18,547.82
35.3586,478.15,519.45
35.3796,479.52,498.56
35.3997,482.01,485.05
35.4206,484.41,478.24
35.4416,487.33,477.19
35.4625,488.66,479.15
35.4826,490.33,481.92
35.5037,492.66,486.94
35.5236,492.93,491.55
35.5437,490.95,498.44
35.5635,491.56,503.75
35.5837,490.45,509.6
35.6036,490.36,517.28
35.6237,491.88,523.23
35.6435,493.11,528.58
35.6635,494.69,533.06
35.6836,495.35,538.65
35.7037,497.08,542.52
35.7237,496.66,547.02
35.7446,498.93,547.61
35.7646,505.34,548.29
35.7846,508.88,549.23
35.8046,510.9,549.59
35.8257,510.12,551.47
35.8456,510.9,553.58
35.8656,511.32,558.66
35.8856,508.65,560.93
35.9056,508.52,560.14
35.9256,507.22,559.31
35.9455,507.17,559.45
35.9655,510.34,563.56
35.9856,508.07,561.85
36.0056,508.06,562.28
36.0255,507.65,560.02
36.0456,504.72,558.02
36.0666,507.57,557.61
36.0875,505.46,560.29
36.1076,504.37,560.03
36.1276,505.29,559.63
36.1477,504.83,561.5
36.1686,507.07,564.8
36.1886,500.05,566.44
36.2085,493.84,567.15
36.2286,491.47,567.52
36.2486,488.78,565.02
36.2686,487.42,563.21
36.2886,487.54,561.97
36.3087,488.43,559.98
36.3288,489.75,557.98
36.3486,488.6,556.19
36.3686,489.68,556.35
36.3886,490.34,556.88
36.4087,489.67,555.7
36.4285,490.54,555.76
36.4489,492.03,556.01
36.4686,491.82,555.61
36.4885,492.86,558.89
36.5087,492.49,559.91
36.5295,484.99,564.53
36.5496,479.79,565.62
36.5706,477.23,563.3
36.5915,477.59,562.84
36.6117,477.87,562.07
36.6316,479.3,559.66
36.6515,480.64,558.53
36.6715,478.91,558.62
36.6917,479.73,559.1
36.7126,481.58,558.68
36.7328,482.07,561.14
36.7535,482.85,560.71
36.7736,483.48,561.57
36.7935,481.79,559.26
36.8136,481.23,556.61
36.8336,483.98,555.28
36.8537,484.39,553.63
36.8736,484.31,552.9
36.8936,486.05,550.92
36.9135,485.44,551.34
36.9335,486.75,551.27
36.9536,486.4,552.62
36.9738,487.92,554.69
36.9936,488.34,554.75
37.0136,488.87,554.2
37.0337,489.7,555.16
37.0546,490.16,553.93
37.0746,490.32,553.54
37.0947,495.66,555.04
37.1146,499.53,554.23
37.1345,502.62,553.18
37.1545,505.1,553.95
37.1747,505.48,553.56
37.1946,507.18,553.05
37.2146,505.95,553.84
37.2356,506.76,551.47
37.2566,507.21,549.78
37.2765,504.36,549.42
37.2966,503.49,550.74
37.3167,504.39,549.79
37.3368,505.51,550.83
37.3567,507.21,549.46
37.377,503.77,549.37
37.3967,502.62,548.5
37.4168,502.09,548.6
37.4367,502.07,547.08
37.4568,501.66,546.06
37.4768,501.33,542.05
37.4967,501.06,542.64
37.5167,503.45,543.31
37.5366,503.96,545.45
37.5575,501.17,545.96
37.5775,501.53,547.37
37.5976,501.03,546.89
37.6175,502.02,545.12
37.6375,503.62,545.09
37.6576,503.29,544.27
37.6775,505.24,545.22
37.6976,506.99,546.18
37.7175,505.39,547.94
37.7375,504.51,548.35
37.7577,506.41,549.28
37.7776,506.13,546.03
37.7976,507.5,543.02
37.8176,508.8,541.42
37.8376,510.44,543.73
37.8575,513.75,547.59
37.8776,515.2,548.07
37.8976,515.96,551.46
37.9175,517.37,550.56
37.9376,520.7,551.45
37.9575,522.76,552.96
37.9775,526.01,553.37
37.9975,524.4,555.9
38.0175,519.92,554.32
38.0377,519.54,554.45
38.0587,517.63,560.16
38.0796,517.7,548.73
38.0996,516.76,547.58
38.1197,520.01,547.47
38.1396,520.41,546.37
38.1596,522.93,547.5
38.1806,520.34,545.4
38.2005,519.67,544.72
38.2207,515.94,543.58
38.2417,517.15,546.26
38.2626,517.92,545.01
38.2837,514.74,543.61
38.3045,513.59,540.29
38.3246,515.27,537.63
38.3456,515.22,536.1
38.3665,516.57,536.28
38.3866,518.46,538.83
38.4076,519.77,540.26
38.4276,520.01,541.61
38.4476,520.21,543.89
38.4675,522.37,545.71
38.4875,523.3,547.17
38.5077,527.24,549.13
38.5285,527.99,551.11
38.5486,528.59,553.49
38.5686,526.67,556.59
38.5886,525.34,555.87
38.6086,525.07,556.5
38.6296,522.06,560.6
38.6496,519.45,563.28
38.6705,501.36,563.62
38.6905,463.08,560.5
38.7116,415.27,556
38.7325,382.81,553.2
38.7536,364.85,548.96
38.7738,354.88,550.17
38.7936,354.7,546.93
38.8137,355.56,546.55
38.8337,361.45,545.04
38.8536,371.56,544.23
38.8736,384.65,546.18
38.8935,398.12,545.55
38.9135,405.3,541.84
38.9336,415.24,543.07
38.9535,423.79,542.86
38.9737,431.23,544.88
38.9945,439.38,546.51
39.0145,442.91,551.81
39.0345,451.33,557.85
39.0545,476.66,569.88
39.0745,517.93,583.3
39.0946,552.14,587.04
39.1146,571.11,589.23
39.1346,577.09,585.79
39.1545,578.27,582.43
39.1745,574.42,581.54
39.1946,568.13,578.43
39.2145,561.71,575.35
39.2346,555.57,572.68
39.2555,549.85,570.54
39.2756,544.08,567.03
39.2955,536.47,563.03
39.3156,530.37,556.62
39.3356,525.1,553.5
39.3555,523.28,550.6
39.3759,518.02,550.48
39.3957,511.02,552.18
39.4157,506.81,549.75
39.4355,502.45,548.4
39.4555,498.56,546.52
39.4756,497.85,543.21
39.4956,495.68,541.57
39.5155,496.74,545.06
39.5357,493.79,543.85
39.5566,492.44,540.48
39.5766,492.15,541.98
39.5966,492.32,540.58
39.6166,491.86,540.07
39.6367,490.68,538.25
39.6565,462.75,539.2
39.6766,419.8,548.76
39.6965,374.04,556.61
39.7165,344.63,563.29
39.7366,332.5,556.03
39.7565,330.4,549.42
39.7765,340.72,542.94
39.7964,356.98,538.15
39.8166,375.58,534.12
39.8367,393.87,530.1
39.8565,407.49,527.88
39.8765,424.99,535.1
39.8966,437.4,541.28
39.9165,462.12,545.63
39.9367,514.49,539.7
39.9566,579.39,529.96
39.9766,626.32,522.77
39.9975,653.45,521.81
40.0175,660.16,521.05
40.0376,660.33,522.84
40.0576,655.86,525.67
40.078,646.49,527.34
40.0978,635.99,531.67
40.118,621.19,536.74
40.1376,606.56,539.39
40.1576,594.44,540.91
40.1776,582.36,546.13
40.1986,571.28,549.3
40.2185,560.63,552.84
40.2385,555.1,556.47
40.2587,550.28,560.78
40.2789,546.83,560.22
40.2988,543.66,558.18
40.3188,544.33,557.54
40.3388,547.86,560.23
40.359,546.69,557.59
40.3785,545.75,557.67
40.3988,543.6,561.74
40.4188,541.08,558.99
40.4385,540.87,564.19
40.4588,540.29,559.55
40.4789,538.83,561.04
40.4989,538.47,563.03
40.5185,537.77,563.23
40.5387,534.62,564.38
40.5585,534.3,566.11
40.5786,533.24,569.08
40.5986,532.19,571.47
40.6185,530.15,571.37
40.6386,528.52,570.5
40.6586,526.02,566.6
40.6785,525.41,566.08
40.6986,524.93,563.46
40.7186,522.14,559.77
40.7385,522.12,557.22
40.7586,519.09,552.17
40.7787,514.87,548.14
40.7985,505.7,546.11
40.8186,468.96,551.89
40.8384,418.37,559.31
40.8586,367.69,564.05
40.8785,330.96,562.04
40.8985,313.96,556.03
40.9185,313.17,548.42
40.9385,318.34,539.74
40.9587,329.27,532.39
40.9785,341.82,530.11
40.9988,357.25,526.69
41.0185,372.6,524.75
41.0385,388.08,522.6
41.0585,401.87,522.28
41.0786,413.09,526.23
41.0987,428.47,534.58
41.1186,440.98,541.46
41.1385,451.38,545.57
41.1586,457.51,549.66
41.1785,463.21,548.13
41.1986,466.76,548.5
41.2185,470.61,548.8
41.2385,472.89,547.44
41.2585,480.31,550.15
41.2785,508.25,549.12
41.2986,550.4,539.3
41.3186,600.92,526.44
41.3385,638.74,518.55
41.3585,658.59,513.04
41.3785,663.47,512.23
41.3985,659.98,511.59
41.4185,652.98,512.27
41.4385,641.59,515.01
41.4595,628.87,517.61
41.4795,614.09,522.29
41.4995,599.88,526.43
41.5196,588.5,531.35
41.5396,577.4,534.48
41.5596,568.72,535.98
41.5795,557.98,536.98
41.5998,550.98,538.19
41.6195,544.98,539.75
41.6395,534.19,538.8
41.6595,527.15,538.44
41.6797,520.72,538.15
41.6995,515.98,538.32
41.7196,510.98,540.66
41.7395,507.58,542.33
