Program Time [s],data 0,data 1
3.58217,503.02,551.96
3.60212,501.41,551.57
3.62212,502.13,549.85
3.64217,501.5,549.88
3.66319,500.6,549.91
3.68314,499.88,552.13
3.70312,500.31,552.1
3.72311,501.45,551.68
3.74312,503.16,550.54
3.76312,502.52,549.84
3.78314,503.82,548.87
3.80411,503.06,548.89
3.8241,501.44,552.32
3.84411,501.56,552.65
3.86412,501.24,550.52
3.88411,501.4,550.62
3.90412,500.92,550.49
3.9241,501.73,548.6
3.94411,501.39,550.48
3.96411,501.51,547.58
3.98403,500.61,547.86
4.00419,501.09,548.09
4.02419,500.67,549.87
4.04411,500.34,550.9
4.06415,500.07,551.52
4.08427,498.85,550.82
4.10406,498.88,551.65
4.12405,500.11,549.72
4.14413,498.29,550.38
4.16413,498.63,550.5
4.18399,499.3,552.6
4.20412,499.04,552.08
4.22407,498.63,552.07
4.24433,499.91,552.65
4.26413,500.93,552.12
4.28398,499.54,550.7
4.30416,496.83,555.96
4.32399,495.67,557.37
4.34412,495.33,556.49
4.36399,498.87,556.99
4.38402,500.09,555.2
4.40411,501.87,554.16
4.42406,500.1,552.73
4.44423,498.88,552.98
4.46412,497.5,553.78
4.48402,497,554.23
4.50412,497.8,555.18
4.52399,497.64,554.15
4.54408,496.91,555.12
4.56405,497.13,557.09
4.58432,499.9,556.67
4.60402,500.32,555.34
4.62411,499.86,553.87
4.64415,499.69,553.7
4.66404,500.15,552.16
4.68399,501.12,550.13
4.704,502.3,551.7
4.72413,501.64,551.96
4.74412,501.11,549.17
4.76402,502.29,550.33
4.78411,503.23,551.27
4.80505,502.98,551.21
4.82504,503.39,551.17
4.84503,501.51,551.94
4.86513,501.61,552.55
4.88516,502.49,552.84
4.9061,502.39,553.27
4.92707,501.31,552.42
4.948,502.05,552.33
4.9681,502.04,554.87
4.98902,501.43,553.89
5.00911,502.15,554.11
5.02901,502.92,553.89
5.04916,503.73,553.31
5.06899,504.79,553.65
5.0892,505.43,555.32
5.10901,491.94,555.26
5.12923,461.95,547.41
5.14999,422.56,537.72
5.1701,381.85,525.78
5.19102,345.08,516.22
5.21099,315.46,510.38
5.23103,294.97,504.9
5.25112,283.58,501.52
5.2721,280.66,499.82
5.29315,283.13,498.65
5.31413,292.3,499.32
5.33503,306.04,499.26
5.35506,322.43,499.61
5.37597,341.35,500.69
5.3961,358.48,502.55
5.41703,375.98,504.84
5.43699,391.99,508.27
5.45703,405.19,510.42
5.47707,415.35,513.33
5.49706,427.08,515.67
5.51811,434.66,518.53
5.53805,443.33,520.83
5.5591,449.67,522.46
5.58003,454.53,527.77
5.60019,459.83,531.62
5.62009,462.46,533.29
5.64106,468.77,536.83
5.66106,472.41,541.87
5.68103,475.33,547.69
5.70108,493.67,559.55
5.72138,530.53,573.64
5.74106,585.63,585.72
5.76107,650.5,587.37
5.78105,710,584.1
5.80105,741.8,578.68
5.82114,751.64,572.34
5.84205,748.31,566.87
5.86197,737.45,561.7
5.8821,722.56,557.76
5.90309,705.45,555.41
5.92303,686.96,555.33
5.94303,668.37,556.06
5.96319,650.89,556.25
5.98322,633.51,555.8
6.00407,617.41,555.64
6.0251,603.33,556.11
6.04517,591.66,557.89
6.06518,580.93,558.11
6.08505,571.34,561.09
6.10605,562.08,561.87
6.12706,552.86,561.1
6.14716,545.69,561.08
6.16727,539.15,560.26
6.18705,533.32,559.41
6.20704,527.66,559.73
6.22697,522.33,560.98
6.24698,517.46,561.19
6.26715,513.97,560.35
6.28717,511.77,558.88
6.30718,510.22,557.9
6.32706,508.18,558.92
6.34806,505.54,559.74
6.36809,504.23,561.79
6.38805,503.39,561.83
6.40809,502.71,562.67
6.42803,501.57,561.93
6.44803,501.45,563.55
6.46806,501.16,561.44
6.48822,501.93,560.75
6.50803,501.14,560.2
6.52812,501.32,559.96
6.5482,502.45,558.97
6.56805,501.56,559.37
6.58807,501.05,558.3
6.60806,502.24,558.24
6.62804,500.79,558.79
6.64798,501.03,557.23
6.66807,501.83,555.99
6.68821,500.06,553.99
6.708,499.45,554.39
6.72804,499.36,556.51
6.74806,498.49,557.81
6.76806,498.99,556.85
6.78807,498.19,556.08
6.80809,497.55,555.06
6.82805,496.44,554.05
6.84906,495.75,554.64
6.86907,496.8,554.71
6.89008,497.04,554.97
6.91004,498.23,554.38
6.93006,499.99,554.9
6.95122,500.39,553.52
6.97222,500.71,552.22
6.99308,500.17,552.37
7.01325,501.14,551.1
7.03408,502.11,549.48
7.05503,502.69,548.18
7.07503,501.95,547.15
7.09498,500.36,546.12
7.11495,498.49,546.69
7.13529,497.59,545.55
7.15501,498.07,546.04
7.17508,498.86,546.64
7.19595,487.29,543.51
7.21602,457.43,540.61
7.23605,416.74,532.49
7.25606,376.79,523.99
7.27704,341.04,512.59
7.29705,312.63,500.87
7.31711,293.3,492.3
7.33707,283.24,486.44
7.35794,281.39,481.75
7.37819,285.52,479.8
7.39821,293.61,480.44
7.41807,305.49,485.55
7.43817,317.79,491.64
7.458,331.83,493.51
7.47912,347.07,499.21
7.49919,363.25,503.97
7.51905,377.6,508.37
7.53902,392.88,513.5
7.55926,404.91,518.6
7.57906,418.72,522.08
7.59902,428.78,526.06
7.61901,437.02,528.65
7.64054,444.42,530.52
7.65915,449.74,533.62
7.68,455.19,536.69
7.70015,460.55,538.75
7.72,466.44,539.2
7.74,471.15,540.56
7.76002,482.92,546.85
7.78009,508.74,561.08
7.8002,551.59,577.26
7.81995,609.07,590.61
7.84006,681.06,598.49
7.86022,734.45,599.79
7.88001,757.36,599.23
7.89999,761.69,594.79
7.92001,756.35,591.63
7.94004,742.48,585.7
7.9601,725.58,578.36
7.98004,706.27,571.09
8.00002,686.81,566.67
8.02002,667.45,563.34
8.04005,649.76,560.67
8.06001,632.81,557.54
8.08013,615.25,556.03
8.1001,600.8,552.42
8.12,585.84,549.74
8.14,574.87,547.99
8.16002,565.3,545.99
8.18002,556.64,546.39
8.2,548.71,546.52
8.22002,542.77,544.01
8.24,537.01,540.41
8.26,533.41,540.53
8.28001,529.53,540.22
8.30001,523.42,539.58
8.32001,518.94,540.66
8.34001,516.15,542.53
8.36013,513.32,543.02
8.38002,511.26,543.82
8.40002,509.01,546.66
8.42014,506.6,545.52
8.44013,506.48,545.62
8.46003,505.99,546.3
8.48004,503.39,548.04
8.50001,503.31,548.43
8.52004,501.65,552.54
8.54006,500.12,551.03
8.56001,499.5,550.03
8.58,498.2,549.02
8.60006,498.96,547.02
8.61999,498.57,547.01
8.64013,499.65,546.81
8.66018,498.52,546.05
8.68002,497.82,546.24
8.70031,498.05,545.39
8.72001,497.44,546.11
8.74,496.75,547.29
8.76002,497,548.23
8.78,498.4,548.19
8.80005,498.52,548.35
8.82001,498.62,549.28
8.84002,497.69,547.22
8.86003,498.36,544.98
8.88002,497.08,545.18
8.90004,497.27,546.95
8.92003,496.81,546.16
8.94003,494.85,545.13
8.96004,494.28,545.7
8.98004,495.62,544.76
9.00003,496.9,544.41
9.02003,496.52,543.53
9.04001,497.22,544.02
9.06001,497.97,543.62
9.08013,496.38,543.89
9.10007,498.5,541.91
9.12002,499.4,541.13
9.14021,498.32,539.91
9.16007,497.46,539.52
9.18002,498.97,541.82
9.20015,485.17,540.46
9.22021,453.34,531.36
9.24001,415.67,522.09
9.26003,378.34,516.27
9.28017,343.07,514.82
9.30007,312.66,511.65
9.32003,290.52,504.92
9.3401,277.42,499.74
9.36002,271.34,496.39
9.38002,272.87,493.71
9.40008,279.49,491.57
9.42,292.2,491.86
9.44001,305.36,493.89
9.46004,320.49,498.71
9.48003,337.19,500.77
9.50002,352.55,500.01
9.51999,368.84,502.01
9.54002,384.47,504.21
9.56002,397.78,508.37
9.58002,411.82,512.69
9.60003,422.86,515.35
9.6201,433.29,516.88
9.64002,442.23,517.91
9.66002,449.98,520.93
9.68003,456.59,524.54
9.70001,463.07,525.83
9.72003,467.66,526.67
9.74022,473.12,528.33
9.76003,475.7,530.87
9.78002,480.56,535.09
9.80018,497.65,547.67
9.82019,530.32,567.94
9.84014,579.85,581.75
9.86022,645.88,588.2
9.88015,718.71,586.16
9.90036,757.77,578.93
9.92027,770.21,572.94
9.94,767.37,567.55
9.96016,757.1,562.04
9.98008,742.08,558.63
10.0002,723.06,553.91
10.0202,703.85,553.93
10.0403,683.28,552.74
10.0601,663.42,552.19
10.0802,645.34,551.75
10.1004,627.07,549.2
10.1203,610.86,548.36
10.1401,594.69,550.09
10.1601,587.55,550.67
10.1801,580.64,551.74
10.2002,572.91,552.19
10.22,564.13,550.75
10.2403,557.5,549.6
10.26,551.2,550.68
10.28,545.56,549.55
10.3001,540.05,549.44
10.32,535.84,547.55
10.34,532.27,546.04
10.36,529.02,545.03
10.38,523.61,543.62
10.3999,519.29,542.5
10.4201,516.03,543.8
10.4401,513.23,541.64
10.4604,511.58,541.71
10.48,509.26,541.17
10.5002,506.81,541.14
10.52,506.05,541.31
10.54,504.64,541.45
10.56,503.31,540.16
10.58,503.65,540.53
10.6001,501.72,541.42
10.62,500.98,540.74
10.64,499.78,541.99
10.66,498.22,541.39
10.6801,498.38,540.91
10.7,498.3,541.73
10.72,499.84,540.78
10.74,497.27,540.43
10.7599,495.82,539.74
10.7799,494.06,539.19
10.8002,495.84,539.75
10.8201,495.48,539.2
10.8402,494.98,540.76
10.86,494.18,539.41
10.8799,494.75,540.53
10.9,495.8,540.62
10.9199,496.84,540.7
10.9401,496.87,541.76
10.96,496.3,542.41
10.9799,494.84,542.33
11.0001,495.67,543.86
11.02,496.74,542.69
11.0399,496.99,543.35
11.0599,497.79,542.68
11.0799,498.83,542.54
11.1,499.27,541.64
11.1201,500.41,541.31
11.14,499.33,541.65
11.1599,500.86,541.32
11.1799,500.29,541.25
11.2002,499.23,542.6
11.2201,499.79,541.88
11.24,499.03,542.91
11.2599,498.02,543.32
11.2801,497.22,541.46
11.3002,496.37,543.37
11.32,495.3,543.29
11.3399,496.04,543.84
11.3599,500.23,544.87
11.38,483.99,539.69
11.4001,447.79,529.56
11.42,403.63,521.64
11.4399,358.3,511.52
11.46,319.44,500.61
11.4801,289.35,492.29
11.5002,269.28,486.03
11.5201,259.03,482.03
11.54,257.62,485.22
11.56,263.3,488.58
11.58,275.04,492.26
11.6001,289.43,493.81
11.6199,306.14,497.05
11.6399,324.72,500.84
11.66,343.17,504.47
11.6799,360.34,508.18
11.7001,376.47,509.34
11.72,391.78,515.07
11.74,406.02,515.66
11.7602,418.42,517.33
11.78,429.93,520.66
11.8002,439.35,522.93
11.8199,446.88,523.54
11.8401,454.9,526.23
11.86,461.12,527.59
11.8802,466.7,530.47
11.9001,488.56,542.98
11.9201,529.45,559.78
11.9402,588.76,571.42
11.9602,665.21,576.94
11.9802,735.76,579.55
12,771.41,576.64
12.0201,782.13,571.91
12.0399,777.3,567.53
12.0602,763.84,563.82
12.08,745.87,562.46
12.1003,724.9,559.97
12.1201,704.92,558.17
12.1402,683.34,556.14
12.1599,662.67,555.11
12.1799,643.53,553.69
12.2002,625.83,552.75
12.22,610.66,552.8
12.2401,595.73,550.04
12.26,582.38,548.23
12.2801,570.71,546.39
12.3,560.57,545.11
12.32,552.65,543.89
12.3401,546.52,541.91
12.36,538.62,542.73
12.3801,531.89,541.38
12.4,528.32,542.91
12.4202,522.85,541.32
12.44,518.88,541.06
12.46,518.11,541.05
12.4801,514.88,539.84
12.5002,513.31,541.27
12.5204,510.85,541.42
12.5402,507.48,542.73
12.5599,505.58,541.59
12.5801,504.67,540.67
12.6001,504.53,541.14
12.6203,502.63,540.91
12.64,500.9,542.53
12.6599,499.72,542.22
12.6799,498.18,542.18
12.7004,498.14,543.74
12.7201,498.11,543.39
12.7402,499.89,543.11
12.76,499.71,541.09
12.7802,500.17,542.07
12.8002,498.14,541.26
12.82,499.11,541.21
12.84,499.69,539.77
12.8602,498.75,538.41
12.88,499.8,537.73
12.9003,500.04,537.78
12.92,500.43,537.03
12.9401,499.95,538.82
12.9603,498.16,538.46
12.98,497.53,537.57
13.0001,496.82,537.25
13.02,495.26,535.2
13.0402,494.6,535.76
13.06,493.48,535.61
13.08,492.19,535.09
13.0999,491.15,536.27
13.1202,491.12,535.62
13.14,489.5,535.89
13.1601,489.8,536.11
13.18,488.24,534.69
13.2001,488.59,532.95
13.2202,490.27,531.76
13.2401,489.82,531.41
13.2602,489.65,530.93
13.28,491.52,532.94
13.3002,492.22,533.35
13.3202,491.37,533.88
13.3402,491.9,534.71
13.3603,491.12,536.77
13.3799,490.7,537.81
13.4001,489.56,540.65
13.4199,486.05,543.92
13.4403,461.84,543.34
13.4602,423.47,537.87
13.4801,381.78,529.09
13.5001,340.82,521.08
13.52,307.06,516.46
13.5404,282.44,508.57
13.5601,266.76,504.05
13.58,262.4,499.04
13.6,263.32,495.84
13.62,269.26,494.87
13.6402,280.61,495.89
13.6599,296.09,496.52
13.6801,312.87,497.01
13.7004,329.89,498.01
13.7204,348.32,499.81
13.7402,366.85,502.85
13.7601,382.88,504.88
13.7801,397.71,507.5
13.8002,411.56,509.6
13.82,423.65,512.48
13.8401,433.32,514.18
13.8602,442.06,516.55
13.8801,451.05,519.04
13.9,457.84,519.83
13.9202,463.47,522.46
13.94,464.78,523.17
13.9601,479.02,532.14
13.9801,508.62,548.71
14.0003,552.09,567.17
14.0199,610.07,578.93
14.0403,676.46,581.75
14.0601,738.97,580.2
14.0801,773.17,574.76
14.1002,780.94,567.61
14.1203,775.95,560.09
14.1401,760.96,554.47
14.1603,742.57,550.17
14.1802,722.46,545.94
14.2003,700.56,544.35
14.2203,680.65,540.68
14.2401,660.72,540.15
14.2602,640.98,540.12
14.2802,623.78,538.69
14.3004,607.43,539.15
14.3204,593.14,539.92
14.3401,581.31,538.54
14.3599,571.65,535.03
14.3803,561.72,534.42
14.4002,552.78,533.74
14.4203,545.62,535.99
14.4401,541.3,538.19
14.4602,536.24,537.55
14.48,530.79,538.64
14.5004,525.63,538.72
14.5203,520.91,537.97
14.5402,516.72,539.38
14.5599,510.98,539.3
14.5799,507.98,538.44
14.6,505.99,537.35
14.62,504.39,534.68
14.64,503.11,534.55
14.6601,503.49,534.64
14.6802,502.39,534.31
14.7004,501.31,533.45
14.7202,499.25,535.36
14.7401,499.8,534.89
14.7601,499.64,535.11
14.7802,498.51,534.09
14.8,498.61,533.47
14.8201,496.89,531.78
14.8402,494.91,532.82
14.8604,494.93,533.06
14.88,492.54,534.65
14.9004,492.23,534.52
14.92,491.39,534.81
14.9402,491.51,535.45
14.9602,490.01,536.96
14.9802,490.01,536.37
15.0004,489.61,536.69
15.0203,489.48,536.16
15.0403,489.79,536.52
15.0601,490.83,536.22
15.0801,491.46,537.38
15.1001,491.37,537.1
15.1202,492.1,540.08
15.1399,493.28,540.26
15.1599,494.82,541.41
15.1799,494.86,542.33
15.2001,494.89,544.06
15.2203,495.51,546.05
15.2404,496.81,546.04
15.2602,499.25,546.63
15.2801,499,547.51
15.3002,498.6,545
15.3199,499.08,545
15.34,500.26,544
15.3602,499.61,544.6
15.3801,498.49,544.08
15.4004,499.19,542.07
15.4203,498.35,541.45
15.4403,495.88,543.56
15.4602,502.51,543.25
15.48,510.6,542
15.5,515.48,541.4
15.5199,517.79,542.52
15.5403,518.83,541.42
15.5603,519.46,541.53
15.5803,518.97,543.63
15.6003,517.18,543.5
15.6202,511.34,544.8
15.6399,483.07,545.64
15.6602,440.06,544.31
15.6801,388.85,546.25
15.7004,340.88,544.4
15.7201,299.3,540.12
15.7401,271.24,530.9
15.7602,254.39,520.12
15.7801,248.91,508.69
15.8001,251.33,498.55
15.8204,261.47,490.64
15.84,275.17,486.92
15.8602,293.34,484.53
15.88,312.87,484.23
15.9001,332.1,486.18
15.9202,351.88,487.94
15.94,369.1,491.76
15.9603,385.68,495.2
15.98,399.75,498.96
16,414,503.37
16.02,427.8,506.9
16.0399,436.24,511.52
16.0599,445.19,515.21
16.0799,452.95,517.97
16.1002,460.36,518.38
16.1203,466.69,520.1
16.1402,471.35,520.48
16.1601,476.08,522.98
16.18,478.06,527.59
16.2,487.85,534.47
16.2199,514.88,546.18
16.24,556.71,557.94
16.26,610.56,564.55
16.2801,650.25,567.24
16.3001,671.2,567.59
16.3204,678.16,564.68
16.3401,676.53,562.74
16.3603,672.02,560.39
16.38,661.62,559.91
16.4,650.49,558.93
16.4202,639.2,556.94
16.4401,626.96,555.36
16.4599,615.37,552.48
16.4801,601.49,550.99
16.5003,591.39,550.79
16.5201,568.72,550.23
16.5403,545.57,549.39
16.5601,530.66,547.91
16.5802,518.13,544.93
16.6005,509.1,542.94
16.6201,504.48,540.35
16.64,499.98,536.68
16.6605,498.19,534.55
16.6801,496.75,533.04
16.7005,495.2,532.43
16.7203,495.56,530.94
16.7402,494.85,532.15
16.7602,494.88,531.12
16.7801,493.9,532.3
16.8006,495.32,533.04
16.8201,494.46,533.03
16.8399,496.17,534.23
16.86,496.33,535.78
16.8799,495.87,537.22
16.9002,496.09,537.58
16.92,496.27,539.06
16.9403,495.02,536.85
16.9604,494.42,537.28
16.9799,493.93,540.42
17,493.95,540.74
17.0202,495.16,539.39
17.0399,494.93,539.11
17.0601,494.94,538.09
17.08,496.35,538.67
17.1001,497.48,539.54
17.1201,497.39,539.23
17.1404,498.31,538.98
17.1599,497.65,539.59
17.1799,498.72,538.07
17.2002,497.97,537.46
17.22,497.98,537.36
17.2401,498.58,538.89
17.26,498.47,538.71
17.2799,498.37,539.37
17.3002,498.3,538.3
17.3201,498.04,537.84
17.3401,498.23,538.87
17.36,497.98,538.3
17.38,497.19,538.24
17.4001,497.35,536.99
17.4201,498.08,536.99
17.4402,497.46,534.99
17.4599,497.57,535.39
17.4799,498.66,535.92
17.5,498.93,536.53
17.52,499.74,535.43
17.5403,499.59,537.54
17.5604,500.07,536.43
17.5801,499.66,536.75
17.6003,499.33,537.2
17.6202,500.46,537.36
17.6404,502.17,537.69
17.6602,499.94,537.75
17.68,500.35,538.2
17.7,496.68,537.56
17.72,478.34,530.85
17.7399,446.47,519.48
17.7603,411.78,509.18
17.78,382.82,501.15
17.7999,362.86,497.92
17.82,349.89,496.53
17.84,344.71,498.23
17.8601,345.77,499.18
17.88,351.01,501.95
17.9,362.81,503.16
17.9202,374.65,506.12
17.9402,386.72,508.3
17.96,396.38,511.04
17.9802,405.5,513.63
18,417.4,516.91
18.02,428.72,519.32
18.04,436.58,520.06
18.06,445.06,521.45
18.0802,452.25,524.36
18.1002,458.8,525.29
18.1199,463.64,527.03
18.1401,468.91,529.42
18.16,472.93,530.74
18.1801,475.74,533.99
18.2003,484.39,536.99
18.2202,509.32,548.39
18.2401,549.45,564.52
18.26,604.96,573.61
18.2802,671.57,579.49
18.2999,741.66,580.59
18.3199,787.32,581.47
18.3399,804.06,579.78
18.3599,802.05,577.62
18.38,788.44,574.9
18.3999,768.95,572.12
18.4199,748.16,568.7
18.4399,724.33,564.76
18.46,700.86,562.6
18.4799,678.49,557.88
18.4999,658.79,554.91
18.5199,639.43,552.93
18.54,622.35,549.74
18.561,605.48,547.59
18.581,591.18,547.87
18.6019,578.75,544.9
18.622,568.2,542.52
18.6431,558.96,541.42
18.663,550.57,539.93
18.684,549.05,539.35
18.704,549.44,539.68
18.7239,544.95,541.14
18.744,540.96,542.11
18.764,535.77,544.09
18.7849,532.62,542.67
18.8049,529.49,542.14
18.8249,527.19,542.11
18.845,522.96,543.89
18.8649,520.56,543.51
18.885,516.65,544.81
18.905,514.72,544.05
18.9249,512.78,543.44
18.9449,510.82,542.75
18.9651,509.06,542
18.985,508.05,542.2
19.005,505.44,543.76
19.0249,505.55,544.61
19.0451,495.44,547.29
19.065,486.95,547.83
19.0848,482.56,547.46
19.1048,479.65,546.57
19.1249,477.72,548.86
19.1449,476.98,548.49
19.165,478.98,547.99
19.185,480.58,546.59
19.205,481.27,545.27
19.2252,483.81,545.42
19.2451,485.25,545.93
19.2649,486.8,542.75
19.2849,488.24,541.2
19.3051,490.19,540.76
19.325,490.75,540.21
19.3449,492,538.17
19.365,493,537.33
19.3849,493.4,537.67
19.405,494.92,536.93
19.425,497.14,535.95
19.4448,497.71,534.96
19.4649,498.77,534.97
19.485,499.21,534.57
19.5049,499.97,533.86
19.5253,500.78,533.69
19.5453,501.02,534.55
19.5649,501.42,535.04
19.585,501.93,536.43
19.6051,502.15,536.55
19.6252,501.32,536.24
19.645,501.45,537.99
19.665,501.36,538.59
19.6849,499.09,540.27
19.7051,497.27,540.62
19.725,496.82,540.09
19.745,495.85,538.88
19.7649,495.68,537.5
19.7849,496.75,537.6
19.805,498.6,539.08
19.8249,493.68,545.26
19.8449,476.94,553.61
19.8649,449.55,563.89
19.8849,421.04,568.31
19.905,389.43,562.05
19.9252,358.95,547.84
19.945,328.96,529.07
19.9651,303.77,509.86
19.9851,286.21,495.49
20.0052,274.77,484.19
20.025,271.62,475.95
20.0451,276.09,470.56
20.0649,283.87,467.45
20.085,297.1,469.36
20.1049,314.28,471.89
20.1249,331.82,475.71
20.1449,349.86,476.97
20.1651,368.29,480.37
20.1849,383.03,483.9
20.205,396.22,490.52
20.2252,409.58,496.02
20.245,421.86,501.01
20.266,431.69,506.61
20.2861,439.35,511.29
20.3062,446.08,515.63
20.3261,454.27,519.3
20.3461,459.81,522.24
20.3662,464.05,526.39
20.386,469.84,529.72
20.4059,473.67,533.17
20.4259,476.54,534.74
20.4461,479.23,537.79
20.4659,482.18,538.23
20.4859,484.35,540.39
20.506,485.48,543.71
20.526,486.38,544.77
20.546,487.91,547.01
20.5659,488.92,549.01
20.5862,505.74,557.21
20.6063,541.99,574.17
20.6259,595.99,591.93
20.6459,665.39,603.15
20.6659,736.92,608.72
20.6859,779.13,606.97
20.7059,794.11,602.78
20.726,791.68,600.02
20.7466,780.75,595.62
20.7663,763.8,590.89
20.7861,742.84,587.72
20.8059,721.67,583.57
20.826,699.94,581.66
20.8461,677.75,577.93
20.8659,657.6,574.54
20.8861,637.68,571.43
20.9059,625.74,566.95
20.9259,613.39,561.96
20.9461,601.92,559.17
20.9661,591.13,556.53
20.9861,582.31,553.63
21.0063,573.44,550.5
21.026,563.96,551.2
21.046,555.56,549.56
21.0663,548.05,548.05
21.0863,540.64,548.44
21.106,535.31,548.15
21.126,530.25,546.72
21.1462,530.6,545.98
21.1659,528.68,546.78
21.1864,525.54,545.63
21.2059,523.24,544.9
21.2262,521.79,545.32
21.2462,519.03,543.26
21.2662,517.02,546
21.2862,515.22,543.2
21.306,512.78,543.56
21.3264,512.22,542.45
21.3461,509.18,541.56
21.3662,509.34,542.85
21.386,506.27,542.28
21.4059,504.62,540.82
21.4259,503.09,541.26
21.4459,502.88,541.61
21.4659,501.7,541.69
21.4859,501.16,540.95
21.5061,500.53,541.96
21.5261,500.62,540.97
21.5461,501.3,542.37
21.5661,500.84,543.3
21.5859,493.87,543.64
21.6059,484.5,544.91
21.626,480,544.93
21.6461,476.4,545.74
21.6662,474.12,544.19
21.6859,472.49,544.76
21.7059,474.6,545.6
21.7259,474.48,544.88
21.7459,475.38,545.11
21.7662,478.3,544.49
21.7859,480.44,546.19
21.8061,481.76,546.35
21.8261,482.6,545.68
21.846,485.88,545.74
21.8659,488.31,545.8
21.8859,488.65,546.84
21.9059,489.72,546.27
21.926,489.57,544.62
21.9463,489.86,545.69
21.9661,490.69,543.95
21.986,491.55,542.56
22.0059,487.84,540.05
22.026,466.07,531.84
22.0462,430.66,520.67
22.0661,391.53,508.14
22.0859,354.42,497.31
22.1059,322.74,485.85
22.1259,297.79,478.48
22.1463,282.83,469.78
22.1664,275.27,466.83
22.1861,278.01,463.46
22.2059,281.81,462.57
22.2259,291.45,466.46
22.2461,305.36,470.76
22.266,321.49,476.01
22.2859,338.59,480.21
22.3059,356.07,486.97
22.3259,371.06,493.17
22.3459,385.45,498.34
22.3659,398.96,503.27
22.386,410.97,507.22
22.4059,421.17,512.77
22.426,431.74,516.62
22.4462,440.99,519.5
22.466,448.39,522.6
22.486,454.51,524.88
22.5059,460.61,526.9
22.5259,464.29,529.52
22.5461,468.43,529.82
22.5659,472.94,532.45
22.5859,476.16,533.16
22.606,479.12,534.73
22.626,481.5,537.98
22.6459,491,544.79
22.6661,512.4,563.23
22.6859,551.52,586.18
22.7064,606.22,600.55
22.7263,660.37,608.24
22.7467,690.3,608.79
22.7661,703.04,605.83
22.7859,703.63,601.27
22.8059,696.3,594.01
22.826,684.44,587.81
22.8462,671.15,582.65
22.866,656.52,578.92
22.8859,641.82,575.33
22.9059,626.26,569.67
22.9262,611.8,565.53
22.946,597.64,563.03
22.9659,585.11,561.42
22.9859,574.09,560.34
23.006,564.67,559.87
23.0261,557.14,556.9
23.0459,550.71,556.32
23.066,544.77,554.25
23.0861,537.82,551.8
23.1063,533.65,549.84
23.1261,529.72,549.07
23.1462,524.58,546.06
23.1662,520.86,544.45
23.1861,516.69,543.16
23.2061,513.15,543.73
23.2261,510.52,543.18
23.2461,507.22,541.34
23.2661,505.17,541.08
23.2859,504.54,539.66
23.306,504.83,539.13
23.3259,503.66,539.3
23.3461,502.33,539.44
23.3661,502.27,539.35
23.3859,502.61,540.08
23.4058,513.09,539.87
23.4259,523.07,540.89
23.4458,529.26,540.91
23.4659,530.61,541.33
23.4861,530.48,540.47
23.5058,528.99,540.77
23.526,528.39,539.62
23.5461,526.91,540.09
23.566,523.73,541.28
23.586,520.98,541.42
23.6059,519.39,540.74
23.6259,517.11,540.39
23.6459,515.09,541.71
23.6661,511.47,541.57
23.6861,510.38,541.86
23.706,508.9,541.68
23.7259,507.72,541.55
23.7459,506.58,541.84
23.7669,505.06,541.67
23.7869,504.05,542.54
23.8071,503.84,544.03
23.827,503.47,543.42
23.8471,503.98,543.74
23.8671,503.58,543.39
23.8871,503.87,542.91
23.907,502.69,541.93
23.9269,503.35,542.74
23.9471,502.08,540.8
23.9669,502.67,538.64
23.9868,502.33,537.11
24.0072,501.47,537.69
24.0271,500.17,538.35
24.047,500.54,539.68
24.0671,499.83,538.34
24.0871,500.06,538.68
24.1068,499.85,538.34
24.127,499.88,538.47
24.1472,499.51,538.78
24.1672,499.6,539.42
24.1873,499.48,539.74
24.2071,499.39,541.99
24.227,480.71,534.19
24.2469,446.37,520.95
24.267,405.49,505.36
24.2869,365.4,489.29
24.3069,330.52,477.23
24.3269,301.81,468.39
24.3469,281.05,464.11
24.3669,269.84,464.29
24.3868,268.27,468.43
24.4068,271.42,474.34
24.4268,280.53,482.47
24.447,292.23,487.78
24.467,309.98,496.82
24.487,328.19,502.46
24.5069,345.15,508.17
24.527,361.52,513.93
24.5468,377.82,517.95
24.567,392.45,520.16
24.587,406.36,523.53
24.6068,417.69,525.42
24.627,428.15,526.94
24.647,437.32,529.15
24.6669,447.26,530.12
24.6869,455.01,531.9
24.7071,461,534.12
24.727,466.6,535.49
24.7469,470.48,537.39
24.7669,474.59,537.92
24.7869,478.27,539.33
24.807,479.82,540.87
24.8272,494.85,548.89
24.847,524.68,564.51
24.8671,567.35,582.61
24.8869,619.28,595.69
24.9069,680.82,600.95
24.9269,742.46,600.56
24.9468,774.77,596.65
24.9671,784.21,589.92
24.9869,778.37,583.74
25.0075,764.7,580.19
25.0271,745.76,575.75
25.0471,725.41,571.2
25.0674,703.12,567.16
25.087,680.3,563.93
25.107,660.64,560.94
25.1268,640.91,557.95
25.147,622.73,555.96
25.167,605.58,553.17
25.1869,591.47,551.14
25.2069,578.37,549.91
25.2269,566.9,548.13
25.247,557.12,547.7
25.2669,548.9,546.16
25.2872,550.72,544.13
25.3071,551.77,542.7
25.3271,551.62,540.96
25.347,548.29,539.57
25.3671,544.44,539.06
25.3868,540.95,538.64
25.4068,534.36,539.32
25.427,529.49,537.85
25.447,525.19,538.48
25.467,521.35,538.19
25.4872,518.48,538.35
25.5071,514.99,539.68
25.527,512.39,541.34
25.5468,509.31,543.67
25.5669,508.65,544.74
25.5868,506.92,543.79
25.6069,505.73,542.83
25.6268,506.19,543.47
25.6472,504.55,543.97
25.667,502.64,544.98
25.6873,501.71,543.78
25.7073,500.17,542.63
25.7271,499.74,541.7
25.7468,500.19,542.36
25.7669,499.75,542.09
25.7868,500.6,543.27
25.8068,500.88,544.02
25.8271,498.9,544.61
25.8471,499.52,545.29
25.8669,499.42,544.03
25.8868,498.94,543.63
25.9069,498.15,541.7
25.9268,498.12,541.16
25.947,497.89,540.13
25.9669,498.32,539.7
25.9868,498.45,538.96
26.0068,499.56,537.37
26.0269,499.45,538.3
26.0469,499.96,540.04
26.067,499.57,540.63
26.0868,498.25,539.5
26.1068,497.4,539.6
26.1268,498.12,539.48
26.1469,498.5,539.39
26.167,498.4,539.31
26.1868,499.12,537.45
26.2068,498.1,539.16
26.2268,498.48,538.73
26.2471,496.98,537.78
26.267,497.58,539.82
26.2869,497.67,540.06
26.307,496.93,539.45
26.3269,471.55,529.56
26.3478,430.24,513.65
26.3679,383.19,497.12
26.3878,341.35,486.09
26.4079,305.68,477.68
26.4278,280.95,474.14
26.4479,266.56,474.11
26.4679,262.25,474.29
26.4878,264.4,476.43
26.508,272.12,478.95
26.5279,282.69,482.96
26.5479,298.35,488.37
26.5678,315.88,494.29
26.5881,333.71,498.83
26.6078,351.57,504.47
26.6278,367.45,509.57
26.6479,382.96,512.66
26.668,397.17,516.53
26.6881,412.14,520.82
26.7081,423.71,522.66
26.7278,433.57,524.73
26.7479,442.45,526.18
26.7678,451.96,529.14
26.7881,458.57,531.52
26.8082,464.06,533.61
26.8282,470.24,534.49
26.848,475.2,534.39
26.8681,480.56,536.71
26.8879,484.85,536.97
26.9079,489.08,537.78
26.9279,491.26,537.62
26.9478,493.21,538.3
26.968,495.37,537.44
26.9883,496.49,537.75
27.0084,497.59,541.2
27.0281,511.28,550.16
27.0481,546.02,568.53
27.0678,599.02,589.82
27.088,657.21,606.46
27.1079,701.37,611.97
27.1282,723.3,612.57
27.148,730.44,607.86
27.1679,727.55,600.49
27.1881,717.84,592.79
27.2082,704.47,587.03
27.2281,687.78,581.43
27.248,669.22,576.94
27.268,652.38,575.35
27.2879,635.9,572.28
27.3081,619.52,570.43
27.328,605.82,567.34
27.3479,592.85,564.67
27.3682,579.28,563.94
27.3878,567.03,562.95
27.408,557.82,561.56
27.4278,548.86,559.65
27.4478,540.69,556.72
27.4679,535.75,554.97
27.4879,530.4,553.98
27.5081,525.32,551.78
27.5279,522.06,551.43
27.5481,517.44,550.54
27.5679,514.16,548.63
27.5878,511.72,547.31
27.6078,509.38,546.25
27.6281,506.5,546.4
27.6482,504.6,545.12
27.6678,502.08,545.09
27.6878,499.47,542.67
27.7078,498.37,542.54
27.7281,497.5,543.03
27.7481,496.6,541.03
27.7679,495.48,539.22
27.7889,496.58,539.98
27.8088,497.07,538.78
27.8291,497.25,538.42
27.8489,498.2,540.54
27.869,497.16,542.23
27.8889,496.13,541.99
27.9091,495.3,541.99
27.9291,495.04,540.39
27.9489,494.43,540.31
27.9688,495.15,539.25
27.989,495.72,538
28.009,496.97,537.8
28.0289,497.98,537.44
28.049,498.18,537.35
28.0688,497.55,538.08
28.0892,496.64,539.47
28.1089,496.11,541.17
28.1289,496.89,541.14
28.149,496.31,541.91
28.169,496.45,542.13
28.1889,497.56,542.3
28.2088,498.05,541.44
28.229,497.44,542.15
28.249,496.75,543.32
28.269,497,543.06
28.289,498,544.05
28.3089,497.4,544.84
28.329,497.72,545.07
28.3491,498.38,545.86
28.3689,498.3,544.68
28.3889,497.64,544.95
28.409,497.51,545.16
28.4292,496.81,545.13
28.4492,496.25,544.3
28.469,496,545.84
28.4888,495.2,547.67
28.5091,490.16,547.54
28.5288,473.93,541.43
28.5488,446.94,530.14
28.5688,414.75,515.12
28.5888,380.8,500.89
28.6088,349.24,488.11
28.6288,321.59,476.29
28.649,302.27,470.83
28.6691,290.62,467.87
28.6888,286.1,468.29
28.709,287.08,472.03
28.729,293.46,477.23
28.7489,303.77,482.98
28.7689,317.62,488.99
28.7891,332.29,495.79
28.809,348.23,501.43
28.8288,364.19,507.14
28.8488,379.55,512.72
28.8689,392.04,516.57
28.8888,404.43,520.26
28.9092,416.95,522.81
28.9288,428.16,525.25
28.9492,436.73,526.6
28.9693,445.18,527.68
28.9889,452.34,528.94
29.0091,459.88,530.95
29.0291,465.7,533.96
29.0488,470.76,536.57
29.0688,475.61,538.46
29.0889,477.69,538.76
29.1089,480.75,539.61
29.1288,490.8,544.49
29.1491,518.44,560.79
29.1688,565.35,581.03
29.1889,627.88,594.83
29.2091,696.51,602.06
29.2294,741.6,602.25
29.249,761.08,599
29.2689,762.67,593.8
29.2889,754.53,590.04
29.3088,740.23,585.23
29.3291,722.38,581.19
29.3489,702.51,578.75
29.3691,682.4,576.2
29.3889,663.72,571.36
29.4088,644.98,568.49
29.4288,626.98,565.39
29.4488,610.79,560.71
29.4688,596.03,556.17
29.4888,582.22,553.34
29.5091,571.18,550.47
29.5289,561.54,547.77
29.5491,552.63,546.02
29.5688,543.31,545.02
29.5891,537.65,542.81
29.6088,533.52,542.05
29.6289,528.21,541.24
29.6487,524.97,540.59
29.6689,520.58,540.27
29.6889,518.26,540.02
29.7088,514.41,539.42
29.7289,512.33,538.93
29.7489,510.86,538.75
29.7688,512.09,539.2
29.7889,522.47,541.16
29.8092,530.38,543.53
29.8288,534.9,545.02
29.849,537.32,546.22
29.8689,536.86,546.37
29.8888,535.89,548.7
29.9089,533.11,548.56
29.929,530.69,547.45
29.9492,526.55,546.96
29.9691,522.44,546.57
29.9891,518.55,546.25
30.009,518.04,545.2
30.0289,515.83,545.56
30.049,513.47,544.25
30.069,511.57,545.4
30.0889,508.66,546.12
30.1098,506.73,547.7
30.1301,505.18,550.56
30.1499,505.35,551.05
30.17,504.68,550.44
30.1898,504.74,550.55
30.2098,503.79,551.44
30.2301,503.23,549.75
30.2502,502.19,548.4
30.2698,501.95,545.52
30.2898,501.56,544.22
30.311,500.65,544.77
30.331,501.52,545.22
30.3511,500.81,546.17
30.3713,501.05,545.54
30.3908,502.04,544.83
30.4108,501.83,544.47
30.4308,501.07,545.17
30.451,500.65,545.34
30.4711,500.92,545.87
30.491,501.34,547.1
30.5108,501.07,547.48
30.5308,499.26,547.98
30.5508,498.01,547.99
30.5709,498.8,548.39
30.5908,499.64,548.51
30.6108,499.31,548.61
30.6309,498.25,548.89
30.6508,498.6,547.51
30.6708,499.48,548.01
30.6911,478.58,542.81
30.711,439.87,529.04
30.7309,392.89,514.04
30.7509,346.12,503.03
30.771,306.29,495.82
30.7908,275.23,490.46
30.8108,254.99,487.37
30.8311,242.99,485.09
30.8511,242.59,486.27
30.871,247.87,486.22
30.8911,258.9,487.38
30.9111,274.92,490.3
30.931,292.94,492.24
30.9511,312.95,494.79
30.9712,333.16,497.63
30.9908,351.33,500.11
31.011,370.46,504.69
31.0311,386.57,509.75
31.0512,399.86,513
31.0707,414.08,516.8
31.0908,425.67,520.64
31.1111,435.93,522.91
31.131,443.35,525.33
31.1511,449.08,528.66
31.1712,454.86,533.13
31.1911,460.29,535.1
31.2111,465.63,535.88
31.2308,468.11,536.11
31.251,472.48,537.89
31.2711,476.59,538.71
31.2911,480.27,538.37
31.311,483.42,539.29
31.331,485.73,539.43
31.351,487.19,543.75
31.3711,497.95,549.2
31.3912,524.76,567.96
31.4109,567.41,590.77
31.4309,625.93,607.61
31.4511,693.34,612.89
31.4711,751.47,607.31
31.4908,778.98,599.05
31.5108,783.98,588.84
31.531,775.99,577.87
31.5509,760.59,569.1
31.5709,740.87,561.08
31.5909,719.5,557.06
31.611,696.6,555.45
31.631,675.08,555.16
31.6512,654.06,553.93
31.6709,634.85,554.54
31.6909,618.48,553.83
31.7111,603.38,552.47
31.7311,590.91,552.77
31.7513,578.93,551.82
31.7708,567.74,550.86
31.7908,556.19,550.48
31.8111,546.95,550.19
31.8309,540.36,550.15
31.851,534.09,549.52
31.8708,527.87,549.62
31.8909,522.7,548.09
31.9112,519.16,547.47
31.9311,515.13,547.58
31.951,511.9,546.66
31.9709,509.92,545.33
31.9908,508.94,544.86
32.0111,506.55,544.29
32.0311,505.84,543.83
32.0514,503.07,544.87
32.0709,501.46,544.49
32.0917,501.57,545.99
32.1111,500.85,548.2
32.1308,499.68,549.56
32.1511,499.95,548.05
32.1711,499.96,549.24
32.1908,498.77,548.99
32.2107,497.01,550.19
32.2309,496.21,549.75
32.251,495.57,550
32.271,495.05,550
32.2908,496.44,548.6
32.3109,497.55,547.08
32.331,498.24,546.26
32.351,499.2,544.61
32.371,500.56,545.89
32.3907,500.04,545.71
32.4107,499.64,544.97
32.4309,499.71,544.18
32.4509,500.17,543.54
32.4709,498.13,544.63
32.4911,498.31,544.71
32.5107,498.45,545.36
32.531,497.76,546.89
32.551,497.61,547.71
32.5709,496.88,549.17
32.5908,497.11,546.94
32.611,496.49,545.95
32.6311,496.19,545.96
32.6511,497.75,545.97
32.6707,498.6,544.37
32.6907,499.08,545.3
32.7108,499.06,545.44
32.7307,498.85,546.15
32.7509,497.68,544.72
32.771,498.55,543.98
32.7909,498.24,543.38
32.8107,497.59,542.71
32.8308,498.67,542.56
32.8509,498.34,543.65
32.8711,497.07,544.12
32.8908,499.26,543.3
32.9108,499,542.04
32.9309,499.6,541.83
32.951,498.68,541.06
32.9709,497.95,543.05
32.9908,497.36,543.04
33.0107,496.49,542.63
33.0309,496.79,544.51
33.051,497.03,543.6
33.0707,497.82,542.28
33.0909,498.66,541.43
33.111,497.93,541.14
33.1309,497.74,540.71
33.1511,499.19,540.37
33.1711,498.96,540.1
33.1907,497.96,540.68
33.2107,497.37,541.54
33.2308,496.5,541.03
33.2508,497.4,541.03
33.2707,497.52,540.62
33.2907,496.61,541.9
33.3108,495.89,542.12
33.331,495.31,541.29
33.3511,493.65,543.04
33.371,495.12,542.83
33.3908,495.9,543.86
33.4108,496.12,542.29
33.4308,496.89,541.63
33.451,496.91,541.51
33.4708,497.73,542.6
33.4909,497.99,542.68
33.5107,496.99,543.15
33.5308,496.19,542.92
33.5508,495.95,542.73
33.5708,495.76,541.59
33.5907,495.61,540.07
33.6107,497.09,540.46
33.6308,496.47,539.76
33.6508,496.98,539.61
33.671,495.78,539.49
33.6908,495.22,538.99
33.7107,495.58,539.79
33.7307,495.26,539.23
33.7508,496.01,539.79
33.7709,495.61,539.43
33.7908,496.89,539.34
33.8108,497.11,541.08
33.8313,496.49,540.66
33.8508,496.59,540.73
33.8708,497.47,540.98
33.8908,497.38,541.39
33.9107,498.1,541.11
33.9308,498.08,541.89
33.9509,498.07,541.11
33.9708,498.45,540.49
33.9908,499.16,540.59
34.0108,501.93,539.47
34.0308,502.14,539.98
34.0508,501.91,538.58
34.0709,501.73,540.07
34.0908,501.99,542.65
34.1108,501.79,543.72
34.1307,502.43,543.18
34.1508,502.34,541.94
34.171,503.28,542.95
34.1907,502.42,541.56
34.2109,500.74,541.05
34.2308,500.39,541.04
34.2508,499.11,540.43
34.2707,498.29,541.55
34.2907,490.03,543.44
34.3107,485.82,546.15
34.3308,482.66,546.52
34.3509,480.53,546.42
34.3708,480.62,543.93
34.3907,481.3,542.55
34.4109,481.24,542.24
34.4307,483.19,539.59
34.4508,485.15,540.87
34.4709,485.52,540.1
34.4908,487.42,541.48
34.5108,487.73,541.78
34.5307,488.99,541.23
34.5508,490.19,542.18
34.571,491.55,541.14
34.5908,492.24,540.32
34.6108,492.79,539.85
34.6307,493.63,540.28
34.6508,496.31,540.43
34.6708,496.65,540.14
34.6908,497.12,541.71
34.7108,497.89,541.77
34.7307,497.31,540.82
34.7508,496.65,541.25
34.7708,497.92,540.2
34.7908,498.74,539.36
34.8108,499.19,539.29
34.8307,499.75,539.83
34.8508,498.8,539.67
34.8709,497.84,540.73
34.8907,497.87,540.19
34.9108,498.7,541.15
34.9308,497.96,539.92
34.9508,498.57,539.94
34.971,497.05,540.15
34.9908,497.64,540.32
35.0107,497.51,539.85
35.0309,498.21,539.88
35.0509,497.97,539.91
35.0708,497.38,540.13
35.091,496.9,541.5
35.1107,497.12,541.4
35.1309,496.7,540.72
35.1509,497.96,539.58
35.1708,498.57,539.26
35.1908,498.85,540.01
35.2107,499.08,539.81
35.2307,498.67,539.45
35.2508,499.33,539.36
35.2709,498.67,539.49
35.2911,497.93,539.79
35.3108,499.35,539.63
35.3307,498.28,539.1
35.3507,498.02,540.28
35.3707,498.82,539.63
35.3907,499.65,538.1
35.4107,497.92,537.48
35.4307,498.74,537.38
35.4508,499.39,535.91
35.4708,499.31,536.53
35.491,499.05,536.82
35.5107,498.84,537.26
35.5307,498.67,536.81
35.5509,497.94,535.84
35.5708,497.35,535.68
35.5907,498.48,535.74
35.6108,497.78,534.79
35.6308,507.23,531.43
35.6511,519.38,524.95
35.671,527.11,520.96
35.691,531.68,516.17
35.7109,533.15,513.93
35.7308,532.32,513.35
35.751,531.85,516.48
35.7714,533.88,529.98
35.7909,533.11,564.99
35.8109,538.29,630.59
