Program Time [s],data 0,data 1
34.55930,511.84,488.44
34.58048,498.81,490.62
34.60088,492.37,490.98
34.62246,491.55,486.11
34.64240,492.21,476.50
34.66195,485.79,472.41
34.68248,465.51,472.27
34.70185,444.04,471.43
34.72239,427.50,473.13
34.74195,420.85,475.05
34.76208,419.75,482.27
34.78174,423.03,492.92
34.80233,429.36,496.92
34.82169,432.84,504.06
34.84197,435.15,505.81
34.86243,439.35,508.17
34.88181,445.56,514.17
34.90114,447.76,528.24
34.92155,449.74,539.14
34.94195,455.18,543.04
34.96160,462.35,548.89
34.98110,464.90,550.19
35.00267,463.39,553.67
35.02149,465.75,562.27
35.04279,468.03,566.63
35.06207,470.12,566.56
35.08253,471.74,567.21
35.10368,473.75,558.06
35.12310,475.23,551.56
35.14367,476.67,547.06
35.16322,467.77,540.39
35.18413,469.39,535.47
35.20448,474.03,531.37
35.22471,478.02,527.88
35.24492,478.90,530.01
35.26406,478.79,532.27
35.28345,479.19,534.17
35.30411,470.85,539.24
35.32476,466.07,538.33
35.34404,462.25,545.86
35.36509,463.92,547.13
35.38552,464.97,550.24
35.40525,464.30,551.84
35.42442,465.74,552.75
35.44459,467.56,551.49
35.46426,468.09,550.25
35.48572,467.88,548.47
35.50520,468.30,542.22
35.52532,469.14,533.12
35.54511,472.56,529.75
35.56534,473.57,527.82
35.58471,470.48,522.49
35.60481,471.53,524.38
35.62499,474.03,521.67
35.64492,474.72,518.56
35.66563,472.56,522.85
35.68599,478.71,528.39
35.70545,498.30,542.23
35.72518,522.31,563.48
35.74568,554.22,578.88
35.76451,580.65,593.55
35.78548,602.54,606.16
35.80410,619.03,609.17
35.82431,626.70,609.86
35.84577,628.31,606.67
35.86520,622.54,604.73
35.88669,616.22,600.23
35.90543,610.72,591.11
35.92647,599.73,585.84
35.94623,591.23,581.02
35.96670,581.01,573.02
35.98668,568.36,570.01
36.00610,559.93,561.16
36.02723,549.28,557.82
36.04772,542.07,552.47
36.06660,533.82,548.33
36.08657,526.62,545.26
36.10679,520.62,542.82
36.12803,515.77,539.99
36.14728,510.45,538.93
36.16692,503.44,538.26
36.18688,500.88,538.71
36.20660,494.66,538.22
36.22710,493.55,539.77
36.24792,489.56,544.31
36.26888,489.68,545.54
36.28844,487.41,546.23
36.30701,486.57,548.08
36.32889,482.95,546.00
36.34811,484.07,547.01
36.36909,483.27,549.35
36.38783,483.23,547.87
36.40713,483.68,548.93
36.42721,483.62,548.42
36.44794,480.11,545.72
36.46798,475.66,546.42
36.48835,464.38,544.59
36.50709,446.10,536.91
36.52772,425.46,531.67
36.54862,400.63,532.66
36.56790,374.68,531.54
36.58877,351.85,522.24
36.60800,327.36,511.54
36.62916,317.56,503.90
36.64936,314.94,499.35
36.66806,320.78,493.82
36.68838,326.16,492.26
36.70874,336.69,490.93
36.72911,349.69,494.06
36.74940,361.55,494.21
36.76914,375.74,499.37
36.78935,384.84,503.23
36.80811,396.88,508.51
36.82875,406.72,512.98
36.84831,418.38,516.58
36.86878,425.29,516.84
36.88931,433.48,519.59
36.90930,440.30,523.93
36.92901,444.68,526.83
36.94833,450.51,526.91
36.96793,453.48,528.21
36.98971,457.19,527.76
37.00949,459.33,531.19
37.02808,465.87,533.96
37.04992,466.23,531.69
37.06984,468.16,533.33
37.08946,469.80,537.73
37.10949,471.63,533.96
37.12911,473.49,536.66
37.15029,472.84,532.84
37.16998,473.20,533.90
37.19136,476.34,534.04
37.21185,476.78,531.27
37.23142,479.26,531.69
37.25134,481.00,532.14
37.27029,481.21,531.29
37.29133,482.38,531.00
37.31089,481.21,529.70
37.33026,482.88,530.52
37.35058,480.45,530.43
37.37268,480.76,527.10
37.39092,481.04,525.33
37.41133,481.49,525.98
37.43164,479.38,524.85
37.45184,481.19,525.66
37.47174,481.35,524.52
37.49277,482.07,524.79
37.51148,480.38,528.82
37.53121,478.60,528.71
37.55136,479.10,530.03
37.57134,477.78,531.25
37.59121,480.67,530.52
37.61081,480.28,534.30
37.63138,477.56,534.54
37.65156,477.99,534.80
37.67298,476.38,531.28
37.69337,478.97,532.64
37.71348,479.06,530.33
37.73368,478.15,532.29
37.75278,476.48,532.11
37.77252,477.83,531.09
37.79301,476.83,531.96
37.81208,477.79,530.32
37.83277,477.06,530.93
37.85350,474.11,527.71
37.87361,475.69,529.87
37.89276,477.80,530.31
37.91421,475.30,529.52
37.93419,474.15,529.51
37.95304,476.92,527.36
37.97353,476.26,526.10
37.99488,475.93,527.26
38.01336,476.77,526.38
38.03489,476.61,528.80
38.05474,476.62,528.76
38.07367,476.06,529.68
38.09327,475.64,530.82
38.11343,475.54,527.91
38.13315,475.64,530.47
38.15486,475.90,526.45
38.17485,476.20,525.94
38.19351,475.95,526.66
38.21443,477.23,527.18
38.23431,477.44,525.67
38.25481,479.34,526.38
38.27390,480.87,530.13
38.29414,484.40,538.32
38.31440,496.86,559.81
38.33365,526.32,584.04
38.35397,559.71,615.67
38.37355,592.57,640.72
38.39338,615.18,659.31
38.41496,632.29,665.81
38.43430,642.26,662.46
38.45432,644.40,649.64
38.47468,644.36,627.18
38.49470,636.93,602.91
38.51364,625.53,573.25
38.53392,612.66,549.19
38.55404,600.99,534.02
38.57369,587.14,519.10
38.59410,573.28,511.92
38.61397,562.06,504.69
38.63387,555.02,501.86
38.65451,542.09,502.61
38.67390,534.08,499.94
38.69439,525.29,502.34
38.71482,516.89,501.62
38.73478,510.10,505.56
38.75292,503.47,507.58
38.77414,497.93,510.00
38.79450,493.89,512.66
38.81331,491.30,511.47
38.83465,487.66,517.20
38.85385,484.94,519.21
38.87301,485.45,517.31
38.89367,480.04,521.55
38.91564,481.90,521.54
38.93553,478.60,523.46
38.95563,478.82,523.57
38.97555,477.68,525.91
38.99589,476.53,523.87
39.01534,477.36,524.75
39.03498,476.16,524.32
39.05743,479.22,525.24
39.07710,479.19,526.50
39.09767,476.29,525.95
39.11581,475.26,529.81
39.13613,476.35,529.64
39.15595,475.38,526.72
39.17699,478.71,529.52
39.19684,474.27,525.97
39.21783,475.65,527.70
39.23595,474.92,530.69
39.25781,475.99,530.42
39.27772,476.15,534.62
39.29581,474.48,534.44
39.31647,468.63,534.81
39.33733,457.48,545.64
39.35690,442.40,562.68
39.37663,420.99,576.93
39.39652,402.58,586.75
39.41774,377.59,575.65
39.43735,349.75,552.53
39.45635,322.58,524.12
39.47689,303.45,498.72
39.49781,299.57,477.52
39.51744,299.60,467.25
39.53647,308.73,462.09
39.55642,319.58,458.05
39.57671,329.35,455.95
39.59807,345.30,457.59
39.61762,357.08,464.39
39.63759,372.32,469.02
39.65737,382.22,473.31
39.67610,395.23,478.35
39.69636,405.63,485.75
39.71724,412.89,491.53
39.73658,422.13,492.02
39.75639,426.61,500.69
39.77690,436.53,503.85
39.79752,442.86,509.75
39.81749,447.52,512.72
39.83738,453.89,514.53
39.85591,456.28,519.08
39.87612,460.43,519.14
39.89661,459.35,522.54
39.91760,462.90,522.02
39.93771,463.47,523.49
39.95723,462.69,525.89
39.97785,463.97,526.41
39.99663,464.13,526.45
40.01620,465.85,529.28
40.03664,468.29,531.13
40.05614,470.34,529.93
40.07746,471.65,529.04
40.09642,471.80,528.98
40.11720,471.72,528.31
40.13706,472.72,529.12
40.15610,471.02,530.78
40.17688,470.51,531.72
40.19664,471.29,531.33
40.21642,471.53,528.70
40.23577,472.25,532.91
40.25692,472.37,534.11
40.27794,472.88,533.32
40.29616,472.04,530.97
40.31665,472.92,530.10
40.33757,475.23,531.96
40.35729,475.03,531.68
40.37718,475.55,529.75
40.39725,477.06,531.92
40.41661,476.00,531.87
40.43798,475.04,532.23
40.45754,473.49,529.27
40.47765,475.18,530.25
40.49767,473.37,530.09
40.51676,473.84,529.54
40.53771,475.30,533.09
40.55654,475.48,530.99
40.57689,476.87,533.89
40.59749,475.30,533.41
40.61741,475.90,532.35
40.63731,474.98,532.03
40.65680,476.08,532.39
40.67683,475.08,530.73
40.69612,472.39,534.88
40.71685,473.63,533.18
40.73795,475.51,533.47
40.75701,473.33,532.92
40.77713,473.72,531.29
40.79675,472.12,529.48
40.81722,472.78,530.01
40.83727,475.58,528.86
40.85726,472.17,532.83
40.87607,475.62,529.37
40.89759,472.55,530.37
40.91603,472.10,529.30
40.93656,475.15,532.48
40.95653,472.81,534.16
40.97601,475.12,536.40
40.99594,477.91,532.50
41.01743,475.11,531.55
41.03776,475.96,534.38
41.05642,477.72,534.47
41.07653,474.45,534.65
41.09700,476.15,531.35
41.11592,473.61,531.19
41.13614,473.51,533.99
41.15608,475.68,532.95
41.17711,475.89,532.75
41.19593,472.31,532.41
41.21624,473.59,532.54
41.23663,475.76,534.93
41.25666,477.09,534.95
41.27590,474.05,534.57
41.29651,475.85,537.43
41.31643,475.10,535.84
41.33584,475.43,533.31
41.35602,472.97,535.74
41.37714,476.79,536.27
41.39718,474.02,534.20
41.41719,474.78,533.03
41.43670,475.19,533.69
41.45670,474.11,533.47
41.47692,476.20,537.38
41.49725,476.02,534.85
41.51610,478.16,537.87
41.53696,474.56,535.40
41.55737,476.34,535.63
41.57642,475.45,531.92
41.59676,474.81,531.74
41.61747,475.50,532.66
41.63593,475.51,533.59
41.65671,471.62,533.16
41.67604,472.76,534.09
41.69601,471.87,535.39
41.71659,471.24,535.62
41.73619,474.89,535.11
41.75704,474.74,537.08
41.77628,474.34,535.02
41.79595,475.75,534.29
41.81709,474.82,538.56
41.83672,473.67,537.10
41.85638,475.58,536.08
41.87758,473.13,534.69
41.89629,473.73,536.59
41.91783,474.40,535.05
41.93642,473.19,535.61
41.95604,473.39,532.92
41.97776,471.84,532.62
41.99623,473.81,537.24
42.01739,482.55,540.66
42.03783,503.79,549.76
42.05683,533.35,559.14
42.07722,562.71,571.18
42.09593,593.58,578.62
42.11763,616.76,583.15
42.13715,631.84,584.49
42.15710,642.26,578.48
42.17628,645.96,574.46
42.19742,642.08,567.42
42.21639,636.60,563.07
42.23691,628.77,558.57
42.25695,618.06,553.19
42.27718,605.48,547.98
42.29741,593.10,545.16
42.31759,582.74,543.00
42.33713,570.38,538.38
42.35599,561.83,536.25
42.37702,551.32,534.97
42.39663,541.19,535.53
42.41702,533.99,535.38
42.43645,529.54,538.66
42.45635,520.97,538.10
42.47698,517.49,538.50
42.49717,507.96,538.06
42.51594,503.23,539.37
42.53716,502.20,541.60
42.55620,495.66,539.51
42.57638,496.68,543.19
42.59740,493.50,543.41
42.61759,489.11,543.49
42.63726,487.43,539.87
42.65687,485.71,538.90
42.67611,483.63,539.93
42.69621,484.27,539.77
42.71701,482.99,540.90
42.73784,482.63,540.48
42.75711,479.40,540.58
42.77759,478.46,538.06
42.79684,477.12,539.69
42.81657,476.73,538.36
42.83591,477.52,539.44
42.85727,476.66,537.76
42.87748,472.08,540.51
42.89667,474.46,540.50
42.91641,471.50,540.21
42.93603,473.90,538.97
42.95638,472.90,540.73
42.97663,473.62,537.19
42.99725,475.62,538.87
43.01682,473.19,540.21
43.03732,469.50,542.47
43.05714,466.85,549.96
43.07754,459.63,568.03
43.09779,453.40,588.82
43.11657,444.52,607.38
43.13669,433.26,624.74
43.15644,421.38,632.70
43.17775,407.12,634.75
43.19685,387.69,617.33
43.21613,364.70,587.45
43.23624,342.97,552.26
43.25591,321.36,515.17
43.27653,308.22,480.55
43.29610,304.39,461.20
43.31658,309.84,443.36
43.33647,316.06,436.89
43.35753,325.65,433.70
43.37671,335.98,437.15
43.39662,346.55,439.41
43.41615,359.65,447.26
43.43628,369.41,450.71
43.45666,380.62,459.86
43.47694,393.12,466.17
43.49676,403.46,476.69
43.51774,412.65,483.74
43.53757,418.70,489.70
43.55731,429.70,499.80
43.57701,433.20,504.61
43.59642,439.43,508.52
43.61777,446.98,512.22
43.63613,446.47,517.77
43.65573,452.96,518.65
43.67602,452.53,523.70
43.69590,456.34,524.34
43.71653,459.72,528.90
43.73617,459.44,529.00
43.75755,459.89,531.58
43.77686,460.99,532.65
43.79686,463.60,535.87
43.81620,467.92,537.58
43.83781,466.44,537.83
43.85642,468.73,539.88
43.87611,468.56,538.28
43.89656,470.61,538.52
43.91647,468.57,538.75
43.93750,468.39,539.46
43.95737,468.79,538.50
43.97761,470.12,537.97
43.99654,469.17,540.45
44.01719,468.22,538.28
44.03774,467.55,538.95
44.05779,470.73,538.20
44.07619,472.38,539.29
44.09605,469.40,539.77
44.11672,470.84,539.14
44.13784,472.26,540.67
44.15767,470.38,541.31
44.17739,473.82,537.98
44.19770,474.88,542.24
44.21690,473.52,540.61
44.23699,471.20,540.39
44.25649,470.23,539.81
44.27777,470.79,539.71
44.29654,470.29,540.72
44.31604,470.34,538.75
44.33722,471.90,537.87
44.35660,469.30,538.93
44.37602,470.00,537.72
44.39586,469.60,539.57
44.41651,472.82,537.25
44.43733,473.43,539.35
44.45613,470.71,537.62
44.47768,469.98,539.11
44.49591,469.78,539.40
44.51675,471.78,540.29
44.53638,472.22,540.31
44.55762,468.60,538.28
44.57733,471.73,537.32
44.59758,471.96,538.18
44.61693,471.19,537.90
44.63756,471.23,540.14
44.65768,469.44,538.56
44.67658,468.31,540.55
44.69706,469.88,538.20
44.71694,471.01,537.81
44.73630,470.21,538.36
44.75685,469.78,540.80
44.77624,466.89,539.38
44.79595,467.42,536.18
44.81650,469.31,538.05
44.83561,467.11,536.58
44.85730,467.50,537.79
44.87591,469.36,535.48
44.89715,470.95,535.17
44.91741,469.56,538.31
44.93608,468.45,535.90
44.95761,472.22,536.62
44.97692,469.13,537.85
44.99684,470.91,538.01
45.01641,469.92,539.82
45.03579,471.86,537.74
45.05624,469.22,537.95
45.07743,469.84,537.29
45.09687,469.11,537.64
45.11585,471.30,538.46
45.13772,470.81,536.68
45.15680,468.95,539.77
45.17650,469.51,536.24
45.19711,469.51,536.18
45.21740,467.81,533.23
45.23777,466.80,533.31
45.25590,468.73,535.43
45.27594,469.24,536.01
45.29745,465.36,537.02
45.31762,466.00,534.23
45.33570,468.54,535.22
45.35771,469.44,536.02
45.37736,467.63,534.20
45.39701,467.29,535.00
45.41692,468.39,539.24
45.43757,468.48,536.75
45.45686,468.75,536.85
45.47634,469.73,537.99
45.49709,471.06,538.96
45.51588,470.16,537.73
45.53651,470.06,535.39
45.55637,478.53,538.02
45.57601,495.14,543.38
45.59591,518.76,550.95
45.61632,543.80,550.31
45.63697,565.10,549.81
45.65846,588.40,552.00
45.67704,604.57,552.55
45.69884,617.09,553.66
45.71711,622.92,552.79
45.73820,621.85,549.24
45.75695,622.37,551.26
45.77725,614.54,551.29
45.79766,609.67,550.20
45.81774,598.22,549.75
45.83721,590.46,549.78
45.85695,581.58,548.76
45.87740,570.21,549.23
45.89744,560.72,548.08
45.91778,550.38,548.36
45.93796,540.35,548.83
45.95727,532.15,547.81
45.97699,526.07,546.53
45.99729,518.24,545.28
46.01739,512.67,543.60
46.03673,505.74,546.65
46.05762,500.24,545.27
46.07841,494.54,544.53
46.09839,493.77,545.17
46.11778,490.34,545.01
46.13922,486.13,545.47
46.15794,484.29,543.53
46.17804,483.28,546.12
46.19805,483.14,544.05
46.21893,484.09,544.43
46.23837,483.91,543.85
46.25781,482.20,543.99
46.27935,480.03,546.28
46.29855,476.17,544.42
46.31885,475.85,545.48
46.33921,473.32,543.72
46.35776,473.51,545.81
46.37808,472.74,542.90
46.39963,474.54,544.59
46.41830,472.11,543.97
46.43859,474.02,546.40
46.45830,473.84,542.73
46.47967,472.14,543.04
46.49806,472.51,543.71
46.51958,470.07,542.11
46.53903,471.10,545.21
46.55823,470.39,543.24
46.57785,459.87,543.13
46.59934,446.95,544.53
46.61904,430.70,541.66
46.63885,406.80,533.66
46.65786,380.76,529.44
46.67904,355.91,518.34
46.69895,333.09,507.64
46.71795,309.34,500.13
46.73829,294.95,494.32
46.75852,288.35,486.24
46.77869,289.40,485.26
46.79869,296.05,486.48
46.81922,307.85,490.45
46.83863,322.88,492.24
46.85903,334.32,498.39
46.87987,348.71,503.75
46.89869,363.55,510.96
46.91964,377.42,512.97
46.93909,384.72,517.31
46.95861,397.57,519.53
46.97921,407.88,522.07
46.99958,414.39,523.98
47.01945,425.17,523.43
47.03965,429.92,523.86
47.05839,434.23,527.20
47.07788,440.88,527.62
47.09836,444.45,528.24
47.11815,445.66,531.07
47.13855,451.35,531.96
47.15924,452.52,531.84
47.17947,455.74,533.58
47.19898,458.57,535.91
47.21937,461.47,537.22
47.23782,461.64,538.44
47.25829,464.36,538.34
47.27795,464.62,537.17
47.29874,467.65,537.49
47.31822,468.59,537.90
47.33930,469.63,539.85
47.35817,468.62,538.73
47.37940,472.24,538.66
47.39920,474.33,540.54
47.41878,471.27,543.44
47.43851,473.26,543.86
47.45923,470.10,544.01
47.47841,471.39,544.01
47.49830,472.49,544.06
47.51798,472.09,547.99
47.53943,473.08,548.48
47.55838,474.37,547.78
47.57864,474.46,545.10
47.59859,472.86,544.24
47.61819,473.53,542.96
47.63886,471.15,543.63
47.65857,474.60,540.55
47.67887,474.22,541.99
47.69853,472.26,540.37
47.71929,471.19,542.58
47.73818,470.68,542.26
47.75886,469.42,541.85
47.77894,471.96,539.65
47.79985,469.95,541.73
47.81852,471.73,542.28
47.83823,473.37,541.58
47.85941,474.46,538.68
47.87795,471.26,541.32
47.89904,472.02,540.61
47.91793,475.71,543.40
47.93945,472.58,542.38
47.95898,475.85,542.82
47.97809,474.56,539.59
47.99862,474.93,540.66
48.01906,475.70,542.68
48.03947,475.62,541.03
48.05776,476.14,542.44
48.07791,472.79,541.86
48.09834,473.24,543.86
48.11820,472.81,542.08
48.13831,471.98,541.12
48.15809,471.75,540.54
48.17836,473.76,542.91
48.19946,472.55,541.84
48.21934,472.48,539.78
48.23954,471.27,541.18
48.25887,471.34,540.75
48.27889,473.86,543.45
48.29836,470.73,540.20
48.31887,472.75,540.39
48.33888,473.26,542.27
48.35772,472.59,542.61
48.37877,474.29,543.40
48.39798,472.32,543.17
48.41825,473.03,543.45
48.43794,471.95,542.16
48.45896,473.29,542.62
48.47849,470.59,538.80
48.49964,473.95,541.38
48.51915,471.39,538.38
48.53827,474.17,541.23
48.55801,470.42,541.18
48.57820,472.65,538.78
48.59898,471.04,541.03
48.61973,472.64,538.03
48.63802,470.45,538.12
48.65919,473.75,538.67
48.67800,473.17,541.56
48.69777,470.74,540.20
48.71819,472.54,540.76
48.73826,470.64,537.17
48.75948,470.04,539.04
48.77861,474.06,536.15
48.79867,472.90,536.27
48.81858,471.57,539.72
48.83787,472.13,539.10
48.85850,472.72,539.06
48.87955,475.67,539.45
48.89952,473.54,539.01
48.91923,472.20,540.43
48.93943,473.81,542.35
48.95956,473.86,542.27
48.97840,473.38,543.94
48.99909,468.43,540.51
49.01823,470.00,542.24
49.03893,468.74,541.57
49.05946,471.94,541.78
49.07911,471.70,541.04
49.09844,471.01,540.11
49.11832,471.57,541.88
49.13813,471.14,541.99
49.15846,472.31,538.48
49.17837,470.54,539.39
49.19955,473.93,537.56
49.21846,473.00,538.26
49.23969,472.22,539.37
49.25881,474.06,538.61
49.27785,475.76,537.80
49.29966,472.30,538.98
49.31862,472.11,539.41
49.33934,475.15,539.61
49.35824,473.02,539.73
49.37855,471.81,539.97
49.39808,471.50,538.77
49.41824,474.29,539.64
49.43900,473.63,542.62
49.45942,471.44,542.49
49.47892,471.46,540.37
49.49846,471.49,541.29
49.51828,470.20,540.79
49.53780,473.51,539.05
49.55870,473.39,539.63
49.57843,474.43,540.32
49.59807,473.95,540.94
49.61818,474.39,540.46
49.63807,476.80,542.74
49.65911,474.58,543.66
49.67808,476.46,540.52
49.69840,479.70,531.62
49.71972,482.98,526.97
49.73924,481.96,522.50
49.75978,482.21,522.23
49.77776,482.08,523.32
49.79823,482.95,521.87
49.81959,479.70,524.70
49.83823,478.75,525.19
49.85904,478.21,529.58
49.87942,478.36,528.54
49.89938,479.11,528.53
49.91783,477.67,530.06
49.93937,476.58,532.01
49.95962,477.25,529.83
49.97893,475.84,529.76
49.99919,474.32,532.23
50.01891,477.80,530.61
50.03836,477.72,531.21
50.05796,477.27,532.55
50.07869,474.46,532.49
50.09826,473.85,534.98
50.11875,475.00,534.90
50.13884,472.18,536.45
50.15839,473.10,534.22
50.17938,481.88,540.10
50.19935,498.66,545.10
50.21759,522.54,558.94
50.23968,548.71,571.22
50.25939,577.23,578.92
50.27799,599.77,582.95
50.29802,618.09,588.55
50.31808,628.76,588.40
50.33818,633.56,588.19
50.35895,632.39,586.56
50.37868,631.37,582.37
50.39835,623.52,577.83
50.41926,612.61,574.36
50.43823,601.59,571.63
50.45835,589.53,565.55
50.47944,580.10,563.59
50.49826,568.93,562.14
50.51775,557.37,558.70
50.53845,546.86,555.71
50.55783,539.40,552.89
50.57915,531.79,553.48
50.59843,522.70,550.17
50.61964,518.43,548.57
50.63957,513.68,548.40
50.65936,505.75,546.00
50.67773,503.82,546.35
50.69929,501.13,544.85
50.71962,497.43,541.38
50.73930,494.48,544.17
50.75766,491.57,540.96
50.77846,488.03,541.66
50.79778,485.53,539.97
50.81915,486.84,540.82
50.83880,484.55,540.43
50.85869,481.50,541.15
50.87962,481.06,539.76
50.89818,479.84,539.94
50.91909,479.30,539.20
50.93775,480.67,538.71
50.95789,478.90,537.82
50.97932,478.88,535.95
50.99971,480.42,538.58
51.01917,479.55,540.45
51.03918,478.41,537.02
51.05839,478.96,537.45
51.07976,475.71,542.41
51.09817,475.37,544.38
51.11853,475.76,546.65
51.13842,472.32,554.60
51.15865,473.96,557.72
51.17837,468.32,561.58
51.19887,461.89,563.93
51.21950,448.47,562.13
51.23864,431.08,552.25
51.25828,406.59,537.27
51.27870,379.55,512.77
51.29939,349.17,491.30
51.31946,325.55,468.51
51.33844,306.67,455.35
51.35857,299.62,444.50
51.37785,300.17,444.58
51.39966,307.92,445.09
51.41797,319.37,453.39
51.43798,332.71,459.94
51.45961,345.18,466.74
51.47921,356.13,475.94
51.49785,372.18,480.70
51.51803,383.29,489.23
51.53955,395.05,495.79
51.55830,405.23,504.35
51.57873,412.53,511.03
51.59800,423.91,516.33
51.61810,430.41,517.71
51.63911,437.15,522.42
51.65872,440.93,528.23
51.67928,445.22,530.85
51.69949,453.00,533.12
51.71771,452.77,531.51
51.73895,458.94,535.27
51.75833,463.43,535.73
51.77884,464.09,536.69
51.79781,468.44,537.10
51.81941,467.91,538.49
51.83947,473.13,537.88
51.85851,474.50,537.03
51.87898,473.60,538.04
51.89914,475.48,536.87
51.91829,477.08,538.78
51.93765,475.70,540.37
51.95809,474.76,539.44
51.97789,477.79,541.51
51.99929,474.05,538.25
52.01893,476.76,540.56
52.03859,476.89,538.33
52.05928,477.19,537.10
52.07935,477.06,538.44
52.09850,475.81,538.40
52.11901,478.60,540.37
52.13894,479.86,539.91
52.15916,478.86,537.97
52.17765,478.38,540.54
52.19828,479.19,537.05
52.21955,478.00,539.46
52.23938,476.39,539.08
52.25948,476.53,538.60
52.27886,477.50,533.93
52.29905,475.04,535.96
52.31950,476.38,536.89
52.33820,477.76,534.27
52.35906,476.83,538.21
52.37901,475.89,538.78
52.39864,476.46,537.86
52.41962,476.00,536.34
52.43898,474.93,538.05
52.45941,476.05,540.57
52.47882,473.51,542.27
52.49772,476.59,540.69
52.51842,476.06,542.11
52.53899,477.09,539.52
52.55849,475.48,541.59
52.57876,478.33,540.10
52.59891,478.18,543.31
52.61893,476.75,539.69
52.63933,475.68,539.02
52.65948,474.72,539.08
52.67933,473.57,540.70
52.69885,477.15,539.51
52.71928,474.14,540.14
52.73865,473.37,538.85
52.75917,473.29,541.88
52.77847,474.56,539.90
52.79955,475.47,541.32
52.81922,475.50,546.24
52.83797,478.34,545.66
52.85892,479.60,547.30
52.87955,478.80,544.39
52.89929,476.98,543.50
52.91885,479.61,545.18
52.93873,479.93,545.32
52.95938,476.29,545.04
52.97865,480.67,544.08
52.99828,477.37,542.89
53.01895,477.30,541.94
53.03938,478.53,543.48
53.05858,479.12,541.77
53.07948,481.42,540.14
53.09830,478.66,539.58
53.11928,478.18,541.46
53.13760,480.42,541.59
53.15782,478.10,538.16
53.17852,480.52,540.07
53.19812,479.22,538.81
53.21807,480.67,539.86
53.23875,481.52,539.12
53.25877,478.63,540.04
53.27879,478.25,542.26
53.29912,478.45,542.72
53.31911,476.93,543.06
53.33852,477.48,541.21
53.35826,478.32,538.74
53.37922,478.25,537.83
53.39928,478.61,539.80
53.41842,480.35,538.69
53.43818,479.97,540.10
53.45847,478.41,540.14
53.47937,479.92,539.00
53.49823,480.99,539.48
53.51948,480.06,537.68
53.53888,480.52,539.17
53.55862,481.92,538.37
53.57900,478.91,538.39
53.59951,480.34,540.95
53.61936,480.56,538.94
53.63796,478.75,539.07
53.65825,477.80,540.06
53.67859,480.39,540.60
53.69805,478.33,536.72
53.71906,479.45,538.43
53.73845,476.22,535.96
53.75835,479.40,536.48
53.77776,478.88,536.71
53.79803,476.82,534.94
53.81834,477.94,536.99
53.83963,486.22,539.96
53.85825,499.89,548.93
53.87949,525.46,558.94
53.89828,554.48,572.59
53.91947,584.80,581.45
53.93863,609.04,589.13
53.95918,626.39,589.80
53.97858,640.60,591.20
53.99918,646.90,584.91
54.01891,647.24,582.21
54.03901,641.16,574.58
54.05942,633.56,567.60
54.07932,623.57,564.16
54.09790,613.92,557.35
54.11890,604.30,553.38
54.13847,592.65,549.41
54.15932,579.12,545.01
54.17861,568.55,544.23
54.19917,561.54,541.53
54.21895,551.43,542.05
54.23878,540.96,538.74
54.25828,532.12,539.76
54.27949,524.70,540.51
54.29768,521.23,541.55
54.31864,512.71,539.04
54.34003,510.55,539.24
54.36011,506.69,539.49
54.37967,504.02,536.62
54.39929,499.70,537.18
54.41975,496.17,535.04
54.44021,494.40,536.18
54.46058,489.40,537.86
54.47982,490.23,535.14
54.49953,488.19,537.43
54.51967,488.60,534.73
54.53953,487.98,536.58
54.56066,488.71,534.73
54.57894,488.59,536.48
54.59968,484.08,534.29
54.61977,483.79,533.63
54.63974,482.87,534.38
54.66007,480.07,532.84
54.67901,481.09,532.98
54.69912,481.23,534.82
54.71980,479.58,536.33
54.74017,476.89,533.90
54.75887,480.27,533.33
54.77891,479.34,533.35
54.79925,479.35,534.08
54.82037,481.30,533.10
54.83896,479.48,535.19
54.85957,478.74,534.78
54.87930,478.13,535.81
54.90055,476.39,537.92
54.91848,478.54,538.67
54.93883,476.57,536.20
54.95864,471.68,539.54
54.98038,463.37,539.77
54.99894,449.40,541.29
55.01979,431.62,541.36
55.03925,411.20,537.64
55.05889,388.00,531.23
55.07857,366.23,520.21
55.09858,343.64,506.78
55.11982,321.87,492.69
55.13868,308.95,481.95
55.16018,299.59,471.78
55.17874,304.35,467.96
55.19912,310.49,470.49
55.22035,322.98,475.53
55.24030,335.50,479.36
55.25899,347.71,485.55
55.27943,363.04,492.88
55.29970,373.90,499.82
55.32069,387.60,503.18
55.34001,398.66,510.49
55.35974,407.78,512.27
55.37973,417.79,516.46
55.39953,425.98,517.91
55.41870,433.15,519.50
55.43986,435.49,520.53
55.45904,441.70,522.63
55.47971,446.85,523.52
55.49960,452.06,525.76
55.52008,456.11,525.36
55.54049,462.15,525.52
55.56013,464.94,527.07
55.57893,470.05,527.31
55.59976,467.24,527.69
55.61907,471.18,525.27
55.63992,474.65,527.16
55.66031,475.39,528.39
55.68049,475.79,524.91
55.69991,477.14,526.42
55.72053,478.00,527.71
55.73869,477.45,529.84
55.75897,476.03,528.41
55.78035,478.62,529.80
55.79938,480.09,530.12
55.81956,478.97,528.47
55.84004,482.35,530.63
55.86047,482.11,531.56
55.88029,479.21,531.15
55.89963,477.84,529.70
55.91887,477.78,533.28
55.93932,479.87,531.03
55.95986,477.13,531.25
55.98032,478.92,531.16
55.99987,479.20,530.96
56.02003,476.69,533.91
56.04037,476.55,530.99
56.05943,474.69,533.23
56.08017,474.57,532.80
56.09961,477.06,531.78
56.11877,477.08,532.06
56.14069,477.35,529.75
56.15900,476.98,531.52
56.17925,478.61,533.64
56.19920,476.69,530.23
56.21876,478.25,530.26
56.23866,477.32,530.26
56.25902,477.17,532.96
56.28013,479.17,530.29
56.30005,479.26,531.62
56.31938,478.85,533.72
56.33957,480.93,531.49
56.35911,480.03,530.69
56.37970,479.02,530.89
56.39876,480.52,530.84
56.41912,481.07,531.97
56.43918,477.80,531.75
56.45997,481.04,529.89
56.47994,481.74,528.92
56.49870,478.65,530.11
56.51940,478.76,528.89
56.53877,480.82,530.74
56.55878,478.12,530.78
56.57961,479.36,529.32
56.59944,483.35,529.32
56.61974,481.20,530.55
56.64044,481.15,529.41
56.65868,484.48,530.39
56.67997,482.47,527.78
56.69912,482.71,529.62
56.71909,482.37,530.26
56.73935,482.60,529.41
56.75918,483.70,531.94
56.78021,482.48,529.54
56.79894,482.56,529.72
56.82036,480.86,532.69
56.83987,480.49,533.39
56.85879,484.51,529.99
56.87886,482.51,532.12
56.90057,483.92,530.51
56.92006,483.60,529.33
56.93895,484.45,530.45
56.95978,484.11,530.96
56.97871,480.69,532.24
57.00037,482.20,529.06
57.01978,481.27,528.94
57.03872,481.80,530.52
57.05985,481.92,530.55
57.07946,481.07,532.28
57.09984,480.20,533.06
57.12056,483.37,530.51
57.13945,479.19,531.74
57.16057,480.86,532.49
57.17960,480.00,533.00
57.20044,483.32,532.95
57.21975,483.95,533.63
57.23881,482.30,534.11
57.26033,479.13,532.65
57.27908,482.27,533.33
57.29975,481.01,529.53
57.32051,480.14,529.67
57.33990,482.10,530.10
57.36039,481.87,528.68
57.37987,482.83,528.77
57.39878,478.86,530.91
57.41978,481.06,527.23
57.43936,480.53,529.52
57.45954,481.13,528.13
57.47885,480.65,531.46
57.49935,478.92,527.45
57.51905,482.94,529.66
57.54006,481.91,529.16
57.55967,482.95,525.41
57.57872,480.67,526.15
57.59954,479.49,526.25
57.62033,480.30,525.87
57.64001,480.22,525.15
57.65926,482.25,528.39
57.67977,482.26,527.02
57.69936,482.83,528.64
57.71959,485.18,526.62
57.73955,496.12,533.13
57.76002,513.98,541.61
57.78047,537.99,554.55
57.80009,559.69,559.78
57.81861,585.09,566.32
57.83892,606.97,571.89
57.85976,621.05,571.59
57.87927,632.97,572.08
57.89901,638.29,565.59
57.91951,638.33,561.94
57.93984,634.25,555.93
57.95969,628.99,552.68
57.97992,621.34,545.92
57.99867,612.26,544.08
58.02038,601.85,539.80
58.04056,593.14,536.54
58.05989,579.44,537.18
58.07966,567.80,535.04
58.09919,559.99,534.36
58.11863,549.36,530.35
58.13885,543.85,531.62
58.16007,537.65,529.37
58.17874,530.08,532.79
58.19888,522.30,531.87
58.22031,516.23,530.03
58.23947,513.98,530.53
58.26021,508.96,532.08
58.27985,505.06,530.98
58.30037,503.50,531.32
58.31884,500.10,529.94
58.33934,495.90,530.41
58.36021,493.85,530.55
58.38008,492.57,532.71
58.39862,489.60,533.31
58.42033,491.02,531.22
58.43871,486.93,534.90
58.45883,487.31,531.72
58.47878,483.04,533.72
58.49930,484.85,534.35
58.52013,483.82,533.38
58.53867,480.06,533.72
58.56008,480.81,531.54
58.58051,478.82,532.76
58.59956,479.92,532.09
58.61871,482.33,528.41
58.63926,480.90,530.61
58.65882,479.79,529.93
58.68052,482.16,529.37
58.69949,478.54,530.84
58.72046,478.08,531.17
58.73888,480.35,532.39
58.75882,472.22,534.40
58.77943,464.19,534.06
58.79980,445.16,532.40
58.81877,423.36,529.40
58.83965,399.14,522.54
58.86032,374.46,516.25
58.87957,350.77,507.35
58.89936,331.92,495.45
58.92018,313.42,481.38
58.93929,300.43,473.31
58.96003,298.67,472.32
58.98021,305.95,473.23
59.00059,313.64,475.96
59.01969,325.28,476.12
59.03857,339.60,483.03
59.05931,351.05,487.32
59.07907,365.41,490.48
59.10056,381.01,497.15
59.11884,389.99,500.23
59.13913,402.24,505.93
59.16019,412.32,511.38
59.17996,420.14,514.19
59.20039,429.52,517.76
59.21863,437.27,521.90
59.24022,440.68,522.75
59.25959,447.26,525.70
59.27971,452.30,527.13
59.29913,453.66,526.55
59.31983,458.72,525.52
59.33867,460.71,526.24
59.36014,464.46,528.87
59.37902,465.67,526.92
59.40001,466.05,528.92
59.42000,468.52,529.38
59.43974,471.39,530.35
59.45927,470.12,529.99
59.47864,473.53,531.01
59.49926,474.70,533.56
59.51894,475.22,530.79
59.54001,476.21,532.42
59.55853,474.76,532.99
59.57964,475.21,530.47
59.59899,475.60,529.60
59.62024,477.53,533.08
59.64027,485.82,537.53
59.65997,489.64,540.87
59.67870,491.42,540.59
59.69954,493.00,540.93
59.72040,491.28,539.15
59.73895,492.60,537.38
59.75907,491.22,539.08
59.77885,487.79,536.79
59.79898,489.59,536.60
59.81876,490.40,535.87
59.83913,487.96,535.49
59.85932,489.29,534.03
59.87967,487.26,533.25
59.89865,483.77,532.18
59.91887,484.60,533.35
59.93853,482.47,531.94
59.96018,483.15,533.13
59.97900,484.58,534.62
59.99947,481.96,534.28
60.01870,480.15,532.86
60.04005,480.74,533.65
60.06020,480.96,534.22
60.08030,480.90,532.26
60.10061,481.31,531.56
60.12109,481.27,534.50
60.14125,478.82,532.24
60.16134,477.63,532.56
60.18126,478.75,533.33
60.20111,479.99,532.40
60.22106,480.52,530.54
60.24037,480.88,531.22
60.26132,479.44,532.71
60.28085,478.42,531.76
60.30019,477.90,529.97
60.32050,480.00,532.25
60.33977,481.01,529.08
60.36006,477.49,527.85
60.37970,477.49,528.44
60.40024,478.77,529.33
60.42005,478.70,531.31
60.44009,477.63,532.12
60.46024,477.19,530.27
60.48032,477.10,529.91
60.50101,479.09,528.41
60.52048,476.98,528.78
60.54133,475.65,527.10
60.55967,476.98,528.88
60.58022,476.41,526.20
60.60123,476.67,528.61
60.62029,480.52,528.97
60.64078,478.18,529.33
60.65959,475.78,530.04
60.68059,478.72,528.28
60.70099,477.30,532.01
60.72106,475.36,531.24
60.74021,475.66,529.96
60.76059,477.57,530.81
60.77972,476.99,530.12
60.80106,474.70,532.85
60.81983,476.80,531.61
60.84111,479.82,532.30
60.86094,478.16,534.66
60.88062,477.97,535.19
60.89998,478.94,531.62
60.92043,478.90,534.14
60.93978,478.53,533.53
60.95968,478.02,533.44
60.98041,474.85,532.93
61.00025,478.30,533.22
61.02050,474.37,529.51
61.04124,475.08,529.90
61.05944,478.83,531.30
61.08104,476.08,530.77
61.10054,478.83,533.08
61.12091,489.02,533.10
61.14041,504.33,539.68
61.16009,525.37,549.17
61.17961,546.82,558.60
61.19954,569.74,565.10
61.22112,590.07,571.97
61.24145,606.78,575.81
61.26078,621.16,580.34
61.27963,631.88,582.90
61.30134,632.11,580.05
61.32072,632.29,574.62
61.34081,628.70,570.37
61.36010,621.52,559.10
61.38149,609.53,554.54
61.39960,599.59,545.80
61.42134,585.49,538.53
61.44006,576.78,532.50
61.46119,563.32,527.39
61.48124,553.45,526.71
61.50146,543.18,521.40
61.51997,534.53,521.55
61.54140,530.11,520.82
61.56095,524.08,520.45
61.57952,519.03,521.72
61.60071,513.95,524.87
61.62004,506.66,525.82
61.64110,503.69,527.08
61.65979,500.10,524.04
61.67996,495.66,524.07
61.70057,492.84,524.52
61.72029,491.30,522.49
61.74099,489.44,523.30
61.75961,489.47,525.05
61.78113,487.73,523.09
61.79945,485.34,525.25
61.82070,484.05,523.41
61.84020,484.59,527.04
61.86142,481.87,523.72
61.88004,480.41,523.09
61.90010,479.27,527.38
61.91988,480.17,528.07
61.94048,479.26,528.59
61.95953,481.32,527.01
61.98070,481.87,528.27
61.99936,479.34,529.27
62.02118,477.71,529.18
62.03969,478.53,527.76
62.06116,480.50,530.01
62.08077,479.87,528.72
62.10081,480.93,530.13
62.12051,480.61,530.81
62.13968,479.55,530.30
62.15977,478.86,527.94
62.18106,478.98,531.08
62.20064,479.32,528.30
62.22024,479.15,529.47
62.24109,475.87,528.59
62.26115,477.00,531.23
62.28086,476.26,528.15
62.30080,475.73,529.24
62.32076,475.10,530.83
62.34065,475.87,528.62
62.36127,473.61,530.15
62.38163,476.26,532.21
62.40271,470.37,533.21
62.42251,461.73,535.57
62.44271,448.31,536.84
62.46166,426.84,535.43
62.48189,406.68,529.70
62.50148,383.06,528.95
62.52272,363.10,520.68
62.54272,343.56,515.64
62.56272,325.97,505.50
62.58232,319.59,500.85
62.60181,320.45,497.82
62.62218,325.05,497.68
62.64189,333.54,500.46
62.66230,342.91,500.72
62.68175,354.55,501.93
62.70286,364.98,504.96
62.72318,377.81,507.92
62.74356,387.23,509.77
62.76332,395.93,510.57
62.78302,405.93,513.29
62.80370,413.67,516.62
62.82368,419.44,520.01
62.84277,426.88,520.22
62.86400,434.13,525.10
62.88427,439.00,528.30
62.90385,442.89,529.70
62.92396,445.50,532.22
62.94406,447.90,529.32
62.96363,450.72,531.08
62.98418,455.44,529.54
63.00413,457.96,530.53
63.02409,459.44,529.09
63.04391,463.44,533.03
63.06266,463.46,532.75
63.08253,466.70,533.75
63.10447,465.69,530.73
63.12341,467.05,535.26
63.14414,465.32,532.91
63.16272,469.52,533.39
63.18286,468.79,537.78
63.20259,467.89,535.40
63.22367,468.00,538.07
63.24298,468.94,537.79
63.26273,470.68,536.34
63.28249,470.55,539.76
63.30521,468.97,539.26
63.32373,468.28,538.14
63.34408,467.73,535.88
63.36370,470.42,536.50
63.38349,469.63,538.08
63.40433,469.56,536.93
63.42347,467.15,536.03
63.44435,467.18,536.61
63.46516,467.35,535.53
63.48478,466.90,537.50
63.50389,469.57,541.01
63.52538,468.96,541.28
63.54486,469.52,540.91
63.56507,471.91,541.09
63.58525,472.54,539.87
63.60492,470.16,539.25
63.62438,470.29,542.03
63.64459,471.64,542.07
63.66372,472.21,539.31
63.68493,473.18,539.27
63.70369,471.47,538.28
63.72370,472.44,540.04
63.74530,469.57,539.36
63.76393,470.78,536.47
63.78384,473.16,538.86
63.80384,470.86,540.52
63.82536,471.59,538.83
63.84384,472.32,540.56
63.86385,471.14,538.68
63.88528,472.51,542.42
63.90330,472.19,542.14
63.92331,472.14,539.87
63.94447,472.31,539.38
63.96491,468.26,541.39
63.98393,467.68,540.51
64.00325,468.34,537.25
64.02386,471.22,539.60
64.04422,472.53,537.31
64.06409,471.20,538.84
64.08414,470.04,538.01
64.10504,472.47,537.53
64.12411,471.39,538.34
64.14456,470.54,537.44
64.16426,470.70,538.32
64.18457,471.98,537.09
64.20537,471.21,536.30
64.22508,469.64,536.49
64.24540,472.06,540.05
64.26429,471.71,540.15
64.28386,471.01,540.37
64.30496,473.21,538.78
64.32433,471.08,537.03
64.34475,469.69,538.16
64.36433,470.55,535.37
64.38457,470.54,539.27
64.40440,468.55,539.04
64.42492,470.88,536.57
64.44511,470.05,537.73
64.46435,469.61,535.96
64.48509,467.56,538.27
64.50437,470.56,536.22
64.52442,468.62,537.98
64.54354,472.42,539.19
64.56480,470.18,536.42
64.58502,469.62,536.19
64.60465,469.97,536.96
64.62435,472.29,536.85
64.64370,470.64,540.59
64.66338,472.26,540.46
64.68336,472.92,541.15
64.70470,472.79,540.60
64.72503,471.87,538.41
64.74443,471.41,537.22
64.76443,472.20,538.11
64.78515,469.55,537.00
64.80527,469.23,537.26
64.82597,472.19,539.45
64.84600,472.61,536.62
64.86553,471.78,539.87
64.88477,472.57,539.47
64.90490,471.26,537.63
64.92496,472.54,538.98
64.94635,471.53,539.66
64.96430,470.25,538.41
64.98617,467.24,537.59
65.00601,469.31,538.54
65.02457,467.59,539.95
65.04501,469.66,540.55
65.06591,468.85,538.79
65.08532,470.17,540.07
65.10493,471.00,539.89
65.12508,472.79,537.28
65.14464,472.67,536.95
65.16616,472.57,538.99
65.18463,471.12,537.55
65.20536,469.84,537.43
65.22614,469.69,537.62
65.24469,468.97,538.55
65.26616,469.78,539.17
65.28641,470.00,535.85
65.30552,471.79,538.67
65.32619,474.19,539.37
65.34490,488.32,545.58
65.36471,513.18,555.71
65.38640,537.09,566.39
65.40575,564.03,576.23
65.42548,587.37,581.85
65.44553,606.79,588.58
65.46535,620.88,588.34
65.48465,623.11,586.23
65.50593,624.74,581.35
65.52596,619.07,573.08
65.54626,610.86,565.95
65.56524,602.86,562.19
65.58566,594.07,555.19
65.60474,585.33,548.79
65.62494,573.20,543.60
65.64527,562.58,539.96
65.66576,552.82,539.66
65.68566,545.65,534.08
65.70593,533.32,533.33
65.72640,527.72,536.47
65.74709,520.28,535.28
65.76596,512.62,536.21
65.78533,507.08,533.49
65.80694,504.37,533.39
65.82673,497.82,536.84
65.84603,494.96,537.88
65.86708,493.41,537.11
65.88634,490.46,539.13
65.90729,489.01,540.50
65.92652,484.01,536.35
65.94637,482.93,537.96
65.96555,482.61,538.03
65.98639,479.40,539.01
66.00724,479.50,541.26
66.02689,476.80,542.57
66.04606,477.40,542.63
66.06585,477.28,540.78
66.08682,476.86,539.82
66.10749,476.35,541.36
66.12702,476.02,542.07
66.14772,475.62,540.49
66.16691,474.54,540.96
66.18788,474.20,538.07
66.20651,474.96,537.55
66.22735,477.14,538.19
66.24767,475.01,541.59
66.26809,477.05,540.62
66.28804,476.43,540.77
66.30737,470.91,541.72
66.32759,467.39,541.16
66.34781,455.88,537.37
66.36708,441.81,535.93
66.38803,421.63,536.01
66.40699,400.36,532.85
66.42725,379.44,528.27
66.44742,360.51,519.89
66.46689,342.44,512.18
66.48668,327.16,507.11
66.50813,315.70,497.98
66.52770,312.45,495.32
66.54662,315.13,493.38
66.56812,323.96,492.94
66.58701,335.10,495.37
66.60747,345.44,495.30
66.62786,361.94,501.57
66.64795,372.39,507.91
66.66662,384.34,508.10
66.68756,391.72,513.54
66.70791,403.55,518.95
66.72649,411.17,519.95
66.74710,420.18,524.84
66.76729,430.07,524.75
66.78688,434.44,528.00
66.80708,441.55,528.44
66.82766,444.74,532.52
66.84694,449.66,534.92
66.86792,450.27,534.05
66.88791,454.22,535.04
66.90825,459.62,535.31
66.92657,460.33,535.34
66.94722,462.61,534.15
66.96739,466.09,534.56
66.98726,467.46,536.49
67.00657,470.50,535.69
67.02791,469.97,537.82
67.04713,470.36,539.49
67.06815,472.86,537.55
67.08779,473.53,537.82
67.10803,473.02,539.38
67.12768,475.06,539.73
67.14768,477.16,537.11
67.16795,478.14,536.18
67.18802,477.73,538.30
67.20835,475.46,539.09
67.22743,477.18,535.42
67.24781,475.49,536.37
67.26883,477.63,538.44
67.28757,478.95,534.74
67.30909,478.63,535.56
67.32836,479.85,536.48
67.34746,478.46,538.85
67.36905,478.84,535.39
67.38800,475.54,538.21
67.40809,477.99,537.93
67.42904,475.43,537.77
67.44806,477.83,537.88
67.46742,477.64,534.77
67.48733,476.94,535.54
67.50770,475.16,537.96
67.52789,476.12,533.56
67.54782,473.98,533.97
67.56886,475.05,533.10
67.58798,477.21,533.48
67.60816,478.24,533.12
67.62870,476.41,533.23
67.64915,476.90,534.90
67.66880,476.66,535.83
67.68783,475.74,536.12
67.70893,472.93,534.01
67.72780,473.33,534.43
67.74793,475.14,534.87
67.76924,475.94,532.66
67.78774,476.94,535.34
67.80749,477.10,535.46
67.82800,477.92,535.05
67.84846,475.45,533.33
67.86880,474.43,536.11
67.88728,473.34,536.43
67.90780,473.08,533.79
67.92923,476.03,534.03
67.94820,475.29,535.18
67.96789,474.15,533.30
67.98787,476.10,535.94
68.00827,475.94,533.40
68.02894,477.99,535.82
68.04749,475.17,534.92
68.06725,479.63,535.98
68.08762,480.66,534.90
68.10751,479.52,532.83
68.12802,480.90,533.91
68.14898,482.89,534.83
68.16937,480.06,534.10
68.18888,479.62,533.58
68.20903,481.51,534.91
68.22812,480.14,535.41
68.24819,480.29,533.49
68.26854,480.05,532.91
68.28740,483.60,533.17
68.30901,481.00,534.13
68.32876,484.00,531.14
68.34755,483.25,530.93
68.36816,484.00,530.54
68.38757,482.87,532.55
68.40913,486.50,532.54
68.42872,482.32,533.92
68.44817,484.41,534.23
68.46864,482.61,536.40
68.48865,482.23,533.88
68.50824,480.66,536.64
68.52781,480.31,536.16
68.54799,481.23,535.74
68.56906,480.21,534.52
68.58864,481.40,534.85
68.60845,479.53,532.61
68.62743,481.98,530.37
68.64751,479.61,531.60
68.66822,477.82,532.44
68.68794,480.81,531.05
68.70849,482.59,531.97
68.72805,480.48,532.12
68.74840,482.14,534.70
68.76769,481.59,533.56
68.78883,480.43,535.91
68.80773,480.98,533.13
68.82851,479.21,533.01
68.84797,478.53,534.97
68.86932,479.79,532.28
68.88860,477.57,533.53
68.90878,477.40,532.45
68.92792,479.92,532.76
68.94780,478.88,535.71
68.96726,478.90,533.52
68.98828,481.63,534.02
69.00764,481.61,535.85
69.02816,478.88,533.87
69.04868,478.24,531.72
69.06843,482.09,534.90
69.08916,481.54,533.74
69.10781,481.50,533.72
69.12820,481.65,531.72
69.14749,478.47,534.33
69.16716,479.16,531.35
69.18845,478.96,533.41
69.20742,478.41,530.69
69.22902,476.28,534.20
69.24801,476.73,531.41
69.26809,477.92,531.88
69.28836,479.47,531.69
69.30736,478.27,531.69
69.32870,477.75,532.91
69.34764,479.57,531.34
69.36729,480.68,531.02
69.38834,480.48,531.86
69.40738,479.69,530.57
69.42750,480.44,531.86
69.44806,482.04,531.36
69.46797,479.48,530.09
69.48750,479.74,528.43
69.50746,481.21,528.58
69.52758,482.05,528.57
69.54909,480.14,527.20
69.56862,482.31,530.18
69.58798,480.56,528.97
69.60823,482.22,528.98
69.62807,480.42,530.84
69.64799,482.15,529.33
69.66896,478.91,529.37
69.68738,480.38,530.27
69.70850,481.34,528.45
69.72929,481.32,528.52
69.74714,477.68,527.87
69.76800,478.78,528.03
69.78809,479.39,529.37
69.80887,476.83,529.56
69.82787,480.54,530.76
69.84732,480.24,527.69
69.86859,479.87,528.51
69.88707,480.00,530.48
69.90830,488.27,535.33
69.92945,508.36,539.31
69.94839,532.21,550.67
69.96812,555.45,559.84
69.98920,582.30,569.66
70.01015,605.53,577.46
70.02905,622.23,579.27
70.04976,632.52,578.25
70.06924,637.64,575.43
70.08948,634.94,568.99
70.10887,628.52,562.71
70.12891,623.17,560.68
70.14897,612.43,552.96
70.16846,603.12,549.11
70.18983,593.03,545.77
70.20936,582.05,545.87
70.22834,571.63,541.14
70.24951,560.34,539.59
70.26967,553.67,538.69
70.28893,542.38,538.82
70.30910,535.56,537.56
70.32965,526.42,536.05
70.34976,521.43,533.70
70.36966,513.17,534.82
70.38979,510.33,532.85
70.41009,505.06,534.38
70.43035,503.58,529.85
70.45148,502.04,530.32
70.47059,498.72,528.34
70.49074,495.86,528.38
70.50972,496.11,531.32
70.52958,493.67,529.42
70.54912,489.61,527.70
70.57011,488.38,530.07
70.58961,488.79,529.84
70.61048,485.48,527.18
70.63119,486.06,529.19
70.65083,484.62,529.80
70.67032,483.94,531.51
70.68948,481.72,531.73
70.70994,483.08,531.85
70.73026,481.22,530.17
70.75003,482.17,533.23
70.76920,479.48,534.49
70.79107,477.80,532.82
70.81116,478.05,533.87
70.82956,480.38,532.29
70.85029,476.39,535.07
70.86968,479.90,532.03
70.88996,477.25,535.24
70.90960,477.43,535.08
70.92979,480.91,536.43
70.94926,477.40,533.16
70.96990,478.68,535.14
70.99064,480.16,534.50
71.00992,477.17,531.80
71.03105,469.41,533.57
71.04929,448.95,526.04
71.06957,425.86,519.64
71.09070,398.88,506.40
71.10922,369.07,494.58
71.13094,343.66,487.35
71.15109,325.97,483.31
71.17049,324.66,478.38
71.18936,323.31,479.24
71.21063,330.10,482.78
71.23042,340.11,487.16
71.25089,351.56,488.58
71.26984,365.38,492.56
71.28991,376.54,495.44
71.31039,384.33,499.70
71.32966,394.27,505.21
71.34928,406.76,509.07
71.36996,416.71,510.81
71.38957,424.94,514.35
71.41073,429.23,515.40
71.43190,434.59,517.53
71.45003,441.45,521.26
71.47069,444.45,521.57
71.49190,450.42,521.52
71.51174,452.59,522.82
71.53156,456.61,526.03
71.55017,459.54,527.03
71.57142,463.19,528.50
71.59185,463.98,529.70
71.61060,463.64,529.88
71.63118,468.21,530.39
71.65177,467.50,529.53
71.67176,471.11,531.49
71.69115,469.96,532.47
71.71183,471.80,531.18
71.73022,473.73,532.83
71.75101,472.18,530.81
71.77134,473.39,532.18
71.79055,473.10,530.07
71.81079,475.99,530.47
71.83149,474.34,529.22
71.85139,474.51,529.96
71.87159,474.76,530.32
71.89112,473.86,530.92
71.91045,474.90,530.49
71.93044,475.34,531.40
71.95063,476.62,532.57
71.97165,472.60,532.63
71.99100,473.60,529.99
72.01216,473.37,530.88
72.03121,476.08,527.92
72.05162,476.14,530.34
72.07204,473.72,532.41
72.09180,474.87,532.24
72.11164,474.36,532.15
72.13012,474.69,533.92
72.15082,474.73,533.28
72.17179,473.30,531.98
72.19160,477.30,531.26
72.21051,474.82,531.25
72.23038,476.51,531.36
72.25058,474.17,531.52
72.27051,476.53,532.37
72.29035,473.76,533.62
72.31204,475.38,534.41
72.33053,472.70,534.57
72.35129,474.31,530.90
72.37120,476.17,533.08
72.39124,473.77,535.17
72.41132,477.88,534.29
72.43081,476.27,534.10
72.45063,477.99,534.84
72.47129,478.31,535.22
72.49051,476.02,533.09
72.51121,476.49,534.17
72.53171,475.20,537.51
72.55135,475.57,535.60
72.57149,476.68,534.93
72.59096,477.69,537.27
72.61098,477.99,535.35
72.63149,480.48,534.30
72.65195,477.19,534.23
72.67178,477.25,532.69
72.69135,478.33,533.12
72.71095,477.43,534.37
72.73188,476.88,531.52
72.75543,475.98,530.91
72.77152,475.09,532.86
72.79066,474.94,531.09
72.81176,475.13,533.87
72.83040,477.73,537.56
72.85113,474.04,546.34
72.87150,474.16,562.82
72.89067,469.74,584.30
72.91082,459.12,602.62
72.93093,451.38,621.87
72.95036,439.88,631.66
72.97093,429.13,629.89
72.99186,421.48,615.91
73.01209,416.92,589.17
73.03116,411.42,555.97
73.05192,412.23,531.23
73.07169,416.99,508.49
73.09177,421.54,491.52
73.11170,428.31,482.08
73.13267,431.43,476.19
73.15275,436.93,468.87
73.17302,443.09,471.41
73.19158,448.18,472.25
73.21256,452.62,472.95
73.23365,460.42,477.24
73.25263,461.23,486.42
73.27281,466.06,488.11
73.29250,476.01,490.70
73.31323,479.87,490.53
73.33384,486.32,496.78
73.35407,486.76,502.51
73.37319,489.20,506.79
73.39386,486.34,515.29
73.41222,487.43,521.45
73.43357,484.94,529.15
73.45264,487.61,528.53
73.47267,483.52,532.45
73.49314,483.39,542.34
73.51241,481.28,543.66
73.53288,477.62,540.37
73.55213,474.79,549.63
73.57324,474.31,540.06
73.59345,478.35,525.10
73.61366,478.22,531.20
73.63344,480.73,526.07
73.65194,479.04,534.36
73.67254,481.29,537.57
73.69214,480.37,532.52
73.71473,475.25,537.06
73.73548,467.41,543.74
73.75441,465.81,541.65
73.77512,456.04,538.35
73.79491,458.52,554.39
73.81449,454.07,553.16
73.83421,455.11,568.72
73.85468,457.94,557.40
73.87583,462.30,539.98
73.89540,461.02,548.69
73.91618,463.51,545.83
