Program Time [s],data 0,data 1
4.03839,492.47,561.46
4.05831,490.77,559.86
4.07807,492.62,560.48
4.09787,489.86,559.75
4.11944,488.94,558.51
4.13864,491.27,560.13
4.15804,490.43,561.55
4.17812,491.16,560.71
4.19816,493.42,558.88
4.21911,492.98,558.69
4.23822,495.35,559.64
4.25981,493.66,560.21
4.27895,494.04,559.32
4.29820,491.37,558.65
4.31902,493.48,560.91
4.33944,490.89,560.60
4.35758,490.46,560.66
4.37800,491.52,558.20
4.39971,491.08,556.64
4.41820,489.53,557.94
4.43931,490.46,558.69
4.45880,492.04,559.54
4.47905,489.79,559.83
4.49772,491.85,556.26
4.51876,489.18,558.72
4.53991,489.73,556.94
4.56137,487.80,557.45
4.58013,489.39,559.00
4.60005,489.52,559.57
4.62136,489.72,557.53
4.64330,488.45,558.27
4.66174,489.46,556.27
4.68288,489.54,558.36
4.70247,488.48,555.63
4.72309,485.42,554.67
4.74320,486.89,555.72
4.76306,488.05,554.20
4.78248,489.13,556.04
4.80337,485.39,556.78
4.82332,485.98,557.40
4.84267,483.69,556.91
4.86322,486.71,555.96
4.88267,487.10,552.57
4.90219,489.69,561.91
4.92299,494.62,582.60
4.94269,498.81,603.64
4.96297,498.87,613.61
4.98292,500.27,613.76
5.00388,497.71,610.05
5.02290,496.05,603.74
5.04293,494.57,598.95
5.06334,494.07,593.81
5.08294,494.11,590.38
5.10284,492.53,583.55
5.12379,490.20,582.19
5.14340,491.15,576.81
5.16433,492.00,574.55
5.18309,488.44,571.91
5.20420,486.50,567.60
5.22386,485.42,566.92
5.24294,486.08,566.95
5.26386,485.02,564.24
5.28339,483.79,563.62
5.30433,483.30,566.50
5.32363,486.14,564.11
5.34273,485.03,565.16
5.36407,495.71,568.56
5.38328,520.32,568.57
5.40326,547.88,573.17
5.42289,574.63,579.67
5.44449,599.32,587.90
5.46437,619.68,592.99
5.48426,637.73,592.54
5.50355,648.69,588.07
5.52369,648.71,585.10
5.54277,645.59,578.19
5.56294,638.17,573.75
5.58427,631.17,569.08
5.60287,619.84,567.61
5.62395,608.06,562.06
5.64355,595.58,558.21
5.66488,584.71,559.74
5.68626,572.71,559.46
5.70468,564.46,556.71
5.72557,554.98,556.60
5.74490,546.48,556.57
5.76732,536.95,556.88
5.78556,530.59,557.35
5.80725,522.14,558.06
5.82665,518.78,560.62
5.84707,513.50,561.08
5.86620,508.86,561.12
5.88746,504.77,561.09
5.90725,502.38,559.85
5.92596,500.03,559.41
5.94765,497.97,560.58
5.96705,499.30,561.86
5.98675,496.73,561.75
6.00682,495.51,563.40
6.02746,492.96,562.63
6.04774,491.03,562.84
6.06669,490.66,564.47
6.08748,486.76,566.74
6.10846,489.95,565.24
6.12841,485.73,565.20
6.14766,485.31,563.81
6.16714,487.25,567.05
6.18682,485.75,567.54
6.20719,487.13,567.59
6.22861,485.86,565.36
6.24683,486.20,566.49
6.26696,486.79,566.45
6.28674,488.95,565.15
6.30662,487.15,564.33
6.32718,488.03,563.38
6.34775,484.92,564.04
6.36702,487.93,564.57
6.38760,485.23,563.06
6.40773,486.54,561.75
6.42837,486.98,564.20
6.44853,489.42,563.21
6.46822,488.07,565.65
6.48710,488.33,563.20
6.50689,480.30,562.15
6.52835,460.33,562.74
6.54859,431.99,559.76
6.56794,398.11,557.48
6.58778,364.88,551.00
6.60711,333.37,545.76
6.62730,315.57,536.99
6.64764,307.49,534.31
6.66772,311.42,532.85
6.68688,318.40,529.92
6.70715,327.71,531.09
6.72684,341.65,535.67
6.74759,352.99,534.66
6.76705,365.74,537.67
6.78828,379.88,541.58
6.80682,388.94,543.96
6.82823,402.33,545.76
6.84845,413.26,546.96
6.86698,421.15,548.25
6.88802,428.48,550.89
6.90845,437.75,552.51
6.92911,442.13,553.62
6.94910,449.22,553.04
6.96781,454.64,555.97
6.98805,460.98,555.36
7.00757,466.96,555.01
7.02920,468.06,555.89
7.04772,469.54,555.52
7.07035,472.37,555.78
7.08962,476.64,557.62
7.10973,476.85,557.95
7.13031,481.15,554.83
7.15239,480.23,556.21
7.17062,483.06,556.16
7.19257,482.73,558.06
7.21071,485.86,557.70
7.23064,487.24,555.64
7.25188,484.56,555.52
7.27154,487.01,555.79
7.29154,488.79,555.59
7.31107,491.06,552.94
7.33234,490.42,552.08
7.35207,489.57,551.95
7.37143,491.61,551.68
7.39274,488.52,550.84
7.41256,491.35,552.59
7.43328,488.76,553.56
7.45165,491.03,551.30
7.47271,491.29,551.83
7.49305,491.27,554.18
7.51456,490.30,554.00
7.53397,489.99,551.48
7.55386,491.66,555.11
7.57421,491.69,555.54
7.59482,489.42,557.04
7.61259,490.69,556.14
7.63330,488.81,555.59
7.65296,493.31,556.68
7.67309,492.40,556.70
7.69332,492.46,555.37
7.71391,492.07,555.74
7.73363,489.79,554.00
7.75334,490.79,556.56
7.77426,489.82,556.23
7.79275,491.41,557.01
7.81375,493.79,555.80
7.83325,492.20,555.27
7.85314,492.97,554.81
7.87338,491.14,554.28
7.89349,492.95,555.69
7.91474,490.75,555.94
7.93477,491.38,557.15
7.95413,492.45,555.83
7.97446,492.04,556.36
7.99369,491.39,554.21
8.01400,491.93,555.05
8.03395,493.51,557.28
8.05481,492.86,554.64
8.07523,490.57,554.71
8.09485,491.23,555.84
8.11444,490.38,553.36
8.13455,488.82,554.88
8.15372,489.72,554.68
8.17419,491.31,552.84
8.19415,490.63,553.76
8.21422,492.37,554.28
8.23409,492.49,553.96
8.25490,492.15,552.46
8.27516,491.72,556.22
8.29434,491.62,556.74
8.31400,493.35,554.76
8.33406,493.84,557.03
8.35432,494.89,559.49
8.37488,492.97,560.08
8.39488,490.65,559.35
8.41399,491.89,560.39
8.43423,495.33,561.36
8.45502,493.91,560.84
8.47442,490.58,558.62
8.49371,492.54,560.98
8.51367,489.53,557.61
8.53440,491.45,555.78
8.55405,491.39,558.03
8.57443,490.80,556.90
8.59417,493.47,559.74
8.61512,492.26,560.27
8.63395,490.97,557.31
8.65548,490.40,560.12
8.67514,493.49,560.28
8.69382,491.66,556.67
8.71486,493.69,556.51
8.73476,491.88,557.82
8.75431,491.25,557.26
8.77439,493.07,558.44
8.79512,490.74,559.02
8.81479,490.26,557.51
8.83505,491.12,558.05
8.85447,491.88,557.46
8.87473,492.57,560.15
8.89388,490.66,558.31
8.91492,492.47,558.90
8.93370,489.74,559.43
8.95456,490.62,560.23
8.97423,488.93,560.38
8.99442,489.48,558.79
9.01467,490.19,558.89
9.03463,492.97,559.91
9.05534,490.53,557.38
9.07387,492.77,558.67
9.09461,493.10,557.96
9.11474,489.33,558.06
9.13361,492.22,558.79
9.15381,489.83,557.48
9.17485,492.72,559.39
9.19552,490.15,556.59
9.21422,490.20,559.17
9.23457,493.44,555.26
9.25528,492.55,555.44
9.27487,494.97,556.08
9.29478,510.69,560.77
9.31502,534.36,566.43
9.33425,563.77,573.46
9.35529,591.48,574.65
9.37498,615.52,580.20
9.39452,632.34,579.43
9.41488,644.21,579.12
9.43505,646.93,579.96
9.45388,646.08,577.24
9.47477,643.60,577.55
9.49600,640.49,573.98
9.51652,630.14,573.17
9.53544,624.24,572.38
9.55585,611.72,570.54
9.57649,599.60,571.83
9.59519,591.76,571.13
9.61606,578.36,569.52
9.63643,569.86,570.99
9.65484,558.95,570.03
9.67500,551.64,571.86
9.69572,543.59,570.62
9.71621,537.89,570.91
9.73552,529.16,566.31
9.75631,523.82,567.93
9.77642,520.26,565.97
9.79571,517.89,567.22
9.81516,514.64,563.75
9.83610,510.17,564.65
9.85641,508.67,567.46
9.87569,505.64,565.50
9.89580,501.52,566.48
9.91594,500.70,567.20
9.93506,497.95,566.65
9.95631,498.32,565.86
9.97526,493.29,563.53
9.99619,491.99,563.25
10.01595,495.85,566.08
10.03568,492.54,566.99
10.05610,491.23,567.73
10.07460,492.78,565.92
10.09558,494.55,565.38
10.11633,491.02,568.34
10.13538,491.75,568.67
10.15577,494.42,566.12
10.17635,494.75,567.43
10.19686,487.64,566.32
10.21544,478.32,562.53
10.23572,462.75,561.01
10.25746,439.65,556.29
10.27732,411.99,550.38
10.29752,380.58,539.75
10.31645,352.23,525.02
10.33685,326.09,515.74
10.35665,307.75,507.08
10.37668,305.10,504.12
10.39763,308.54,505.57
10.41675,313.61,508.10
10.43668,328.70,510.02
10.45691,339.23,517.56
10.47671,354.81,520.31
10.49716,366.49,527.01
10.51655,382.85,531.00
10.53719,393.68,536.81
10.55794,408.15,540.09
10.57660,416.02,546.69
10.59676,428.58,547.34
10.61796,433.50,551.45
10.63770,443.35,553.40
10.65800,446.24,552.67
10.67811,450.44,553.78
10.69689,453.36,554.87
10.71850,458.43,556.16
10.73701,463.26,558.89
10.75731,466.66,558.17
10.77819,470.27,563.00
10.79793,473.54,563.83
10.81844,475.85,563.86
10.83753,477.46,565.02
10.85698,476.64,562.09
10.87692,480.02,563.16
10.89826,481.39,562.65
10.91776,483.58,564.88
10.93664,482.36,565.42
10.95830,482.23,564.68
10.97762,484.26,564.89
10.99657,484.90,565.36
11.01934,485.27,569.06
11.03880,485.39,567.07
11.05793,484.61,566.90
11.07923,484.36,570.55
11.09910,483.79,567.53
11.11815,483.41,567.59
11.13780,486.90,570.56
11.15924,484.11,567.64
11.17754,487.99,568.68
11.19911,485.17,569.19
11.21883,487.36,570.09
11.23921,487.35,570.16
11.25781,485.08,569.69
11.27813,488.10,568.96
11.29867,489.52,569.49
11.31849,489.28,569.64
11.33877,490.54,570.85
11.35816,488.89,570.79
11.37803,489.87,568.82
11.39895,490.13,566.27
11.41834,488.05,568.73
11.43849,487.73,569.89
11.45900,487.25,570.63
11.47932,490.10,569.62
11.49890,486.32,567.65
11.51831,489.09,569.77
11.53833,489.48,569.82
11.55912,486.66,570.82
11.57778,490.79,570.55
11.59872,489.72,570.28
11.61775,486.92,568.66
11.63811,489.21,571.96
11.65808,487.58,570.63
11.67779,489.35,570.99
11.69810,490.41,570.25
11.71754,489.83,571.79
11.73954,487.45,570.65
11.75757,488.22,571.10
11.77866,487.52,572.83
11.79859,490.61,570.58
11.81763,489.60,572.55
11.83889,487.90,572.08
11.85994,488.83,572.34
11.88022,490.02,574.66
11.89956,490.61,571.12
11.91936,490.88,574.04
11.93991,492.34,572.07
11.95984,491.52,572.30
11.97891,490.61,572.43
11.99871,493.52,571.53
12.01898,491.77,570.21
12.04050,491.96,568.88
12.06029,491.78,569.27
12.08041,493.79,569.59
12.09958,494.71,568.24
12.11955,494.57,570.70
12.14149,494.26,569.78
12.16053,493.21,570.24
12.17979,491.53,569.09
12.20075,492.89,570.58
12.22142,493.45,569.72
12.24073,491.08,569.81
12.26226,492.97,571.28
12.28159,491.24,569.43
12.30158,491.03,571.47
12.32131,491.17,569.74
12.34097,490.57,570.67
12.36173,492.53,570.69
12.38117,492.19,569.72
12.40063,491.52,568.97
12.42156,492.07,567.32
12.44241,491.45,569.62
12.46232,489.48,570.52
12.48143,490.38,567.78
12.50201,490.81,567.86
12.52061,490.58,568.41
12.54247,491.72,568.86
12.56113,489.74,569.27
12.58112,491.04,567.16
12.60192,488.97,567.66
12.62163,489.10,570.94
12.64118,493.26,567.74
12.66191,490.65,570.12
12.68172,490.84,570.46
12.70190,491.70,569.62
12.72229,491.26,567.48
12.74111,493.59,568.64
12.76108,491.66,569.26
12.78242,488.36,567.87
12.80202,489.49,569.43
12.82256,490.02,567.78
12.84186,491.33,569.25
12.86193,491.03,566.35
12.88181,491.80,564.74
12.90161,493.68,563.80
12.92281,491.94,564.12
12.94186,493.37,562.96
12.96304,491.98,563.63
12.98181,490.08,561.69
13.00323,492.77,561.25
13.02168,493.55,562.78
13.04233,492.49,563.14
13.06325,494.61,563.57
13.08299,491.80,561.77
13.10311,491.06,562.00
13.12174,491.37,564.30
13.14332,490.96,561.46
13.16334,489.27,561.80
13.18306,491.26,560.28
13.20260,493.34,560.87
13.22265,490.35,561.57
13.24360,493.27,559.85
13.26266,490.60,557.53
13.28318,492.79,557.27
13.30395,490.19,557.37
13.32316,489.74,560.25
13.34317,492.25,559.81
13.36404,491.35,555.31
13.38382,493.20,555.41
13.40305,492.45,557.09
13.42260,494.03,557.50
13.44307,493.37,555.68
13.46345,491.64,558.55
13.48256,492.81,554.94
13.50389,490.59,557.97
13.52473,490.92,555.23
13.54452,491.58,555.52
13.56550,492.76,557.58
13.58543,491.49,556.84
13.60539,493.14,556.79
13.62525,490.15,553.67
13.64385,492.37,554.98
13.66433,494.66,553.28
13.68483,490.95,552.07
13.70407,493.88,548.91
13.72466,493.58,551.05
13.74425,493.64,549.61
13.76400,495.29,549.76
13.78559,494.14,550.97
13.80491,495.73,549.69
13.82461,492.78,545.83
13.84393,493.31,547.08
13.86527,491.72,547.13
13.88369,490.45,543.64
13.90420,492.63,546.49
13.92529,493.57,539.68
13.94508,499.80,545.70
13.96401,517.85,554.88
13.98385,548.06,567.60
14.00455,578.75,583.06
14.02376,608.86,593.17
14.04442,631.98,596.67
14.06506,647.15,597.51
14.08474,655.08,596.62
14.10416,659.11,593.36
14.12431,655.97,587.24
14.14391,650.83,584.88
14.16378,645.90,578.16
14.18496,632.09,578.45
14.20452,623.39,571.85
14.22445,608.15,569.91
14.24421,595.42,570.22
14.26475,585.58,565.80
14.28411,572.89,566.93
14.30386,562.98,564.39
14.32490,551.88,561.96
14.34381,544.46,563.67
14.36360,537.04,560.66
14.38358,532.65,559.16
14.40343,526.61,560.60
14.42431,521.89,557.94
14.44395,517.51,560.12
14.46482,515.69,557.95
14.48411,511.14,560.02
14.50343,508.83,557.41
14.52475,509.62,557.08
14.54492,507.67,554.81
14.56333,505.81,556.24
14.58428,504.56,555.26
14.60505,503.22,555.67
14.62542,500.92,556.96
14.64386,498.83,555.80
14.66388,500.79,559.65
14.68441,497.47,559.02
14.70419,498.70,559.96
14.72414,496.55,556.70
14.74501,495.20,558.91
14.76443,496.07,557.22
14.78501,492.05,556.23
14.80479,491.42,557.19
14.82495,493.77,558.87
14.84357,491.47,556.05
14.86498,490.70,556.39
14.88374,489.67,557.60
14.90492,489.75,554.71
14.92520,491.34,554.47
14.94537,493.32,556.60
14.96536,494.83,556.89
14.98394,494.77,556.92
15.00344,494.95,557.35
15.02441,493.44,555.29
15.04393,495.30,553.25
15.06413,497.37,557.31
15.08344,487.57,558.64
15.10464,466.56,561.57
15.12490,437.50,556.92
15.14509,405.05,549.28
15.16441,370.74,540.65
15.18474,337.92,527.35
15.20421,322.91,518.55
15.22495,317.71,511.93
15.24421,316.01,510.69
15.26485,324.28,510.56
15.28527,336.85,512.56
15.30414,346.67,513.27
15.32405,363.40,515.81
15.34472,376.30,521.00
15.36372,389.12,525.47
15.38435,402.48,529.01
15.40406,413.26,530.16
15.42491,421.26,532.42
15.44481,433.05,536.79
15.46420,439.81,539.67
15.48441,446.44,541.35
15.50409,453.46,544.80
15.52442,457.16,546.74
15.54359,463.95,546.68
15.56388,466.60,550.49
15.58447,473.03,553.28
15.60413,476.04,551.01
15.62412,478.82,552.97
15.64513,478.61,554.43
15.66452,480.34,554.67
15.68524,483.21,555.96
15.70350,484.52,554.30
15.72391,484.78,554.38
15.74417,488.00,556.48
15.76502,486.98,557.03
15.78434,489.25,555.18
15.80434,486.71,555.53
15.82530,490.01,557.72
15.84509,490.80,559.08
15.86371,490.20,559.84
15.88367,490.12,560.23
15.90412,490.86,558.52
15.92430,490.01,557.33
15.94523,492.24,558.49
15.96405,490.88,554.83
15.98414,491.79,556.44
16.00382,489.91,556.67
16.02370,490.26,558.18
16.04430,492.23,556.36
16.06460,491.19,558.92
16.08482,491.24,556.24
16.10387,492.82,558.00
16.12399,491.95,554.24
16.14368,492.61,554.31
16.16497,492.70,554.88
16.18331,490.91,554.68
16.20440,489.57,554.35
16.22432,492.53,554.66
16.24548,493.01,557.62
16.26531,492.87,555.13
16.28463,493.51,557.91
16.30517,491.14,556.90
16.32473,492.57,555.80
16.34484,490.13,554.68
16.36554,492.26,558.06
16.38430,488.39,555.96
16.40492,493.09,557.75
16.42507,492.95,558.77
16.44514,491.06,558.10
16.46516,490.06,558.77
16.48390,489.40,558.69
16.50466,491.05,558.48
16.52412,488.57,557.40
16.54518,491.95,560.18
16.56452,489.82,556.81
16.58492,491.57,558.79
16.60437,493.43,556.77
16.62377,494.49,558.76
16.64492,493.19,559.77
16.66460,492.97,560.77
16.68514,491.12,561.08
16.70505,494.42,558.67
16.72544,490.61,558.29
16.74499,494.65,559.01
16.76539,492.02,558.94
16.78367,493.31,560.06
16.80359,494.60,557.41
16.82484,493.06,557.51
16.84443,493.08,557.77
16.86383,491.88,556.65
16.88375,494.25,557.52
16.90364,493.21,557.10
16.92448,493.57,559.31
16.94352,493.61,558.83
16.96525,493.47,561.83
16.98541,489.85,558.25
17.00469,489.36,559.09
17.02502,490.79,556.42
17.04491,490.83,558.57
17.06381,491.27,555.87
17.08380,493.85,559.44
17.10483,491.94,558.07
17.12370,491.62,556.55
17.14470,493.51,556.17
17.16439,492.98,557.08
17.18505,492.53,556.74
17.20504,492.52,556.05
17.22461,492.37,555.49
17.24437,494.53,555.56
17.26498,490.65,557.08
17.28437,491.45,554.87
17.30496,491.62,557.22
17.32485,490.39,555.61
17.34483,490.39,555.15
17.36467,492.77,558.83
17.38518,492.93,556.28
17.40363,492.44,559.71
17.42390,493.13,558.70
17.44444,492.21,556.16
17.46386,489.46,556.85
17.48423,492.09,557.15
17.50552,488.50,557.29
17.52387,489.86,556.06
17.54538,489.50,555.70
17.56471,489.12,553.69
17.58543,491.43,553.72
17.60461,492.11,556.36
17.62394,493.42,556.26
17.64364,489.10,556.08
17.66467,489.66,558.10
17.68435,489.04,556.99
17.70341,493.17,555.44
17.72445,492.07,558.03
17.74457,492.19,558.16
17.76572,495.01,558.70
17.78614,492.50,556.40
17.80565,493.46,555.68
17.82604,493.32,558.37
17.84554,492.77,556.94
17.86564,494.55,554.48
17.88453,493.29,557.14
17.90462,492.10,555.25
17.92611,492.97,554.83
17.94467,494.51,552.59
17.96580,492.44,554.85
17.98493,494.05,554.96
18.00535,493.76,554.90
18.02455,491.66,555.60
18.04561,490.84,556.12
18.06550,493.05,556.42
18.08589,490.24,554.64
18.10488,491.21,556.03
18.12561,490.44,555.96
18.14528,488.97,556.19
18.16493,488.68,556.35
18.18586,487.94,554.09
18.20519,489.85,555.93
18.22634,489.79,557.22
18.24614,501.26,558.49
18.26653,525.38,565.41
18.28627,554.91,573.77
18.30686,586.13,579.52
18.32626,611.98,584.99
18.34633,629.05,584.27
18.36550,642.51,583.09
18.38627,654.08,583.58
18.40719,654.59,581.36
18.42565,650.14,579.22
18.44688,641.07,576.20
18.46574,632.01,576.41
18.48575,618.19,575.88
18.50655,607.94,575.41
18.52561,596.18,573.00
18.54543,583.91,570.49
18.56619,572.14,571.52
18.58667,561.93,571.92
18.60654,553.94,571.25
18.62697,543.87,570.11
18.64660,536.93,569.45
18.66607,532.44,568.58
18.68723,524.33,567.98
18.70605,521.84,568.97
18.72640,515.23,564.18
18.74691,514.98,566.66
18.76579,510.51,566.17
18.78677,507.56,563.52
18.80735,506.52,565.57
18.82665,505.57,564.86
18.84641,505.77,562.01
18.86652,502.84,564.77
18.88654,502.49,563.31
18.90621,499.12,561.58
18.92667,498.77,561.47
18.94707,496.16,565.19
18.96651,493.80,563.66
18.98551,493.46,562.10
19.00623,496.16,561.71
19.02576,492.88,562.84
19.04710,495.24,563.20
19.06588,494.03,560.67
19.08582,494.45,560.92
19.10577,495.68,562.50
19.12664,494.80,560.95
19.14593,494.29,561.02
19.16683,490.86,561.25
19.18585,492.53,560.17
19.20707,491.70,558.50
19.22694,492.96,561.18
19.24630,491.33,558.94
19.26663,491.55,560.61
19.28814,491.56,561.21
19.30837,489.38,563.23
19.32769,489.45,564.25
19.34666,490.80,563.14
19.36825,490.77,563.37
19.38816,493.11,562.58
19.40760,492.79,562.16
19.42785,491.83,563.59
19.44744,486.87,564.27
19.46748,463.14,562.94
19.48893,433.22,557.00
19.50751,398.47,548.72
19.52903,367.83,542.61
19.54890,339.39,536.71
19.56939,320.66,531.29
19.58824,314.50,529.49
19.60895,315.16,527.81
19.62863,321.01,530.38
19.64855,331.12,530.92
19.66774,346.35,535.04
19.68869,361.66,537.98
19.70804,371.54,540.61
19.72862,386.73,542.61
19.74880,396.00,543.27
19.76772,407.49,546.59
19.78727,417.15,548.65
19.80911,424.88,549.29
19.82861,433.20,550.55
19.84937,443.47,552.65
19.86821,449.70,552.21
19.88796,452.99,553.69
19.90936,456.89,557.87
19.92782,461.98,558.90
19.94788,467.03,560.58
19.96755,468.23,563.53
19.98809,472.92,564.24
20.00869,471.32,564.02
20.02751,474.83,564.21
20.04815,477.09,565.25
20.06827,482.18,566.84
20.08869,483.24,565.22
20.10872,483.66,566.30
20.12992,483.58,567.55
20.14890,484.57,566.54
20.16892,485.28,566.87
20.19019,483.60,568.41
20.20981,484.95,566.59
20.22852,483.22,565.90
20.24958,486.53,565.70
20.26953,483.20,563.86
20.28988,484.82,563.89
20.30949,483.91,564.80
20.32837,485.56,567.60
20.34970,484.54,564.97
20.36974,484.96,567.74
20.39019,483.29,565.85
20.40929,484.22,565.28
20.42923,483.75,566.81
20.44885,485.36,565.97
20.46888,481.95,566.20
20.48878,484.82,568.09
20.50995,484.37,568.45
20.52946,486.35,567.23
20.55013,486.96,566.90
20.56863,484.21,569.19
20.59018,487.39,568.65
20.61015,484.42,569.03
20.62965,487.64,569.42
20.64920,485.03,567.65
20.66836,486.41,566.71
20.68880,485.93,567.20
20.70857,487.01,567.81
20.72879,485.19,569.11
20.75012,487.68,567.02
20.76909,485.29,567.72
20.78930,483.92,567.05
20.80876,484.27,566.56
20.83008,484.73,567.19
20.84905,485.24,567.65
20.86950,484.66,568.65
20.88877,482.46,565.10
20.90868,485.59,565.07
20.92984,485.88,568.59
20.94949,483.73,568.46
20.96929,483.12,569.40
20.98929,484.75,570.01
21.01002,484.09,567.17
21.02914,483.62,568.71
21.04878,485.61,566.07
21.06826,486.09,565.31
21.08858,484.96,568.77
21.10883,485.64,567.17
21.12934,486.95,567.23
21.14905,486.73,567.33
21.16932,489.38,568.68
21.18868,488.05,566.82
21.20951,485.86,566.43
21.22885,486.29,568.77
21.25016,486.20,567.49
21.26943,487.11,568.20
21.28909,486.46,566.77
21.31017,485.91,564.72
21.32961,486.53,567.99
21.34894,486.19,565.45
21.36865,486.19,567.11
21.39016,488.26,569.61
21.40833,486.83,566.80
21.42845,487.23,569.10
21.44835,486.41,571.02
21.46868,487.16,568.97
21.48839,488.34,568.06
21.50875,489.62,571.75
21.52848,487.55,568.68
21.54935,487.41,567.81
21.56988,487.88,570.04
21.58920,486.72,565.82
21.60843,486.36,566.54
21.63005,486.67,566.41
21.64870,483.94,566.91
21.66871,485.76,566.82
21.68919,487.44,569.16
21.70843,487.09,566.57
21.72943,488.89,570.52
21.74870,486.94,568.48
21.77009,487.43,568.56
21.78937,486.43,566.55
21.81031,487.36,568.19
21.83081,488.98,566.06
21.84988,489.68,566.41
21.86946,487.78,568.67
21.89096,491.52,566.73
21.91210,488.94,565.66
21.93075,491.06,566.80
21.95029,491.96,568.57
21.97156,490.31,567.34
21.99320,489.36,570.66
22.01231,488.53,567.95
22.03140,486.98,568.78
22.05129,486.78,571.25
22.07291,490.36,567.51
22.09252,489.79,568.37
22.11279,489.91,570.10
22.13300,488.04,567.52
22.15230,488.95,566.80
22.17125,489.04,567.43
22.19282,491.53,571.69
22.21297,490.50,570.92
22.23285,488.28,569.33
22.25262,486.97,569.93
22.27310,490.80,568.26
22.29143,489.76,571.61
22.31333,489.40,571.42
22.33137,490.70,570.18
22.35234,487.81,570.89
22.37157,488.27,568.92
22.39319,488.92,568.11
22.41132,489.26,568.55
22.43288,487.59,567.88
22.45130,489.70,567.25
22.47209,489.88,569.26
22.49248,491.48,566.00
22.51224,488.04,569.30
22.53231,491.02,566.68
22.55185,490.45,567.42
22.57184,491.43,566.54
22.59249,490.77,569.88
22.61250,491.64,566.94
22.63271,493.79,569.41
22.65215,492.87,567.24
22.67295,490.58,566.14
22.69338,490.36,567.70
22.71290,491.11,566.55
22.73357,488.11,566.14
22.75353,489.51,566.13
22.77432,490.04,566.82
22.79296,488.03,565.22
22.81414,489.97,567.58
22.83376,488.48,567.91
22.85345,489.83,564.98
22.87409,488.49,564.40
22.89341,492.96,563.96
22.91324,492.04,563.45
22.93524,489.47,562.43
22.95421,488.50,562.69
22.97379,491.92,560.34
22.99474,492.16,560.66
23.01485,493.27,559.65
23.03456,494.11,560.74
23.05410,491.66,561.06
23.07482,491.03,559.63
23.09451,491.03,560.23
23.11484,489.43,560.17
23.13426,491.40,562.30
23.15372,490.83,561.41
23.17366,492.88,559.04
23.19476,490.27,562.02
23.21462,493.00,561.99
23.23395,493.70,561.98
23.25361,489.59,563.15
23.27363,492.00,562.78
23.29351,492.00,562.20
23.31456,489.44,561.52
23.33370,491.08,561.55
23.35363,490.20,564.24
23.37411,490.19,563.65
23.39350,489.71,563.41
23.41441,490.91,562.76
23.43421,490.01,561.83
23.45377,493.14,560.87
23.47559,492.80,559.59
23.49616,492.12,560.31
23.51431,489.06,557.82
23.53491,491.27,557.17
23.55542,489.97,558.75
23.57586,489.93,556.88
23.59471,489.17,557.47
23.61543,491.52,553.66
23.63596,491.00,554.89
23.65578,490.66,556.53
23.67509,492.10,554.42
23.69516,494.48,553.36
23.71522,491.48,555.23
23.73572,490.51,553.19
23.75420,490.39,554.80
23.77447,497.64,559.50
23.79582,516.81,566.47
23.81414,552.48,584.95
23.83529,590.73,600.47
23.85484,624.37,611.73
23.87590,652.23,613.03
23.89563,667.31,607.31
23.91583,669.83,599.39
23.93446,670.42,588.92
23.95487,665.43,579.40
23.97427,654.66,572.75
23.99539,646.88,565.23
24.01600,635.95,560.44
24.03532,620.59,558.04
24.05507,610.18,554.09
24.07491,596.01,554.69
24.09496,582.20,553.69
24.11460,572.33,552.62
24.13558,561.49,552.87
24.15443,550.94,553.92
24.17479,545.02,552.92
24.19510,538.42,555.40
24.21531,532.67,554.46
24.23503,527.02,556.74
24.25453,524.30,554.15
24.27556,519.82,554.77
24.29604,514.78,558.58
24.31532,512.38,556.52
24.33599,511.17,555.82
24.35454,508.81,556.35
24.37489,504.68,556.72
24.39500,501.38,557.83
24.41559,498.98,557.29
24.43621,501.62,558.65
24.45614,498.56,561.37
24.47529,499.05,561.23
24.49606,495.19,560.12
24.51555,496.42,558.35
24.53553,493.49,557.47
24.55460,496.79,555.78
24.57575,494.87,554.76
24.59563,494.19,556.71
24.61438,494.42,555.93
24.63554,493.30,558.59
24.65455,496.76,561.11
24.67517,494.09,558.60
24.69589,493.11,560.43
24.71451,490.27,558.70
24.73459,493.89,559.63
24.75593,488.17,561.14
24.77603,476.60,562.88
24.79538,453.84,562.74
24.81534,424.34,553.56
24.83456,392.21,541.92
24.85561,359.34,532.06
24.87532,333.11,521.20
24.89574,318.50,514.79
24.91428,312.35,509.75
24.93574,319.10,509.23
24.95593,328.62,510.57
24.97438,337.45,513.54
24.99424,351.58,515.96
25.01530,363.73,517.69
25.03468,377.99,522.13
25.05539,390.33,525.23
25.07616,404.83,525.90
25.09562,412.87,530.17
25.11467,424.56,533.71
25.13531,433.18,537.35
25.15451,440.34,537.42
25.17520,445.92,540.65
25.19581,454.43,541.76
25.21490,457.28,545.78
25.23583,462.47,545.05
25.25542,465.56,549.46
25.27437,471.54,547.77
25.29613,471.52,548.12
25.31570,474.89,550.82
25.33428,475.18,552.91
25.35609,477.49,552.54
25.37587,477.00,552.44
25.39616,478.04,553.13
25.41605,482.27,553.82
25.43458,483.45,552.27
25.45426,483.89,552.10
25.47620,482.00,552.16
25.49546,483.14,552.01
25.51627,487.91,554.56
25.53475,490.23,551.79
25.55606,490.29,550.81
25.57509,490.70,550.55
25.59486,489.37,551.15
25.61436,491.35,552.74
25.63548,490.80,551.65
25.65440,490.54,551.27
25.67455,491.60,552.97
25.69545,493.59,553.18
25.71581,492.45,555.60
25.73569,491.65,554.95
25.75616,490.83,555.29
25.77484,489.06,557.76
25.79552,489.75,557.55
25.81540,491.15,556.57
25.83465,490.83,554.95
25.85555,489.84,555.44
25.87449,490.17,552.53
25.89499,492.52,555.08
25.91559,493.13,553.65
25.93426,493.03,554.66
25.95545,491.80,555.31
25.97500,493.96,555.84
25.99415,490.90,553.50
26.01481,493.85,551.56
26.03467,492.17,552.88
26.05483,492.21,552.28
26.07588,489.83,553.30
26.09525,489.75,551.32
26.11511,491.39,550.59
26.13479,491.45,549.98
26.15598,491.57,550.14
26.17588,491.26,549.22
26.19500,491.82,550.14
26.21617,491.57,552.98
26.23602,491.70,554.90
26.25489,493.43,552.06
26.27590,492.77,553.24
26.29462,490.40,555.25
26.31537,492.19,552.75
26.33515,491.52,552.89
26.35582,489.27,555.54
26.37493,488.61,553.33
26.39606,491.13,555.12
26.41442,491.56,556.32
26.43539,490.51,554.10
26.45453,488.63,553.86
26.47587,489.69,555.44
26.49457,489.35,557.05
26.51530,493.50,554.63
26.53467,492.76,556.26
26.55501,494.40,554.53
26.57510,493.90,555.02
26.59401,493.52,554.22
26.61484,491.17,556.90
26.63559,490.96,556.18
26.65493,491.37,553.21
26.67545,491.87,552.69
26.69515,491.44,551.56
26.71460,490.32,554.15
26.73532,490.41,552.67
26.75450,491.30,553.99
26.77474,491.39,551.92
26.79560,490.81,554.67
26.81566,491.17,554.58
26.83540,494.26,554.87
26.85588,492.58,553.20
26.87551,489.63,555.01
26.89574,490.85,554.41
26.91552,492.06,553.78
26.93442,491.11,552.46
26.95578,491.97,552.29
26.97574,492.10,554.27
26.99535,493.48,553.27
27.01571,492.83,553.00
27.03635,491.12,554.68
27.05438,491.52,554.79
27.07482,491.72,553.95
27.09628,493.53,554.87
27.11614,492.17,556.40
27.13523,491.68,556.37
27.15519,489.81,554.52
27.17498,490.66,552.77
27.19600,488.63,552.64
27.21578,491.04,556.02
27.23602,490.27,552.85
27.25560,489.96,553.79
27.27584,491.78,557.24
27.29578,491.95,556.99
27.31601,489.12,553.51
27.33560,489.53,555.93
27.35598,492.26,556.71
27.37447,492.51,556.26
27.39525,491.27,554.90
27.41572,493.20,556.07
27.43487,491.42,554.72
27.45575,489.67,554.65
27.47441,493.02,554.89
27.49539,488.93,556.03
27.51513,489.40,553.29
27.53482,491.45,551.59
27.55513,491.46,553.94
27.57475,490.35,551.74
27.59583,490.07,549.93
27.61548,489.15,550.85
27.63501,490.20,551.45
27.65401,489.07,549.12
27.67530,491.30,549.66
27.69438,489.26,549.81
27.71589,491.94,552.10
27.73620,491.28,549.11
27.75660,491.16,552.86
27.77584,491.16,551.04
27.79580,491.36,551.03
27.81574,494.93,552.13
27.83584,493.58,552.24
27.85702,492.16,552.33
27.87653,494.86,552.87
27.89627,493.02,553.97
27.91673,494.21,552.92
27.93685,493.24,553.38
27.95540,494.29,553.56
27.97545,495.61,553.78
27.99694,493.74,552.72
28.01605,496.11,550.83
28.03538,494.19,551.21
28.05680,495.14,551.60
28.07614,491.98,550.51
28.09699,491.91,551.55
28.11669,491.88,552.33
28.13547,490.65,554.44
28.15625,495.08,553.82
28.17564,493.04,556.90
28.19527,494.04,557.06
28.21682,493.32,554.63
28.23532,492.27,553.26
28.25559,495.80,555.99
28.27679,492.17,553.23
28.29620,494.87,555.79
28.31522,493.54,557.01
28.33552,491.84,558.79
28.35708,492.11,556.82
28.37591,494.87,557.83
28.39626,494.35,555.21
28.41676,492.78,554.58
28.43526,489.71,553.60
28.45588,490.23,553.44
28.47564,492.10,554.30
28.49702,492.06,552.11
28.51589,488.79,554.34
28.53605,491.12,555.94
28.55593,487.29,555.81
28.57592,489.55,554.13
28.59603,488.76,554.44
28.61536,492.97,554.22
28.63596,493.53,554.18
28.65556,490.90,552.87
28.67604,493.06,554.07
28.69652,491.91,555.57
28.71674,488.52,557.64
28.73513,488.73,557.25
28.75716,492.19,555.02
28.77580,488.64,557.61
28.79571,488.76,558.45
28.81651,489.54,557.59
28.83628,491.87,557.88
28.85607,488.81,558.50
28.87580,489.18,556.55
28.89630,492.58,556.01
28.91597,492.31,556.33
28.93669,494.95,556.75
28.95694,492.95,555.40
28.97701,495.49,554.30
28.99668,494.74,557.77
29.01657,492.96,557.83
29.03500,491.60,557.77
29.05572,494.51,555.40
29.07559,493.12,556.83
29.09522,491.87,556.67
29.11523,494.24,556.39
29.13569,494.48,554.12
29.15538,491.49,554.14
29.17665,494.74,556.48
29.19548,493.38,553.07
29.21551,493.63,554.14
29.23630,495.11,556.22
29.25695,496.21,552.57
29.27511,494.02,554.70
29.29705,495.14,556.82
29.31691,495.71,556.61
29.33534,498.14,558.89
29.35534,509.98,562.56
29.37588,537.90,567.34
29.39551,568.12,576.71
29.41644,597.36,581.84
29.43680,620.85,581.48
29.45592,639.85,582.54
29.47511,651.43,578.89
29.49689,656.73,576.75
29.51564,655.97,575.80
29.53597,652.99,574.83
29.55660,645.46,569.57
29.57580,635.70,567.70
29.59619,623.18,566.93
29.61685,609.70,566.08
29.63546,597.60,565.97
29.65553,586.59,563.85
29.67582,574.16,564.91
29.69637,563.80,563.12
29.71589,554.74,563.39
29.73638,545.43,563.76
29.75641,537.02,560.81
29.77534,528.18,562.57
29.79617,523.45,561.73
29.81698,519.47,560.07
29.83648,517.91,563.33
29.85788,514.44,562.04
29.87702,510.57,559.13
29.89736,507.41,559.66
29.91746,507.63,557.27
29.93726,506.45,560.62
29.95677,503.28,557.60
29.97680,502.70,557.76
29.99649,501.55,556.36
30.01815,496.69,556.68
30.03605,499.00,559.46
30.05636,496.02,559.26
30.07681,497.70,557.47
30.09671,495.63,561.01
30.11821,495.06,557.21
30.13626,495.72,558.37
30.15800,494.95,556.18
30.17636,495.85,558.59
30.19753,493.12,558.31
30.21798,493.87,560.48
30.23741,497.36,560.51
30.25779,495.71,558.26
30.27781,495.32,556.56
30.29794,495.12,559.20
30.31772,492.43,557.05
30.33772,491.51,556.43
30.35790,492.82,558.17
30.37766,491.55,556.99
30.39792,493.42,558.88
30.41718,492.64,556.80
30.43752,490.15,556.01
30.45742,490.77,556.51
30.47673,490.50,555.40
30.49656,492.70,553.93
30.51618,476.22,555.47
30.53638,451.52,546.97
30.55763,421.42,539.38
30.57657,390.31,532.83
30.59690,355.63,523.74
30.61813,330.95,516.78
30.63706,313.96,516.76
30.65780,308.07,515.22
30.67597,315.02,513.66
30.69728,322.10,516.62
30.71702,331.35,523.72
30.73798,345.32,526.43
30.75723,358.77,530.31
30.77723,375.10,533.10
30.79621,385.51,540.09
30.81676,401.45,540.11
30.83728,412.00,545.14
30.85711,419.56,545.91
30.87642,430.83,548.18
30.89594,439.06,551.05
30.91691,445.82,551.20
30.93649,452.69,555.07
30.95604,457.35,555.44
30.97671,461.30,555.21
30.99658,467.21,554.82
31.01785,469.49,556.64
31.03792,473.91,555.40
31.05796,474.38,557.10
31.07626,476.28,558.27
31.09650,477.76,555.93
31.11714,481.30,556.31
31.13719,483.02,558.49
31.15810,482.26,560.28
31.17659,485.24,558.37
31.19666,486.82,558.55
31.21601,486.47,557.17
31.23765,488.05,556.43
31.25615,489.73,554.57
31.27612,487.18,554.69
31.29758,488.54,555.34
31.31788,490.55,556.87
31.33678,488.62,556.74
31.35706,489.64,558.77
31.37664,488.55,557.42
31.39638,488.10,555.96
31.41624,490.13,555.84
31.43617,487.42,558.64
31.45772,490.48,559.24
31.47710,489.47,557.25
31.49715,488.54,561.86
31.51807,488.01,558.61
31.53645,489.96,561.07
31.55802,489.95,560.84
31.57760,491.15,564.12
31.59704,489.83,562.32
31.61668,488.35,563.02
31.63688,490.95,561.72
31.65699,491.21,561.52
31.67812,490.90,562.51
31.69707,491.81,560.78
31.71631,490.26,559.58
31.73804,491.69,558.98
31.75696,492.06,558.90
31.77642,490.41,561.28
31.79708,489.66,560.11
31.81710,491.18,561.65
31.83669,489.61,559.96
31.85787,492.98,559.85
31.87631,490.94,560.19
31.89693,490.26,562.17
31.91768,491.99,561.29
31.93753,488.83,560.30
31.95733,489.11,563.13
31.97780,490.78,559.08
31.99800,491.54,560.49
32.01645,489.48,560.64
32.03699,489.30,561.53
32.05608,490.39,560.86
32.07787,490.92,563.03
32.09784,491.17,562.91
32.11742,489.30,562.17
32.13623,492.25,564.27
32.15739,490.87,563.12
32.17789,488.06,562.36
32.19661,490.58,564.83
32.21627,491.25,563.72
32.23615,490.69,561.41
32.25654,491.06,559.94
32.27636,491.25,559.90
32.29698,491.16,561.55
32.31816,488.26,562.09
32.33713,489.29,560.05
32.35797,489.93,564.06
32.37603,489.42,563.52
32.39690,491.28,561.81
32.41742,490.03,563.91
32.43693,488.59,562.00
32.45728,488.34,564.96
32.47646,490.21,563.16
32.49629,489.41,563.98
32.51757,489.23,562.37
32.53701,489.42,563.68
32.55787,485.78,561.80
32.57623,488.42,563.62
32.59656,489.86,562.15
32.61591,487.18,563.10
32.63758,490.35,563.08
32.65675,490.29,564.24
32.67760,488.55,563.38
32.69683,488.44,565.41
32.71623,490.71,563.57
32.73626,487.59,564.62
32.75784,491.10,563.21
32.77609,487.82,564.38
32.79802,488.78,564.09
32.81727,489.70,562.64
32.83723,487.88,565.43
32.85696,490.01,564.65
32.87735,490.11,561.81
32.89762,487.29,563.05
32.91781,487.51,565.09
32.93748,488.83,566.15
32.95661,488.42,562.58
32.97688,490.22,561.73
32.99735,489.43,565.94
33.01744,492.10,565.74
33.03604,489.47,566.88
33.05630,488.87,564.87
33.07754,490.24,563.86
33.09681,492.17,563.77
33.11755,490.48,564.06
33.13648,488.85,565.11
33.15712,491.42,562.62
33.17685,490.65,564.16
33.19676,486.27,561.42
33.21697,486.25,563.18
33.23760,488.59,563.34
33.25651,490.11,561.78
33.27727,491.85,564.04
33.29657,488.77,565.03
33.31698,490.84,565.64
33.33697,490.00,563.46
33.35731,488.51,563.98
33.37641,489.76,564.09
33.39713,488.80,565.92
33.41744,487.44,566.58
33.43616,489.50,566.37
33.45619,489.93,565.17
33.47716,490.27,564.94
33.49620,487.07,564.48
33.51769,487.78,565.37
33.53700,487.58,562.53
33.55621,487.28,565.16
33.57739,488.04,564.55
33.59644,486.30,562.58
33.61731,486.14,562.90
33.63672,486.36,566.23
33.65647,485.43,562.59
33.67728,487.42,566.45
33.69615,485.80,562.72
33.71712,487.69,562.12
33.73644,487.03,565.04
33.75703,486.95,563.60
33.77657,487.09,563.79
33.79817,486.04,563.80
33.81649,485.42,562.01
33.83613,486.73,563.62
33.85631,485.94,563.47
33.87765,484.33,561.40
33.89805,483.77,562.38
33.91695,485.09,565.22
33.93795,487.96,563.66
33.95707,485.80,563.69
33.97711,486.19,564.83
33.99788,487.80,563.37
34.01737,486.16,563.40
34.03619,484.97,561.43
34.05698,485.59,562.39
34.07695,484.11,564.07
34.09604,485.11,565.10
34.11918,484.98,565.40
34.13852,483.90,565.56
34.15804,482.58,563.83
34.17860,482.59,563.18
34.19744,482.39,562.19
34.21745,486.63,564.99
34.23957,485.92,562.61
34.25919,486.31,564.64
34.27870,484.98,564.17
34.29843,485.08,566.89
34.31957,487.35,565.65
34.33936,488.41,566.44
34.35805,488.74,567.02
34.37915,486.09,567.32
34.39916,487.27,566.16
34.41981,484.21,568.15
34.43970,486.64,564.94
34.45838,486.43,565.42
34.47829,484.42,563.04
34.49950,484.07,563.78
34.51865,482.41,564.72
34.53848,482.25,561.66
34.55964,484.04,562.88
34.57891,485.39,560.26
34.59908,491.29,564.19
34.61841,504.87,570.81
34.63825,534.23,584.66
34.65955,565.80,593.97
34.67888,598.71,605.71
34.69907,621.48,612.93
34.71969,641.32,615.44
34.73899,652.11,611.99
34.75979,655.65,608.57
34.77986,652.58,600.17
34.79882,649.21,596.87
34.81851,641.51,587.13
34.83937,631.22,584.83
34.85832,617.55,582.28
34.87968,604.77,576.74
34.89952,593.08,578.37
34.91817,577.68,572.65
34.93928,568.41,573.09
34.95795,555.40,572.94
34.97878,545.75,570.71
34.99951,540.95,570.36
35.01871,529.91,570.79
35.03995,526.74,570.94
35.05852,518.70,569.94
35.07880,512.73,567.95
35.09975,509.54,566.34
35.11899,507.68,568.06
35.13915,504.00,567.41
35.15918,499.06,565.53
35.17912,500.07,567.97
35.19965,496.98,566.83
35.21995,495.80,568.76
35.23914,491.48,568.16
35.25944,492.31,566.88
35.27868,491.69,568.81
35.29805,491.46,566.55
35.31814,491.01,570.06
35.33807,490.54,567.97
35.35836,488.06,569.27
35.38005,487.74,567.06
35.39869,485.30,568.71
35.41901,487.02,568.13
35.43850,485.26,566.12
35.45948,484.96,565.59
35.47869,485.68,566.63
35.49952,483.07,568.75
35.51952,484.92,569.10
35.53849,483.32,568.37
35.55864,485.55,566.84
35.57957,481.32,567.82
35.59986,464.80,571.95
35.61898,442.17,570.26
35.63910,413.66,564.31
35.65956,382.92,553.71
35.67856,357.21,539.90
35.69961,330.74,524.35
35.71922,310.57,516.41
35.73874,305.65,510.40
35.75954,306.95,511.69
35.77956,315.50,510.83
35.79841,328.12,514.43
35.81782,338.26,519.93
35.83915,352.42,521.89
35.85841,368.66,527.45
35.87949,380.88,532.21
35.89940,394.30,537.62
35.91957,403.14,538.89
35.93805,415.87,544.31
35.95824,424.77,546.16
35.97924,434.25,548.65
35.99972,438.53,550.11
36.01958,448.17,552.62
36.03901,452.41,555.82
36.05859,458.04,555.34
36.07960,461.01,559.53
36.09979,464.48,560.03
36.11895,468.57,561.43
36.13920,471.68,563.31
36.15931,472.12,565.73
36.17938,473.12,564.09
36.19856,476.40,565.90
36.21850,478.51,565.53
36.23901,478.21,565.23
36.25874,479.89,563.96
36.27857,480.73,564.80
36.29998,482.15,562.92
36.31889,481.30,565.24
36.33893,482.48,564.85
36.35978,483.03,563.11
36.37946,482.86,566.35
36.39997,483.70,566.25
36.41947,481.78,564.84
36.43981,484.95,567.19
36.45936,484.66,567.62
36.47837,484.99,565.45
36.49992,484.53,564.07
36.51897,483.79,567.70
36.53856,484.67,568.61
36.55949,482.94,566.04
36.57980,482.63,566.49
36.59868,482.77,566.92
36.61985,483.73,564.41
36.63859,482.17,567.86
36.65839,483.88,568.18
36.67983,484.03,567.92
36.69997,484.95,568.79
36.71976,485.12,565.13
36.73812,488.48,567.99
36.75931,485.98,567.80
36.77909,484.77,568.97
36.79892,484.29,565.45
36.81975,485.19,565.19
36.83818,485.04,568.46
36.85929,486.30,567.55
36.87986,483.54,567.35
36.89952,483.39,569.42
36.91886,486.60,567.97
36.93929,484.84,567.89
36.95915,484.24,568.50
36.97971,484.15,570.14
36.99920,485.28,567.73
37.01959,485.08,569.57
37.03933,484.23,567.46
37.05910,486.30,569.12
37.07931,484.49,564.79
37.09895,484.00,565.44
37.11787,485.60,567.52
37.13920,488.05,564.62
37.15974,488.52,565.24
37.17897,488.86,566.74
37.19968,488.44,565.46
37.21945,490.01,565.23
37.23957,487.65,565.59
37.25948,488.95,564.07
37.28096,486.77,566.49
37.30055,489.04,566.97
37.32066,487.66,569.12
37.34006,489.60,566.00
37.36103,487.76,568.16
37.38073,486.32,566.41
37.39971,485.23,569.53
37.41995,487.11,569.72
37.44059,485.38,568.63
37.46078,488.78,571.26
37.47925,486.51,569.27
37.50081,488.54,571.94
37.51947,489.19,570.12
37.53997,487.68,570.37
37.55936,488.51,571.06
37.57967,486.29,569.32
37.60001,487.99,569.60
37.61993,488.18,571.86
37.63945,484.46,568.38
37.65905,486.13,570.86
37.67947,487.01,569.91
37.69912,487.11,568.94
37.72065,488.94,568.80
37.74043,485.71,567.70
37.76048,484.49,570.62
37.78068,488.10,569.59
37.79902,485.73,566.53
37.81966,485.50,567.10
37.84068,486.11,568.14
37.85974,487.43,566.86
37.88024,486.28,568.27
37.90001,488.84,567.68
37.91935,486.70,568.17
37.93908,489.28,567.60
37.95952,488.68,567.25
37.98066,488.15,568.96
38.00050,490.24,568.25
38.02033,487.75,569.08
38.04040,487.08,568.96
38.05924,490.02,570.26
38.08044,489.83,571.61
38.09914,487.25,570.24
38.11959,487.32,571.16
38.14010,488.85,568.56
38.16070,486.22,570.30
38.18050,488.66,570.29
38.19927,490.32,568.35
38.21903,488.84,567.32
38.24064,489.19,569.77
38.25948,489.33,569.15
38.27996,489.67,568.32
38.30003,488.06,570.01
38.31970,488.16,570.47
38.34078,489.39,569.00
38.35954,489.30,570.06
38.37981,491.83,567.73
38.39935,492.03,568.04
38.42015,491.39,567.79
38.44018,489.81,566.96
38.46068,487.96,565.10
38.47989,489.62,568.25
38.49917,490.86,568.43
38.51964,488.29,568.30
38.53912,488.73,564.04
38.56022,487.15,564.96
38.58046,488.07,566.16
38.60059,489.44,568.17
38.61896,489.05,566.79
38.63923,488.32,568.57
38.66076,491.65,567.64
38.68011,489.43,566.93
38.70055,490.64,566.36
38.71937,489.43,569.43
38.73994,490.55,566.08
38.76014,491.08,566.49
38.78021,493.15,565.97
38.79949,492.66,566.44
38.81940,493.67,567.68
38.83973,494.75,567.96
38.85937,495.50,564.36
38.87921,493.95,565.25
38.89954,490.72,566.60
38.92054,502.94,572.72
38.93971,523.78,582.48
38.96021,555.46,601.48
38.97918,588.23,615.79
38.99896,616.33,628.18
39.01899,635.50,632.23
39.03923,648.40,627.87
39.06074,655.83,622.77
39.07990,658.20,614.83
39.10068,652.25,608.20
39.11901,644.45,598.32
39.13896,632.69,593.31
39.16085,620.50,587.41
39.17953,611.32,585.54
39.19942,597.91,582.66
39.21963,587.69,576.71
39.23901,574.35,575.62
39.25910,565.10,574.78
39.28064,556.24,572.91
39.29963,548.32,572.57
39.32055,540.98,568.40
39.33923,531.71,566.53
39.36018,527.00,565.90
39.38072,524.23,566.87
39.39948,517.50,565.02
39.42110,513.98,567.32
39.44016,510.33,568.36
39.46068,507.62,566.74
39.47989,501.18,563.64
39.49945,501.12,564.99
39.51927,500.87,567.07
39.53927,500.48,565.39
39.55984,496.73,568.06
39.57937,497.30,569.79
39.60088,496.73,569.82
39.62023,496.98,567.49
39.64007,494.53,571.24
39.65998,496.10,567.76
39.68009,495.68,567.71
39.70007,492.63,568.12
39.71889,492.42,567.79
39.73893,490.42,567.26
39.75947,490.53,569.14
39.77951,491.27,569.89
39.80059,490.91,568.21
39.81966,491.30,570.32
39.83949,488.86,569.87
39.85921,472.72,574.93
39.88079,452.52,573.01
39.89934,429.28,570.05
39.92081,397.16,565.50
39.94007,368.34,556.30
39.96039,344.91,543.24
39.98058,324.94,535.73
39.99918,317.29,530.60
40.02035,319.37,528.47
40.03985,326.91,527.07
40.05974,333.73,528.71
40.07966,347.78,530.34
40.09918,358.64,532.02
40.11894,374.59,537.34
40.14076,384.60,540.34
40.16051,395.59,540.77
40.18007,406.53,544.40
40.20097,416.69,549.13
40.21949,426.35,551.05
40.23924,438.32,552.62
40.26010,445.38,552.47
40.27917,452.77,555.27
40.30060,456.55,557.21
40.31922,459.23,560.40
40.34068,465.63,560.27
40.36060,469.37,561.20
40.37963,471.89,562.39
40.39981,474.53,564.51
40.42000,477.44,563.31
40.43990,475.82,566.32
40.45991,477.81,564.63
40.47916,481.65,564.79
40.49969,482.39,567.44
40.51914,482.53,567.76
40.53918,482.95,567.76
40.56086,484.73,566.10
40.58052,485.37,566.78
40.59945,488.76,569.21
40.62079,490.22,570.94
40.64084,488.60,570.91
40.66164,487.40,571.04
40.68096,487.38,569.38
40.70097,489.76,570.48
40.72016,489.15,568.33
40.74152,487.80,571.29
40.76127,488.09,568.79
40.78159,489.71,569.56
40.80163,488.91,566.74
40.82167,489.44,566.79
40.84139,490.06,568.39
40.86040,491.89,565.88
40.88140,490.26,566.57
40.90052,490.09,566.13
40.92153,490.11,566.70
40.94197,487.19,565.58
40.96095,487.40,563.74
40.98253,491.31,565.55
41.00288,487.12,563.65
41.02112,489.20,564.88
41.04103,488.60,563.90
41.06244,489.07,564.43
41.08159,488.93,562.78
41.10169,487.42,562.89
41.12178,490.47,562.23
41.14225,490.90,562.57
41.16183,488.82,564.40
41.18205,488.89,563.97
41.20108,490.09,564.13
41.22245,489.99,561.86
41.24201,492.24,563.85
41.26267,490.86,561.97
41.28284,494.34,562.42
41.30264,493.85,564.50
41.32210,492.82,562.55
41.34197,494.56,566.03
41.36240,489.70,565.48
41.38152,492.34,566.20
41.40161,488.47,565.76
41.42270,487.69,564.11
41.44279,490.03,564.09
41.46230,491.12,565.30
41.48203,490.16,562.76
41.50103,490.85,561.33
41.52233,492.22,560.99
41.54238,489.15,563.98
41.56122,491.52,559.52
41.58132,489.74,561.42
41.60234,490.26,562.64
41.62114,487.69,562.93
41.64212,486.49,563.42
41.66166,487.57,563.03
41.68198,490.17,562.20
41.70137,490.29,564.62
41.72233,487.91,564.05
41.74224,491.69,565.03
41.76163,491.68,564.33
41.78107,488.74,561.80
41.80174,488.29,562.35
41.82085,490.72,562.24
41.84261,487.89,561.64
41.86111,488.18,561.37
41.88262,488.71,562.17
41.90105,489.84,564.87
41.92242,489.49,566.96
41.94213,489.89,564.68
41.96186,490.35,566.74
41.98272,488.37,566.46
42.00135,487.65,566.42
42.02144,489.26,564.15
42.04236,489.34,565.16
42.06140,491.02,565.46
42.08274,490.58,568.22
42.10191,487.68,566.12
42.12217,491.09,564.82
42.14266,492.36,565.76
42.16269,485.82,567.54
42.18232,482.47,573.01
42.20222,475.88,584.72
42.22173,473.89,603.94
42.24240,472.39,626.20
42.26121,471.91,647.91
42.28253,468.93,649.73
42.30180,464.81,635.35
42.32165,464.72,616.35
42.34212,464.26,589.93
42.36279,464.16,566.05
42.38220,467.35,547.08
42.40116,468.43,531.84
42.42254,469.57,518.13
42.44173,471.72,509.18
42.46199,475.61,501.92
42.48106,474.63,502.17
42.50285,476.19,501.40
42.52186,477.93,503.57
42.54180,479.75,507.13
42.56198,478.50,512.55
42.58164,479.64,514.77
42.60100,481.86,521.59
42.62187,479.84,525.46
42.64275,481.61,527.88
42.66180,483.48,532.99
42.68204,485.23,538.55
42.70258,485.48,543.04
42.72188,488.19,550.29
42.74189,487.61,552.82
42.76100,489.10,557.26
42.78220,488.03,563.20
42.80157,486.49,563.16
42.82120,489.73,566.29
42.84108,490.87,566.73
42.86154,488.94,570.10
42.88114,491.68,572.79
42.90164,491.89,576.37
