Program Time [s],data 0,data 1
5.07003,360.04,429.00
5.08957,356.31,427.86
5.10948,359.53,430.99
5.13033,356.13,429.59
5.14970,354.90,429.26
5.16997,358.08,430.94
5.18981,359.05,432.78
5.21055,356.17,432.83
5.22944,358.89,430.64
5.24981,360.87,433.72
5.27054,359.59,430.52
5.28879,361.89,434.87
5.30990,363.19,436.30
5.32931,363.39,434.52
5.35017,361.98,434.45
5.36934,359.10,437.09
5.39032,359.58,434.42
5.40902,361.04,434.92
5.43024,360.54,436.50
5.45015,359.17,436.57
5.46957,359.51,433.51
5.48952,361.19,434.51
5.51049,361.33,434.42
5.52948,359.81,436.40
5.55033,363.85,434.68
5.57030,361.07,433.11
5.58882,362.03,432.39
5.61009,360.82,432.92
5.62990,359.60,434.37
5.64986,363.00,436.24
5.67177,361.12,436.40
5.69105,361.86,434.70
5.71211,365.67,435.94
5.73161,363.69,436.01
5.75205,365.68,439.23
5.77096,366.07,443.00
5.79157,376.86,449.43
5.81108,393.31,463.28
5.83256,414.02,478.25
5.85112,436.27,487.68
5.87229,454.84,488.39
5.89237,465.79,487.15
5.91087,475.99,479.26
5.93264,477.01,471.13
5.95205,478.82,465.21
5.97192,475.66,457.60
5.99316,469.61,448.58
6.01180,464.35,440.75
6.03304,456.49,437.20
6.05342,446.19,435.59
6.07290,438.45,432.84
6.09198,428.71,431.12
6.11166,423.40,431.13
6.13287,418.10,430.23
6.15269,412.92,431.18
6.17376,407.81,431.86
6.19350,401.56,432.35
6.21191,395.34,430.62
6.23225,394.40,432.94
6.25221,389.25,430.54
6.27234,387.74,433.82
6.29231,386.24,432.05
6.31403,384.71,434.24
6.33340,383.24,434.47
6.35395,382.33,436.17
6.37474,381.34,438.12
6.39393,378.26,436.48
6.41556,379.54,439.46
6.43616,380.62,439.47
6.45504,379.41,437.72
6.47464,378.48,438.42
6.49612,377.96,438.93
6.51615,379.25,441.58
6.53544,379.46,442.97
6.55499,377.38,443.01
6.57489,376.33,441.03
6.59753,372.04,443.97
6.61715,356.05,447.49
6.63673,339.70,447.92
6.65632,322.15,450.77
6.67787,302.44,443.42
6.69705,283.85,436.16
6.71817,266.59,426.26
6.73822,251.17,414.14
6.75871,246.24,402.16
6.77736,242.89,401.01
6.79828,247.67,400.82
6.81684,254.78,397.22
6.83683,266.50,402.44
6.85717,275.70,404.32
6.87739,284.74,407.94
6.89781,294.55,411.83
6.91760,303.17,413.93
6.93852,309.69,417.87
6.95867,318.52,423.20
6.97798,324.99,422.37
6.99818,332.18,423.98
7.01849,338.62,424.53
7.03682,343.01,425.47
7.05718,348.91,426.83
7.07720,352.68,428.14
7.09766,356.16,432.03
7.11724,358.97,432.40
7.13710,359.84,434.54
7.15735,363.00,433.63
7.17701,363.07,434.18
7.19733,366.10,438.84
7.21822,368.28,437.87
7.23805,369.64,437.57
7.25926,369.09,440.10
7.27796,369.38,439.60
7.29934,372.27,441.00
7.31901,373.19,441.07
7.33804,370.61,440.04
7.35891,370.54,441.70
7.37948,372.40,438.95
7.39815,370.38,440.14
7.41792,371.28,437.89
7.43923,373.83,438.92
7.45877,372.98,439.57
7.47942,375.32,440.31
7.49850,374.72,439.72
7.51914,371.42,439.77
7.53945,372.39,442.13
7.55919,373.44,442.94
7.57836,372.36,442.54
7.59873,372.35,440.61
7.61860,373.36,441.62
7.63843,372.07,439.87
7.65849,373.40,441.94
7.67844,373.46,442.93
7.69963,370.48,440.52
7.71952,370.21,441.80
7.74031,371.74,439.24
7.76077,370.13,439.37
7.77995,370.55,440.49
7.79994,369.06,440.12
7.82030,367.42,443.25
7.84061,368.02,439.78
7.86146,366.37,439.27
7.88115,367.94,440.22
7.90171,366.24,440.41
7.92048,364.67,440.60
7.94093,365.22,442.30
7.96103,367.00,439.99
7.98058,367.31,438.60
8.00110,366.23,439.01
8.02023,364.41,440.76
8.04117,368.56,440.37
8.06153,367.25,438.26
8.08053,366.50,437.13
8.10015,366.16,439.29
8.12034,365.58,437.75
8.13979,367.95,438.48
8.16142,368.79,439.25
8.18162,365.44,438.39
8.20138,364.72,441.79
8.22043,365.80,441.66
8.24031,367.06,438.41
8.25991,367.85,440.81
8.28170,366.78,438.70
8.30104,363.86,439.11
8.32097,363.46,440.24
8.34122,365.40,437.27
8.36036,365.34,438.10
8.38152,364.95,439.77
8.40141,361.32,440.68
8.42150,362.56,440.10
8.44006,364.06,440.93
8.46090,365.56,441.44
8.48116,366.64,441.10
8.50169,364.86,440.38
8.52276,361.46,440.51
8.54103,364.11,438.75
8.56187,362.36,440.15
8.58233,362.23,442.13
8.60078,362.11,441.14
8.62280,363.21,439.22
8.64156,362.74,441.29
8.66152,361.81,438.72
8.68235,359.09,440.21
8.70087,361.84,438.29
8.72147,362.13,437.36
8.74157,361.92,438.45
8.76229,360.42,439.37
8.78216,359.53,441.09
8.80067,359.72,437.66
8.82210,361.45,438.59
8.84103,361.46,438.15
8.86149,362.21,439.72
8.88110,361.77,437.73
8.90157,358.72,436.86
8.92155,360.08,437.66
8.94116,362.37,436.97
8.96104,360.29,437.28
8.98170,361.33,435.06
9.00157,361.87,438.01
9.02152,362.64,439.00
9.04239,359.59,437.04
9.06153,360.38,437.35
9.08165,361.98,437.96
9.10262,361.76,439.20
9.12246,363.66,437.23
9.14255,363.05,437.56
9.16171,363.51,438.05
9.18214,371.84,442.40
9.20230,384.78,453.55
9.22105,400.53,462.26
9.24277,421.15,473.28
9.26107,440.65,483.88
9.28081,458.32,487.52
9.30142,473.36,486.14
9.32153,480.36,480.62
9.34217,486.35,474.16
9.36123,486.35,464.70
9.38137,481.22,455.08
9.40235,479.15,445.64
9.42174,472.25,438.00
9.44107,461.89,432.59
9.46108,454.68,427.01
9.48163,442.70,424.63
9.50198,434.59,426.21
9.52205,428.36,423.06
9.54205,421.30,424.82
9.56060,414.31,425.80
9.58213,404.85,425.70
9.60219,399.74,428.42
9.62179,393.04,428.61
9.64158,389.29,428.57
9.66171,384.54,430.49
9.68084,382.78,431.89
9.70086,378.60,432.97
9.72222,377.62,434.96
9.74179,375.25,436.68
9.76122,372.17,437.76
9.78171,371.34,434.47
9.80132,368.99,438.50
9.82096,370.22,436.41
9.84200,366.72,436.04
9.86081,368.38,438.64
9.88268,368.04,438.65
9.90206,364.29,440.03
9.92254,362.69,438.83
9.94246,361.52,441.53
9.96104,362.07,441.47
9.98066,361.84,439.35
10.00105,361.43,441.10
10.02168,363.06,439.98
10.04118,361.03,441.20
10.06176,362.94,439.87
10.08183,362.72,438.70
10.10182,362.25,440.19
10.12126,362.23,440.09
10.14182,361.43,441.17
10.16083,359.21,441.75
10.18224,353.06,441.33
10.20220,343.19,443.75
10.22140,329.57,444.50
10.24163,312.04,444.04
10.26167,295.00,442.30
10.28101,275.56,434.97
10.30212,263.62,433.21
10.32100,250.44,426.12
10.34253,241.25,416.51
10.36086,236.46,415.38
10.38151,235.45,410.33
10.40137,241.41,412.37
10.42203,252.11,411.27
10.44078,256.66,411.90
10.46106,266.15,414.14
10.48257,277.09,417.33
10.50275,285.23,418.85
10.52225,297.44,421.26
10.54208,304.59,424.59
10.56059,313.42,426.59
10.58188,317.93,428.37
10.60104,324.66,427.82
10.62276,330.16,430.04
10.64079,334.07,430.73
10.66088,338.05,430.30
10.68254,342.60,430.22
10.70330,344.05,430.11
10.72307,347.23,428.40
10.74286,348.79,432.02
10.76152,352.95,431.63
10.78352,353.46,433.59
10.80185,353.74,433.63
10.82336,355.46,432.75
10.84292,356.73,435.07
10.86210,356.43,435.19
10.88199,360.15,435.24
10.90292,359.52,433.56
10.92169,359.16,434.20
10.94328,361.02,435.90
10.96421,362.43,433.75
10.98451,360.87,437.36
11.00306,361.69,436.01
11.02402,362.38,436.89
11.04300,363.75,435.82
11.06255,364.29,438.05
11.08373,368.50,437.94
11.10300,367.03,439.57
11.12320,363.82,438.48
11.14393,366.95,437.66
11.16261,365.41,439.74
11.18331,363.18,438.70
11.20263,364.04,440.20
11.22352,365.28,437.51
11.24264,367.29,440.17
11.26432,366.91,439.24
11.28269,369.12,439.48
11.30390,369.40,438.16
11.32324,367.05,436.65
11.34294,369.89,436.96
11.36302,366.41,435.41
11.38316,368.59,436.80
11.40472,367.88,437.11
11.42377,369.98,438.24
11.44439,368.76,437.26
11.46369,367.90,436.91
11.48366,367.61,437.51
11.50465,366.40,439.74
11.52367,369.57,438.90
11.54378,368.66,437.05
11.56530,370.02,437.44
11.58559,370.95,435.72
11.60485,371.29,439.84
11.62390,371.79,440.00
11.64368,370.23,439.97
11.66483,370.57,437.46
11.68385,372.23,438.65
11.70489,372.62,437.72
11.72568,370.00,439.89
11.74512,371.00,440.49
11.76386,370.03,437.28
11.78388,371.76,440.48
11.80527,371.08,438.00
11.82469,370.43,439.69
11.84453,373.63,437.84
11.86565,374.07,438.51
11.88404,374.61,437.37
11.90384,371.90,440.46
11.92528,370.49,437.68
11.94429,374.23,436.46
11.96443,369.61,439.00
11.98442,372.62,437.78
12.00502,368.99,438.09
12.02478,371.54,436.75
12.04415,368.89,439.21
12.06420,367.94,438.63
12.08458,368.62,436.09
12.10486,371.33,435.96
12.12465,374.45,437.23
12.14556,373.34,435.60
12.16397,371.15,438.34
12.18469,373.20,436.51
12.20405,373.27,438.13
12.22459,375.47,438.19
12.24560,374.87,437.65
12.26431,374.54,440.35
12.28414,375.24,438.19
12.30480,375.75,441.62
12.32502,374.35,441.76
12.34417,377.09,441.21
12.36410,375.49,442.00
12.38510,376.16,441.63
12.40367,377.48,441.12
12.42388,377.24,439.76
12.44547,377.04,443.18
12.46525,373.88,440.77
12.48555,375.26,440.45
12.50478,372.41,439.67
12.52514,375.39,439.10
12.54406,372.90,437.19
12.56355,375.25,439.88
12.58493,374.58,438.78
12.60488,372.68,440.02
12.62404,374.68,440.41
12.64479,372.55,439.27
12.66491,371.91,440.32
12.68535,374.03,437.82
12.70387,375.84,435.97
12.72370,372.71,438.47
12.74403,373.31,437.26
12.76439,378.25,439.97
12.78396,375.65,441.42
12.80464,378.00,436.85
12.82384,377.89,439.60
12.84414,379.15,440.65
12.86532,378.00,438.49
12.88370,377.69,441.72
12.90398,377.25,440.93
12.92400,380.07,440.99
12.94551,378.16,440.79
12.96416,377.98,441.08
12.98372,378.12,441.09
13.00472,385.24,445.55
13.02536,402.63,450.86
13.04485,426.13,459.25
13.06380,450.89,467.96
13.08498,474.59,473.24
13.10540,489.54,477.47
13.12537,503.15,474.49
13.14551,509.92,470.72
13.16498,508.48,466.00
13.18507,503.64,459.02
13.20533,497.48,453.59
13.22501,492.37,449.19
13.24510,483.22,445.64
13.26567,474.68,443.34
13.28547,463.84,442.91
13.30562,451.98,441.46
13.32377,444.36,437.31
13.34399,438.27,438.94
13.36537,429.20,437.69
13.38466,422.54,439.95
13.40504,419.56,442.27
13.42367,411.45,439.37
13.44405,409.19,442.12
13.46467,404.10,441.95
13.48472,398.91,442.94
13.50518,398.13,441.74
13.52558,391.78,444.05
13.54422,390.52,441.03
13.56625,389.40,443.91
13.58635,384.16,440.44
13.60641,383.42,442.62
13.62624,383.81,441.57
13.64549,384.06,441.77
13.66504,384.55,443.61
13.68641,383.84,444.21
13.70511,380.87,443.27
13.72581,383.80,444.68
13.74609,382.05,443.42
13.76554,382.90,441.74
13.78462,379.68,445.46
13.80476,382.55,441.64
13.82540,379.32,441.07
13.84519,377.70,441.87
13.86647,375.88,443.84
13.88645,375.74,442.80
13.90525,375.56,440.37
13.92533,372.69,439.55
13.94665,361.48,439.33
13.96506,349.43,436.85
13.98585,332.63,434.12
14.00599,315.26,426.26
14.02504,293.97,416.44
14.04648,275.83,408.39
14.06550,260.60,403.13
14.08620,253.67,400.47
14.10660,251.60,397.00
14.12645,256.37,398.03
14.14594,264.33,399.70
14.16593,271.24,401.26
14.18507,279.99,405.58
14.20593,288.86,410.79
14.22615,297.94,415.49
14.24628,307.67,416.53
14.26584,313.80,419.62
14.28524,322.49,425.41
14.30605,332.11,426.19
14.32620,337.60,430.82
14.34491,341.31,430.07
14.36522,347.03,433.06
14.38482,352.45,434.21
14.40508,352.90,435.77
14.42460,358.45,434.24
14.44484,359.50,435.52
14.46610,361.17,436.66
14.48513,366.36,437.73
14.50559,365.71,436.79
14.52617,367.67,437.01
14.54607,370.96,437.85
14.56507,367.62,438.22
14.58534,370.71,439.29
14.60647,373.01,437.75
14.62604,370.84,437.87
14.64516,373.07,439.56
14.66515,376.25,439.81
14.68630,375.42,439.33
14.70613,373.56,438.47
14.72562,373.92,437.23
14.74551,373.77,440.42
14.76618,377.14,439.94
14.78547,374.81,437.86
14.80515,378.40,440.02
14.82563,377.04,439.51
14.84645,376.18,438.91
14.86612,377.98,441.36
14.88575,374.98,439.98
14.90532,377.14,440.79
14.92510,376.17,441.25
14.94494,375.87,438.86
14.96505,374.24,440.07
14.98618,375.21,441.01
15.00495,376.38,440.64
15.02534,377.26,441.72
15.04621,375.75,440.60
15.06662,375.43,440.45
15.08517,376.03,439.86
15.10565,375.48,443.75
15.12549,375.47,440.49
15.14635,374.36,441.86
15.16588,374.84,444.15
15.18559,375.44,444.80
15.20541,371.93,441.06
15.22533,372.89,441.25
15.24501,373.56,440.07
15.26629,374.62,439.74
15.28650,375.39,441.75
15.30552,376.80,440.76
15.32522,376.49,441.67
15.34620,375.65,443.24
15.36489,375.92,443.71
15.38607,374.71,440.21
15.40531,377.82,443.76
15.42602,378.54,444.47
15.44610,379.26,443.31
15.46636,378.26,444.66
15.48573,374.43,444.61
15.50500,373.74,440.93
15.52558,372.81,443.43
15.54535,372.92,444.21
15.56491,374.66,443.61
15.58607,377.27,442.75
15.60519,376.44,442.85
15.62560,376.82,441.26
15.64511,377.76,441.19
15.66595,378.63,439.99
15.68491,377.31,441.60
15.70529,377.19,440.09
15.72496,375.36,441.75
15.74480,378.69,440.23
15.76598,377.32,440.23
15.78503,379.09,441.46
15.80498,376.53,441.32
15.82607,375.45,440.28
15.84556,377.34,441.18
15.86565,378.51,444.33
15.88561,377.74,442.59
15.90606,377.23,444.25
15.92626,374.15,445.74
15.94436,375.97,443.60
15.96501,376.18,444.25
15.98553,375.57,444.88
16.00627,374.37,442.20
16.02468,375.87,442.73
16.04616,376.96,441.46
16.06507,377.60,444.58
16.08592,374.90,443.81
16.10618,374.72,443.21
16.12523,376.92,441.93
16.14556,373.12,441.41
16.16452,373.70,443.79
16.18578,373.21,444.16
16.20462,375.28,441.27
16.22595,373.28,441.89
16.24528,374.72,441.25
16.26622,375.25,443.44
16.28652,374.78,441.03
16.30540,374.45,441.83
16.32616,377.23,443.90
16.34450,375.86,442.93
16.36570,378.14,443.03
16.38638,376.23,444.41
16.40469,374.50,444.20
16.42572,374.43,444.68
16.44516,374.88,443.32
16.46474,377.51,443.11
16.48473,377.12,440.93
16.50507,376.48,443.25
16.52461,375.76,441.32
16.54567,373.15,442.09
16.56566,375.46,440.89
16.58498,374.19,440.81
16.60609,374.44,439.07
16.62531,374.82,438.82
16.64492,377.13,439.95
16.66557,375.20,440.76
16.68520,375.51,439.68
16.70476,373.62,439.27
16.72493,375.95,441.03
16.74510,372.41,439.03
16.76487,375.44,437.96
16.78563,373.75,438.11
16.80638,374.08,438.60
16.82537,374.84,438.89
16.84632,372.87,440.27
16.86452,376.22,440.53
16.88456,372.67,439.88
16.90486,372.58,438.31
16.92545,373.20,437.71
16.94515,371.00,442.22
16.96583,378.76,445.84
16.98574,398.47,452.40
17.00476,418.82,465.84
17.02552,442.44,474.25
17.04552,463.07,479.79
17.06508,480.63,481.87
17.08635,489.46,478.87
17.10561,494.37,473.54
17.12606,494.34,471.54
17.14516,491.63,466.00
17.16509,484.77,457.90
17.18640,478.01,457.57
17.20558,469.66,451.00
17.22563,464.81,450.28
17.24436,453.29,445.34
17.26635,448.17,443.59
17.28624,437.18,445.25
17.30582,431.31,442.88
17.32568,423.53,444.61
17.34624,414.65,444.83
17.36470,411.68,441.02
17.38485,405.19,443.56
17.40479,398.57,440.07
17.42646,393.51,442.81
17.44493,393.18,440.57
17.46544,387.93,441.48
17.48500,387.55,440.90
17.50639,384.04,440.87
17.52635,383.24,441.11
17.54446,381.95,439.17
17.56467,380.92,442.07
17.58621,380.21,438.85
17.60613,378.47,441.43
17.62642,375.52,439.12
17.64495,374.57,441.74
17.66487,374.87,441.73
17.68616,374.84,442.33
17.70528,374.27,439.17
17.72502,373.44,439.20
17.74508,369.69,440.19
17.76475,371.19,441.62
17.78491,371.62,438.73
17.80628,372.17,440.24
17.82538,371.82,436.83
17.84500,369.55,440.44
17.86469,372.67,436.82
17.88602,371.17,439.20
17.90506,373.21,437.69
17.92460,370.02,439.47
17.94618,369.42,437.34
17.96611,372.27,439.06
17.98647,373.10,438.12
18.00653,370.71,440.00
18.02534,372.04,437.55
18.04613,370.08,437.91
18.06495,371.64,439.46
18.08541,369.57,441.62
18.10649,358.38,443.96
18.12602,344.89,444.21
18.14553,324.24,443.59
18.16599,306.81,440.48
18.18455,286.71,436.85
18.20640,270.93,427.91
18.22635,261.45,419.93
18.24584,255.68,417.97
18.26621,259.23,413.17
18.28648,262.53,414.58
18.30586,268.92,412.79
18.32622,276.60,412.36
18.34616,288.09,414.11
18.36603,296.85,416.95
18.38601,302.02,417.96
18.40578,311.07,421.12
18.42478,318.55,423.12
18.44542,322.61,426.77
18.46512,329.64,429.19
18.48431,335.52,430.59
18.50541,338.61,430.29
18.52543,344.00,430.35
18.54549,346.10,435.68
18.56587,351.81,433.52
18.58560,355.81,433.27
18.60470,355.02,435.38
18.62525,359.30,435.29
18.64639,359.66,434.30
18.66544,360.85,436.20
18.68508,360.53,435.34
18.70548,363.64,438.05
18.72518,364.88,435.31
18.74598,363.61,438.40
18.76586,362.54,437.71
18.78543,365.54,436.85
18.80566,363.67,437.58
18.82637,364.99,438.25
18.84599,364.36,439.40
18.86535,367.38,437.91
18.88559,366.82,439.30
18.90533,367.78,440.65
18.92554,368.37,439.82
18.94485,367.34,438.24
18.96456,367.79,440.18
18.98489,367.17,437.14
19.00628,366.13,439.26
19.02487,367.69,438.12
19.04617,365.75,439.79
19.06511,365.97,440.26
19.08451,366.71,436.81
19.10583,366.30,437.39
19.12490,368.47,439.99
19.14441,367.89,439.17
19.16531,365.96,436.02
19.18564,366.66,436.32
19.20541,363.91,435.82
19.22596,363.94,437.00
19.24570,364.94,438.15
19.26521,363.79,437.83
19.28604,364.99,437.28
19.30597,363.43,438.50
19.32603,364.93,436.85
19.34491,364.56,435.49
19.36569,366.21,436.85
19.38582,366.43,438.68
19.40543,368.57,436.65
19.42572,368.24,438.63
19.44478,368.63,437.77
19.46515,366.66,435.71
19.48462,366.82,435.42
19.50521,364.26,436.34
19.52605,365.68,435.75
19.54484,363.80,437.44
19.56529,364.02,434.36
19.58632,364.13,435.77
19.60645,363.47,436.93
19.62537,362.03,435.27
19.64486,362.12,437.68
19.66523,363.76,435.61
19.68584,364.03,438.44
19.70476,363.23,435.90
19.72459,364.60,435.48
19.74612,364.73,437.39
19.76550,361.28,439.77
19.78623,362.47,440.03
19.80570,362.03,439.51
19.82465,363.41,439.04
19.84609,361.13,436.87
19.86557,363.61,435.89
19.88505,364.74,438.70
19.90640,364.33,437.89
19.92628,365.63,437.35
19.94609,365.72,436.65
19.96529,365.92,439.05
19.98494,364.31,437.56
20.00455,366.37,438.13
20.02603,364.60,439.10
20.04563,362.48,438.05
20.06481,362.76,437.01
20.08621,363.60,440.69
20.10520,363.12,438.35
20.12451,362.34,439.36
20.14575,362.66,437.85
20.16467,363.23,438.60
20.18531,361.76,439.87
20.20645,365.57,438.37
20.22512,363.78,437.36
20.24620,365.15,439.30
20.26503,363.54,439.26
20.28497,364.43,440.24
20.30612,364.19,438.89
20.32582,364.77,438.46
20.34627,364.48,440.46
20.36555,362.12,438.75
20.38466,362.09,439.56
20.40532,361.42,438.15
20.42619,364.12,438.47
20.44643,364.66,437.57
20.46628,363.92,438.97
20.48544,364.60,437.97
20.50505,362.28,437.59
20.52501,362.73,437.98
20.54605,361.90,441.26
20.56446,364.76,439.18
20.58579,363.34,441.52
20.60535,365.22,439.59
20.62554,364.46,440.32
20.64653,364.75,442.33
20.66622,365.09,438.22
20.68565,363.55,440.97
20.70482,364.42,439.65
20.72653,363.01,437.09
20.74595,362.68,435.24
20.76737,360.39,432.36
20.78652,360.99,433.38
20.80655,359.57,432.82
20.82707,361.34,432.94
20.84686,361.12,430.65
20.86577,361.45,431.91
20.88612,358.43,428.57
20.90662,361.21,429.36
20.92547,360.27,431.00
20.94555,360.94,429.40
20.96625,361.65,430.72
20.98703,360.01,431.03
21.00631,361.36,432.07
21.02700,358.53,434.63
21.04583,358.79,435.80
21.06738,360.55,433.37
21.08602,359.89,432.74
21.10634,359.83,435.72
21.12656,358.84,432.12
21.14637,359.99,433.71
21.16621,359.55,432.48
21.18677,358.99,430.45
21.20690,362.12,431.33
21.22564,361.58,431.78
21.24646,367.69,433.65
21.26704,380.32,441.54
21.28567,401.22,453.45
21.30605,421.83,461.96
21.32674,441.30,468.75
21.34707,454.54,475.61
21.36574,465.43,474.46
21.38657,471.87,469.28
21.40562,471.88,466.13
21.42627,468.43,463.05
21.44737,463.24,455.28
21.46569,460.00,449.90
21.48583,452.34,444.44
21.50594,442.26,438.18
21.52624,436.93,439.07
21.54688,429.12,433.94
21.56561,419.35,433.57
21.58593,413.37,433.64
21.60707,404.37,432.91
21.62695,401.02,430.97
21.64697,393.27,431.52
21.66602,388.44,432.12
21.68553,384.12,429.16
21.70572,379.74,433.26
21.72639,381.49,429.19
21.74652,375.98,429.52
21.76657,372.51,430.30
21.78720,373.31,429.88
21.80689,368.34,432.93
21.82680,366.52,431.16
21.84584,367.28,430.82
21.86672,364.11,434.71
21.88654,365.75,434.81
21.90636,362.71,435.40
21.92554,363.69,432.51
21.94668,362.00,435.95
21.96620,362.70,435.68
21.98668,360.71,437.24
22.00738,363.29,437.48
22.02695,359.28,434.91
22.04565,360.42,434.42
22.06644,362.42,435.52
22.08641,360.60,435.91
22.10595,361.44,436.58
22.12679,361.47,436.33
22.14549,362.59,434.54
22.16598,360.45,436.93
22.18685,359.41,434.86
22.20702,361.22,436.28
22.22644,361.17,437.85
22.24613,360.32,435.19
22.26650,361.84,438.64
22.28575,363.95,436.56
22.30642,362.30,439.27
22.32741,365.00,437.26
22.34637,361.47,435.84
22.36586,353.24,438.32
22.38675,344.39,440.07
22.40565,330.36,442.41
22.42730,316.28,440.21
22.44681,296.33,433.26
22.46723,278.54,424.90
22.48680,264.89,418.37
22.50579,252.42,410.97
22.52573,244.72,406.29
22.54725,243.11,401.22
22.56658,245.48,402.94
22.58672,254.14,400.47
22.60650,264.07,404.29
22.62766,271.79,407.19
22.64554,279.86,409.14
22.66679,289.52,411.70
22.68565,295.45,413.26
22.70622,305.07,414.32
22.72626,312.51,418.34
22.74619,318.95,419.59
22.76641,323.55,420.31
22.78564,330.15,423.31
22.80619,335.33,422.31
22.82642,338.46,426.94
22.84690,339.57,426.98
22.86616,342.97,429.44
22.88606,347.83,430.50
22.90745,350.11,429.91
22.92569,352.51,430.17
22.94688,350.95,429.96
22.96655,353.20,430.68
22.98549,356.40,432.12
23.00577,358.96,431.43
23.02561,358.67,434.79
23.04654,361.10,434.94
23.06554,360.17,433.75
23.08553,362.97,436.29
23.10699,362.79,436.34
23.12707,361.59,438.19
23.14681,361.71,436.56
23.16562,361.77,436.21
23.18712,360.66,438.19
23.20627,361.23,437.18
23.22577,363.93,436.33
23.24602,363.82,435.48
23.26711,361.86,436.60
23.28581,362.92,435.06
23.30717,362.91,437.19
23.32605,361.10,435.13
23.34625,364.02,433.74
23.36733,361.50,434.59
23.38708,362.46,432.71
23.40657,365.13,435.93
23.42584,365.51,435.92
23.44593,365.06,436.03
23.46674,366.68,438.51
23.48651,366.15,436.97
23.50664,364.61,438.55
23.52705,364.15,435.64
23.54547,362.09,435.96
23.56664,364.19,435.53
23.58582,362.04,435.32
23.60704,365.76,435.89
23.62590,364.40,435.58
23.64584,362.65,436.91
23.66651,365.48,437.02
23.68652,365.61,435.81
23.70679,363.58,435.39
23.72605,364.34,436.01
23.74695,363.86,437.03
23.76709,363.34,437.58
23.78572,364.20,436.95
23.80591,367.23,437.16
23.82573,367.14,438.56
23.84677,364.82,436.89
23.86738,367.57,438.15
23.88722,367.88,436.24
23.90718,365.78,435.70
23.92668,365.57,437.17
23.94589,365.11,439.29
23.96744,366.11,439.47
23.98618,366.61,436.73
24.00612,367.40,439.27
24.02634,365.62,439.03
24.04648,367.94,439.09
24.06739,367.10,437.43
24.08630,368.33,438.75
24.10546,368.68,438.68
24.12561,369.42,437.85
24.14695,368.42,438.70
24.16596,366.92,436.39
24.18719,366.53,435.64
24.20636,365.24,434.37
24.22577,366.07,437.44
24.24687,364.81,436.59
24.26581,364.70,437.14
24.28737,367.58,437.50
24.30698,366.21,437.32
24.32709,368.44,438.32
24.34689,368.53,437.16
24.36555,365.91,436.46
24.38673,366.20,437.73
24.40635,365.28,438.36
24.42573,367.45,439.22
24.44616,369.20,438.43
24.46624,370.65,438.28
24.48715,369.98,439.99
24.50682,368.85,438.37
24.52622,370.79,437.92
24.54570,370.27,438.48
24.56575,367.78,439.86
24.58728,369.24,437.17
24.60720,367.65,437.87
24.62676,370.81,439.09
24.64735,370.63,440.64
24.66592,370.88,441.16
24.68721,370.98,441.33
24.70670,366.55,441.77
24.72729,368.53,438.29
24.74582,367.09,439.75
24.76617,371.14,438.30
24.78665,370.82,440.17
24.80624,369.91,440.52
24.82549,368.87,438.21
24.84718,371.06,438.07
24.86722,370.19,438.17
24.88569,367.38,436.28
24.90631,369.48,436.76
24.92583,368.23,436.22
24.94681,368.70,437.26
24.96629,369.44,437.62
24.98669,377.74,442.50
25.00591,390.43,449.14
25.02629,409.41,452.92
25.04660,431.34,461.23
25.06665,447.62,465.35
25.08647,464.77,469.87
25.10629,473.49,468.33
25.12658,484.54,467.22
25.14692,487.96,465.33
25.16636,488.96,462.85
25.18649,484.23,460.46
25.20549,482.72,456.92
25.22723,476.80,450.60
25.24565,467.93,446.69
25.26600,462.58,445.16
25.28671,454.11,440.07
25.30699,446.91,439.70
25.32535,438.84,440.14
25.34538,430.52,438.60
25.36666,425.86,436.47
25.38561,417.30,435.89
25.40590,412.95,439.30
25.42676,406.53,436.31
25.44530,398.57,436.47
25.46647,395.53,438.62
25.48708,393.52,439.05
25.50639,389.44,438.78
25.52701,386.67,439.74
25.54565,386.90,441.04
25.56600,382.02,440.69
25.58563,378.62,441.95
25.60674,379.31,444.02
25.62678,377.14,444.25
25.64622,376.24,442.84
25.66727,378.84,441.34
25.68592,377.14,442.25
25.70633,374.61,440.15
25.72721,375.45,440.74
25.74688,377.12,440.96
25.76610,373.72,439.82
25.78532,375.99,441.33
25.80635,373.64,441.45
25.82594,372.29,439.74
25.84570,375.69,438.85
25.86636,373.40,440.69
25.88719,374.63,439.21
25.90727,371.37,437.37
25.92580,371.56,438.95
25.94567,373.48,436.75
25.96727,372.05,436.89
25.98737,371.62,437.31
26.00600,369.39,435.75
26.02614,369.90,436.73
26.04591,370.05,438.46
26.06643,370.52,443.81
26.08675,371.49,447.73
26.10583,362.50,457.28
26.12575,356.47,465.66
26.14567,343.39,470.78
26.16538,324.71,472.06
26.18675,309.76,468.09
26.20727,292.07,462.27
26.22614,278.22,448.84
26.24628,264.86,435.92
26.26706,257.17,422.21
26.28552,248.97,409.84
26.30541,247.76,404.81
26.32707,252.84,399.17
26.34639,260.22,397.78
26.36565,270.53,394.83
26.38597,278.27,396.86
26.40693,289.46,395.60
26.42718,298.98,397.58
26.44703,304.90,401.14
26.46588,313.27,402.83
26.48633,322.72,404.32
26.50634,326.52,407.01
26.52718,332.94,411.08
26.54725,341.00,410.77
26.56626,346.27,414.42
26.58618,348.34,417.60
26.60690,352.44,420.49
26.62616,355.16,421.74
26.64543,357.82,421.66
26.66591,360.72,424.24
26.68700,362.88,426.59
26.70641,362.49,425.86
26.72552,364.79,430.46
26.74709,365.78,429.16
26.76563,368.36,432.53
26.78549,370.09,433.14
26.80682,369.95,434.10
26.82594,372.22,434.01
26.84675,374.55,435.30
26.86678,371.22,436.95
26.88582,372.26,436.43
26.90660,375.31,433.13
26.92674,375.57,434.05
26.94722,376.24,435.85
26.96686,375.85,436.34
26.98657,378.19,435.80
27.00645,376.43,435.88
27.02627,377.78,436.95
27.04661,376.57,438.08
27.06652,376.10,437.58
27.08551,374.88,436.26
27.10586,375.31,437.56
27.12597,377.36,439.29
27.14734,376.87,437.87
27.16589,376.38,437.10
27.18591,377.55,439.51
27.20599,377.46,440.75
27.22590,375.36,438.24
27.24562,376.25,441.03
27.26540,373.31,440.91
27.28550,376.22,440.07
27.30593,374.45,439.42
27.32586,376.58,440.42
27.34675,374.78,438.73
27.36705,374.87,438.51
27.38657,373.58,440.57
27.40609,374.87,441.16
27.42738,375.17,437.76
27.44628,375.15,439.46
27.46668,374.99,441.40
27.48668,374.01,441.32
27.50636,378.53,442.37
27.52593,375.48,439.91
27.54554,377.02,440.35
27.56655,374.35,440.53
27.58616,378.18,441.39
27.60557,378.37,442.16
27.62609,377.82,439.08
27.64718,376.82,439.59
27.66590,379.86,442.59
27.68729,378.14,440.77
27.70746,379.27,438.76
27.72711,376.62,441.33
27.74797,378.76,441.60
27.76676,377.61,442.11
27.78749,377.74,441.71
27.80644,376.17,440.86
27.82786,375.37,440.41
27.84918,376.73,439.19
27.86825,377.15,439.83
27.88759,378.11,443.04
27.90889,379.80,442.20
27.92855,380.41,441.58
27.94855,380.55,443.26
27.96782,377.84,440.69
27.98861,376.69,440.82
28.00831,378.00,444.40
28.02874,375.74,442.85
28.04742,379.41,443.56
28.06888,378.08,442.74
28.08864,377.54,444.34
28.10919,375.16,445.28
28.12808,378.95,441.39
28.14843,379.24,443.50
28.16752,375.97,441.17
28.18882,378.07,442.69
28.20929,377.64,442.88
28.22724,375.32,443.07
28.24747,378.92,441.19
28.26874,378.67,441.11
28.28862,377.32,442.68
28.30765,377.05,443.79
28.32714,377.48,441.37
28.34765,378.16,443.51
28.36871,375.27,440.37
28.38910,377.92,442.14
28.40884,375.72,442.36
28.42804,374.00,441.90
28.44744,374.11,441.96
28.46746,377.11,441.74
28.48782,375.66,439.95
28.50878,374.28,440.37
28.52731,377.04,441.23
28.54844,376.05,440.66
28.56907,376.06,440.01
28.58782,374.63,439.43
28.60762,376.33,439.31
28.62776,374.67,441.80
28.64750,375.59,441.91
28.66879,374.53,438.42
28.68718,377.69,438.57
28.70838,377.34,439.02
28.72764,377.80,440.43
28.74944,374.47,441.04
28.77017,374.75,439.26
28.79009,376.30,442.48
28.81007,374.84,440.27
28.82893,375.36,440.70
28.84846,371.79,443.31
28.86858,373.92,441.74
28.88840,370.81,441.56
28.90918,373.05,439.06
28.93022,370.97,438.73
28.94878,370.75,439.65
28.96832,373.56,440.06
28.98969,372.77,436.65
29.00918,372.86,437.85
29.02908,371.54,437.32
29.04930,371.93,439.43
29.06960,376.89,440.02
29.08998,390.12,446.95
29.10904,409.89,451.89
29.12948,434.03,463.03
29.15008,457.75,471.36
29.16925,474.91,473.84
29.18851,490.94,475.56
29.20912,499.27,474.51
29.23017,505.04,475.26
29.24896,501.82,467.85
29.26936,497.80,461.62
29.28845,490.99,457.55
29.30836,483.28,452.41
29.32986,476.10,445.55
29.34884,466.34,441.42
29.36981,459.14,440.76
29.38928,451.53,436.16
29.40927,440.62,436.34
29.42884,434.55,435.76
29.44930,425.22,437.96
29.46967,415.72,435.77
29.48904,411.91,437.51
29.50876,405.60,436.89
29.52980,400.66,435.20
29.54970,397.51,437.80
29.56839,392.21,436.42
29.58820,390.15,440.27
29.60935,386.41,439.46
29.62930,384.31,438.21
29.64994,380.51,437.48
29.66848,376.75,437.49
29.68831,378.11,440.38
29.70973,373.17,438.71
29.72867,373.23,439.52
29.74902,374.44,439.88
29.76846,375.54,440.12
29.78999,374.68,439.68
29.80970,370.67,438.65
29.82959,372.80,439.76
29.84912,369.37,441.37
29.86838,368.87,439.36
29.89008,370.58,441.35
29.90872,369.71,441.57
29.92907,370.45,437.67
29.94992,370.11,441.27
29.96897,370.53,438.30
29.98902,371.48,438.38
30.00984,372.93,441.14
30.02992,366.90,439.98
30.04830,357.42,444.60
30.06896,342.70,447.68
30.08870,328.19,449.16
30.10920,309.99,448.26
30.12835,290.45,442.57
30.14887,274.71,438.86
30.17005,261.74,429.08
30.18910,251.27,420.43
30.20979,246.89,411.39
30.22879,244.74,410.42
30.24947,250.23,406.72
30.26992,255.90,405.06
30.28935,266.57,406.50
30.30900,273.62,404.71
30.32931,284.50,408.99
30.34859,293.57,409.02
30.36900,302.62,412.23
30.38876,308.80,412.26
30.40907,314.18,416.48
30.42837,323.22,417.20
30.44990,330.92,417.23
30.46970,333.41,422.36
30.48989,339.41,421.53
30.50904,339.15,421.42
30.52992,343.36,425.65
30.54950,347.16,424.85
30.56911,347.80,425.55
30.58959,353.05,429.50
30.60913,353.73,428.00
30.62973,357.53,431.44
30.64865,356.67,430.03
30.66897,358.30,432.02
30.68893,358.76,432.81
30.70964,361.77,435.95
30.72878,362.81,436.43
30.74995,361.68,434.70
30.76883,364.49,437.08
30.78897,362.91,437.50
30.80845,362.11,436.34
30.82893,360.89,439.61
30.84834,362.05,438.34
30.86990,363.39,439.05
30.88908,363.65,436.31
30.91031,364.04,436.96
30.93025,361.95,438.40
30.94824,363.45,437.47
30.96845,363.82,436.79
30.98855,362.89,439.04
31.00863,365.12,436.49
31.02980,362.85,436.33
31.04978,361.29,436.68
31.06886,363.20,435.51
31.08876,362.93,435.52
31.11017,360.74,434.48
31.12965,361.31,436.50
31.14963,361.33,436.86
31.16855,364.01,435.73
31.19020,362.96,436.26
31.20898,365.12,438.04
31.22833,365.83,435.34
31.24943,365.02,435.42
31.26952,364.09,435.94
31.28932,365.51,437.29
31.30943,362.45,438.07
31.32881,364.46,435.57
31.34994,365.42,437.43
31.36863,361.04,436.21
31.38870,361.59,432.81
31.40895,364.13,435.52
31.42856,363.44,434.40
31.45023,363.74,434.99
31.46934,365.07,435.63
31.48962,365.16,436.26
31.50907,362.61,432.71
31.52941,364.48,436.52
31.54934,363.39,434.32
31.56969,362.18,437.39
31.58878,364.10,436.13
31.60964,364.41,438.31
31.62947,362.43,435.01
31.64843,362.51,437.01
31.66838,363.18,439.18
31.69006,362.42,440.06
31.70968,364.55,438.80
31.72894,363.00,436.85
31.74933,366.14,440.05
31.77013,364.64,438.58
31.78936,363.93,437.37
31.80923,365.29,437.05
31.82931,363.52,438.07
31.84917,362.86,438.01
31.86949,360.27,436.77
31.88991,359.75,436.49
31.90974,363.06,436.66
31.92863,363.85,436.44
31.94989,362.21,434.75
31.96986,361.98,436.08
31.99028,363.40,436.85
32.00933,365.12,437.60
32.02940,363.55,435.66
32.04947,362.64,438.60
32.06817,362.51,435.25
32.08932,360.30,438.74
32.10917,361.26,437.82
32.12994,358.79,434.89
32.14853,360.42,434.77
32.16827,360.48,435.38
32.18855,359.35,436.49
32.20941,362.09,435.17
32.22938,358.28,435.33
32.24919,358.84,437.35
32.26832,360.55,438.74
32.29002,357.43,437.74
32.31005,358.28,437.30
32.32919,360.79,438.90
32.34926,360.31,437.10
32.36883,360.81,440.15
32.38871,358.74,437.44
32.40860,359.91,437.11
32.42920,360.96,439.00
32.44963,360.92,438.71
32.46919,358.32,437.80
32.48802,358.90,437.94
32.50995,361.48,436.58
32.52928,358.83,440.10
32.55070,361.87,439.86
32.56992,359.79,438.16
32.59015,362.00,439.67
32.61054,361.42,438.78
32.62991,359.12,440.47
32.65020,362.56,438.32
32.66950,361.03,435.64
32.68942,361.89,438.38
32.71064,362.25,436.06
32.73086,361.09,434.86
32.75074,358.27,435.46
32.77037,360.74,436.57
32.79020,361.56,433.45
32.80911,359.63,434.06
32.83071,362.60,434.80
32.84971,361.35,433.87
32.87105,362.18,436.84
32.88939,361.47,435.34
32.91047,361.20,435.82
32.93092,362.31,435.17
32.95023,362.29,437.63
32.96982,359.38,435.46
32.99078,358.15,432.22
33.00935,362.28,433.56
33.03076,372.28,438.57
33.04942,390.16,447.22
33.07016,411.62,456.41
33.08985,433.11,468.32
33.10956,455.38,474.27
33.13001,467.88,475.03
33.14914,477.53,475.87
33.16977,484.27,474.10
33.19029,485.28,466.49
33.21003,480.33,461.65
33.23022,475.39,457.08
33.24988,468.97,451.91
33.26978,458.58,443.71
33.28941,453.16,440.17
33.30924,442.21,434.52
33.33042,434.49,432.55
33.35095,429.49,431.61
33.36972,417.69,430.37
33.39108,411.18,429.94
33.41069,404.86,428.78
33.43053,399.57,428.51
33.45070,395.41,428.82
33.46977,390.80,427.50
33.49072,384.27,431.78
33.50985,381.94,432.00
33.53107,378.30,433.39
33.54957,374.09,436.05
33.57025,372.79,436.29
33.59083,371.11,434.80
33.61023,368.10,437.10
33.63045,368.24,437.22
33.64949,367.50,437.15
33.66971,368.66,435.82
33.68930,366.01,436.91
33.70920,365.44,436.73
33.72928,364.73,438.23
33.75021,363.73,438.62
33.77120,362.32,438.85
33.78946,361.18,436.61
33.81039,361.95,435.33
33.83111,361.58,437.92
33.85031,361.46,436.72
33.87051,360.79,440.01
33.88947,357.84,444.22
33.91021,353.87,454.51
33.92927,343.88,468.48
33.95117,331.14,482.07
33.96952,320.96,489.79
33.99075,303.36,485.34
34.01037,289.68,475.45
34.02952,272.21,457.69
34.05113,257.43,439.59
34.06974,248.54,418.13
34.09009,240.18,402.23
34.11090,239.68,392.63
34.12935,244.58,387.76
34.14943,250.25,384.37
34.17022,258.25,382.45
34.19107,264.18,385.80
34.21022,274.27,386.91
34.22958,284.34,389.32
34.25055,291.60,394.26
34.26962,297.79,396.21
34.29013,305.92,402.48
34.31079,312.94,404.83
34.33083,319.10,410.80
34.35058,326.27,412.15
34.36966,329.47,417.05
34.38932,334.42,417.76
34.41028,340.01,422.35
34.43106,340.58,425.53
34.45050,343.51,425.99
34.47044,348.56,429.22
34.49073,347.78,430.81
34.50968,348.33,431.07
34.53076,351.41,430.46
34.55102,353.69,432.51
34.56916,354.85,433.29
34.59106,356.80,436.43
34.61044,354.77,435.81
34.63058,358.85,436.16
34.65037,356.97,435.58
34.66957,359.49,435.71
34.69043,359.53,437.17
34.71096,361.07,437.56
34.72931,361.88,437.63
34.75028,360.75,438.44
34.77011,361.05,436.14
34.78961,360.85,438.55
34.81006,364.09,436.24
34.83109,362.26,437.68
34.85050,362.93,436.26
34.87125,363.69,437.68
34.89027,363.92,437.62
34.91101,362.67,437.86
34.93195,363.14,438.00
34.95205,366.89,438.70
34.97192,366.20,436.60
34.99192,363.95,438.06
35.01167,365.96,439.47
35.03118,367.45,435.53
35.05024,366.58,437.87
35.07210,367.20,435.15
35.09029,369.03,435.65
35.11017,368.17,434.89
35.13054,366.80,437.43
35.15118,365.03,437.96
35.17166,366.22,438.52
35.19078,365.13,437.72
35.21014,367.73,437.60
35.23070,366.24,440.48
35.25105,364.13,440.73
35.27028,365.14,440.58
35.29081,368.51,440.72
35.31155,366.93,440.91
35.33088,368.12,438.34
35.35143,365.49,437.43
35.37183,368.68,438.37
35.39130,368.52,437.38
35.41032,370.48,438.89
35.43039,368.65,438.60
35.45180,369.57,438.19
35.47071,368.08,439.84
35.49144,364.90,437.48
35.51219,366.08,439.69
35.53170,364.15,437.00
35.55195,363.52,438.67
35.57038,364.39,436.08
35.59196,364.81,438.04
35.61002,365.21,437.18
35.63039,367.26,438.32
35.65204,364.73,436.72
35.67098,364.47,440.01
35.69100,365.15,438.54
35.71149,367.89,439.05
35.73120,366.93,439.87
35.75073,366.58,439.36
35.77145,366.71,439.91
35.79149,365.56,439.70
35.81017,367.25,442.25
35.83123,368.09,442.10
35.85037,368.61,439.53
35.87062,368.25,442.32
35.89101,367.40,441.74
35.91148,368.00,441.76
35.93209,367.32,442.30
35.95185,367.60,441.91
35.97036,366.66,439.94
35.99124,366.67,442.05
36.01057,367.75,440.98
36.03173,366.33,439.53
36.05132,368.42,439.91
36.07053,370.39,439.19
36.09122,367.86,441.58
36.11116,371.19,439.81
36.13068,369.05,438.04
36.15181,367.84,440.24
36.17021,369.06,440.53
36.19200,370.51,438.89
36.21179,370.85,439.46
36.23026,369.67,439.99
36.25134,368.89,438.40
36.27100,367.26,436.80
36.29065,366.84,439.61
36.31085,367.05,436.93
36.33209,369.10,436.49
36.35075,370.93,437.00
36.37104,372.31,438.66
36.39166,371.82,439.43
36.41124,372.05,437.73
36.43058,369.54,439.06
36.45046,369.08,439.17
36.47194,370.64,439.06
36.49215,372.10,439.30
36.51155,371.82,435.83
36.53136,369.46,437.22
36.55102,370.11,437.60
36.57199,371.01,438.78
36.59199,369.59,436.90
36.61141,371.07,437.56
36.63035,370.81,436.31
36.65123,371.82,437.25
36.67008,369.90,438.43
36.69197,371.88,439.25
36.71134,370.53,437.57
36.73054,372.03,439.20
36.75012,374.48,440.95
36.77014,386.22,445.53
36.79163,404.30,458.84
36.81151,428.01,468.97
36.83171,454.25,479.06
36.85080,474.12,486.74
36.87060,489.92,483.98
36.89075,497.16,480.56
36.91076,499.79,474.94
36.93027,499.10,469.46
36.95129,494.64,463.33
36.97113,487.61,455.91
36.99133,479.72,451.48
37.01125,472.31,445.70
37.03088,466.36,445.44
37.05024,457.19,440.46
37.07106,447.02,435.95
37.09027,438.33,435.47
37.11045,429.43,432.78
37.13024,423.93,434.77
37.15060,416.70,434.19
37.17015,408.55,433.56
37.19093,404.52,434.37
37.21118,399.80,434.28
37.23120,396.24,435.96
37.24992,391.41,436.42
37.27103,389.58,437.80
37.29137,388.30,435.49
37.31056,386.35,437.41
37.33138,384.73,436.93
37.35123,384.48,437.88
37.37086,383.02,438.71
37.39107,382.68,440.25
37.41017,381.33,439.29
37.43083,377.95,438.53
37.45033,376.98,436.02
37.47040,375.69,439.90
37.49054,377.16,439.05
37.51083,374.54,436.33
37.53069,376.63,437.49
37.55067,373.37,438.87
37.57127,374.27,437.61
37.59015,375.30,439.97
37.61032,370.84,440.70
37.63067,366.03,440.42
37.65055,354.76,440.37
37.67030,338.44,437.68
37.69050,320.24,430.68
37.71065,299.63,421.41
37.73135,282.03,414.48
37.75035,266.68,405.00
37.77044,253.20,399.35
37.79147,252.42,393.43
37.81109,252.29,392.36
37.83113,256.23,396.18
37.85117,263.76,397.58
37.87084,274.50,401.40
37.89189,284.57,404.50
37.91185,295.82,407.61
37.93101,304.43,412.11
37.95100,311.82,418.33
37.97045,323.38,422.34
37.99175,328.44,425.92
38.01036,334.09,428.66
38.03138,339.87,429.31
38.05189,345.64,429.26
38.07118,349.84,433.39
38.09159,352.55,433.72
38.11104,356.34,436.91
38.13183,359.62,436.49
38.15062,360.70,436.59
38.17182,363.63,435.64
38.19101,366.96,439.31
38.21172,363.45,436.28
38.23125,366.17,437.34
38.25147,367.75,437.51
38.27053,369.50,436.66
38.29144,367.15,438.55
38.31184,370.82,439.29
38.33097,369.42,437.82
38.35184,372.16,437.36
38.37049,370.23,440.01
38.39129,371.64,436.71
38.41027,372.98,438.47
38.43093,372.70,438.53
38.45029,376.27,439.06
38.47157,373.82,435.66
38.49110,374.73,438.53
38.51019,375.61,437.11
38.53185,376.16,438.55
38.55179,374.01,439.18
38.57128,376.40,440.11
38.59185,374.37,437.01
38.61113,376.22,437.01
38.63206,376.60,438.51
38.65145,374.95,437.32
38.67175,375.78,438.88
38.69096,375.52,438.37
38.71051,378.41,436.70
38.73113,375.48,436.43
38.75119,378.28,438.52
38.77164,377.99,439.79
38.79181,379.08,440.06
38.81033,377.30,438.24
38.83055,377.91,440.50
38.85155,377.50,437.06
38.87029,376.60,438.13
38.89022,373.51,437.61
38.91038,373.53,439.92
38.93185,375.58,439.40
38.95150,378.04,438.68
38.97083,379.07,439.06
38.99015,378.18,437.90
39.01035,374.91,440.15
39.03053,375.68,437.34
39.05097,374.29,437.34
39.07129,377.45,438.41
39.09169,378.22,440.79
39.11033,376.94,437.72
39.13173,378.69,439.46
39.15162,376.97,440.34
39.17086,378.65,440.30
39.19036,376.74,438.40
39.21037,379.76,439.48
39.23101,379.91,441.73
39.25028,378.33,440.35
39.27032,378.90,440.04
39.29239,379.26,440.81
39.31279,376.16,439.72
39.33213,378.16,441.53
39.35290,377.82,442.64
39.37235,376.55,443.48
39.39364,379.12,444.46
39.41274,378.87,441.42
39.43363,380.45,443.52
39.45251,378.84,443.93
39.47359,378.49,443.25
39.49356,377.54,442.26
39.51353,380.59,443.40
39.53205,379.60,441.18
39.55218,378.68,443.22
39.57345,380.07,444.28
39.59330,377.78,441.77
39.61373,379.34,444.42
39.63341,378.09,443.45
39.65367,375.90,443.43
39.67298,375.74,441.73
39.69219,378.62,441.80
39.71384,379.51,440.53
39.73373,376.77,442.75
39.75283,377.31,442.79
39.77304,375.77,440.12
39.79284,375.23,441.04
39.81373,374.91,442.04
39.83337,376.40,444.79
39.85250,375.00,445.76
39.87300,376.05,442.48
39.89360,377.48,444.02
39.91220,377.16,442.21
39.93398,376.03,444.14
39.95314,375.14,444.30
39.97338,375.37,443.54
39.99495,378.40,444.24
40.01432,377.59,444.94
40.03476,376.20,441.33
40.05477,377.39,443.20
40.07473,377.14,442.74
40.09500,376.49,440.39
40.11338,378.34,440.70
40.13460,379.16,440.56
40.15477,375.80,437.69
40.17346,378.27,439.00
40.19384,374.99,440.16
40.21384,374.11,438.77
40.23336,374.81,439.81
40.25444,374.49,440.90
40.27366,375.35,439.89
40.29353,375.04,440.12
40.31385,376.87,438.22
40.33433,375.68,438.81
40.35414,376.27,440.79
40.37497,376.61,440.22
40.39345,375.06,441.28
40.41477,381.39,442.55
40.43421,391.16,451.40
40.45361,404.96,458.28
40.47396,420.62,468.11
40.49384,438.52,473.60
40.51441,455.77,478.36
40.53352,470.04,476.87
40.55287,481.21,478.99
40.57441,487.99,477.15
40.59421,488.90,472.73
40.61396,488.88,467.42
40.63377,482.46,459.33
40.65425,479.89,454.82
40.67391,472.76,448.95
40.69437,462.93,446.64
40.71497,456.18,443.04
40.73495,447.53,438.32
40.75336,440.45,438.64
40.77362,429.24,437.74
40.79474,421.51,435.04
40.81511,415.80,438.45
40.83329,409.41,436.71
40.85356,406.53,438.46
40.87411,398.99,436.51
40.89445,396.29,435.17
40.91464,392.17,436.89
40.93486,387.74,437.89
40.95458,383.80,438.60
40.97335,383.63,435.47
40.99290,382.36,439.25
41.01338,380.10,437.56
41.03454,379.14,439.80
41.05362,379.90,438.25
41.07297,377.15,440.71
41.09335,378.90,441.51
41.11498,374.94,441.32
41.13454,376.07,442.40
41.15317,375.02,441.11
41.17437,374.66,441.93
41.19336,372.39,443.33
41.21485,371.37,442.79
41.23443,374.63,441.61
41.25399,374.53,441.63
41.27308,372.19,439.02
41.29445,370.55,437.96
41.31423,372.20,439.05
41.33393,373.05,438.57
41.35309,373.31,441.71
41.37440,370.62,439.28
41.39362,371.84,441.68
41.41455,371.37,439.06
41.43320,370.20,439.44
41.45380,372.76,442.76
41.47302,371.08,442.16
41.49330,373.32,440.56
41.51356,373.62,441.86
41.53316,371.97,441.55
41.55408,373.30,440.07
41.57412,368.16,438.31
41.59356,354.24,434.16
41.61412,336.88,432.66
41.63417,319.69,424.58
41.65445,297.76,420.06
41.67294,281.96,414.36
41.69294,270.23,413.31
41.71478,267.00,408.29
41.73347,265.53,412.03
41.75345,271.63,412.22
41.77399,278.61,412.42
41.79464,285.68,413.71
41.81484,292.68,418.77
41.83336,297.67,418.50
41.85379,306.79,421.13
41.87460,313.48,426.22
41.89292,322.62,428.12
41.91327,330.12,426.85
41.93350,335.38,430.13
41.95335,340.45,430.06
41.97398,341.50,430.73
41.99485,345.57,435.13
42.01517,347.37,431.89
42.03541,349.91,434.24
42.05654,351.40,436.22
42.07674,353.17,434.55
42.09690,354.24,434.62
42.11621,354.95,435.11
42.13748,353.53,437.60
42.15777,354.80,438.97
42.17743,355.95,438.42
42.19616,357.29,438.63
42.21650,357.97,439.54
42.23622,357.06,437.80
42.25762,356.62,437.96
42.27751,358.76,439.69
42.29845,358.91,438.64
42.31724,358.13,435.39
42.33730,360.32,435.98
42.35884,358.90,438.23
42.37698,360.47,437.02
42.39833,359.31,436.56
42.41725,360.56,439.19
42.43788,361.85,439.38
42.45840,359.91,435.94
42.47731,360.33,436.53
42.49728,360.56,437.57
42.51754,358.30,435.14
42.53852,361.43,436.46
42.55835,359.07,434.54
42.57801,358.70,435.16
42.59772,358.63,436.06
42.61890,359.39,437.17
42.63736,356.76,438.17
42.65803,359.24,435.53
42.67739,361.67,437.55
42.69868,360.79,435.51
42.71695,361.78,437.52
42.73775,359.09,436.81
42.75883,359.91,437.22
42.77890,356.73,434.08
42.79748,350.81,432.06
42.81764,349.24,430.77
42.83719,344.94,429.05
42.85844,344.81,426.99
42.87716,345.05,429.59
42.89896,343.06,428.40
42.91819,346.51,428.58
42.93825,344.75,432.04
42.95880,348.80,430.24
42.97837,348.81,429.27
42.99803,347.72,429.16
43.01714,349.41,431.60
43.03744,351.97,432.32
43.05862,351.33,431.87
43.07818,352.29,435.41
43.09768,354.36,433.83
43.11885,354.93,433.40
43.13843,357.14,434.72
43.15743,358.85,436.01
43.17677,360.17,433.39
43.19715,358.56,435.32
43.21741,357.44,434.43
43.23868,360.18,435.79
43.25877,360.15,434.60
43.27862,358.46,436.80
43.29877,361.71,436.44
43.31733,361.04,435.61
43.33868,358.44,436.84
43.35742,360.14,436.70
43.37787,359.85,435.28
43.39749,361.76,434.69
43.41787,358.85,434.94
43.43812,358.86,436.62
43.45789,359.23,436.64
43.47844,361.23,432.65
43.49781,359.21,432.53
43.51882,361.34,435.52
43.53828,361.00,436.44
43.55766,360.93,433.31
43.57853,361.46,434.65
43.59867,360.94,432.87
43.61855,361.00,435.02
43.63842,360.49,435.76
43.65851,361.27,435.81
43.67718,359.69,434.45
43.69759,361.70,437.34
43.71843,361.18,434.28
43.73816,362.67,433.97
43.75885,360.19,434.12
43.77699,360.16,435.71
43.79850,362.35,435.22
43.81845,361.00,438.06
43.83811,359.77,437.49
43.85689,361.01,436.78
43.87730,360.77,436.48
43.89775,363.32,435.39
43.91708,364.16,438.66
43.93845,362.02,436.34
43.95789,362.10,435.88
43.97870,362.68,437.10
43.99766,361.60,435.72
44.01886,360.76,436.21
44.03880,363.19,438.07
44.05760,361.64,438.53
44.07710,364.01,438.03
44.09734,364.41,434.96
44.11727,362.30,435.33
44.13727,361.05,435.20
44.15719,360.67,435.18
44.17854,362.75,434.43
44.19779,361.26,433.95
44.21761,362.17,434.37
44.23790,359.17,436.37
44.25840,364.92,436.18
44.27799,376.94,440.85
44.29793,391.66,447.64
44.31762,410.71,457.53
44.33823,431.54,466.12
44.35897,450.14,475.20
44.37702,464.83,480.64
44.39827,472.84,481.92
44.41774,481.61,479.89
44.43758,482.60,478.36
44.45737,481.24,472.60
44.47808,475.81,466.89
44.49858,469.08,462.18
44.51814,462.01,456.09
44.53873,450.61,449.53
44.55880,445.41,444.66
44.57786,434.86,440.78
44.59772,426.90,438.70
44.61724,420.02,439.32
44.63711,415.85,438.18
44.65749,407.55,437.41
44.67788,400.64,435.24
44.69697,397.56,434.65
44.71872,391.68,436.42
44.73848,384.94,436.69
44.75798,381.01,436.19
44.77696,379.88,437.33
44.79805,379.29,435.75
44.81750,373.80,438.03
44.83852,372.78,437.35
44.85763,371.62,436.65
44.87789,371.00,433.44
44.89784,370.58,432.46
44.91700,368.63,432.53
44.93802,368.17,435.22
44.95803,366.02,433.75
44.97879,364.64,433.10
44.99757,364.51,434.37
45.01787,362.91,432.75
45.03860,361.63,434.90
45.05841,363.57,437.81
45.07979,364.87,436.29
45.09959,364.34,434.99
45.11874,365.97,434.90
45.13891,363.83,435.90
45.15954,364.78,437.00
45.17965,364.54,436.73
45.19951,364.54,437.06
45.21827,363.65,437.77
45.23937,364.22,438.34
45.25965,361.33,436.70
45.27861,355.96,435.38
45.29877,346.54,432.93
45.31870,333.92,427.55
45.33915,319.04,424.39
45.36003,301.97,422.35
45.37926,284.59,414.03
45.39809,265.26,413.32
45.41791,253.87,405.80
45.43936,248.86,404.23
45.45858,244.70,406.31
45.47948,249.37,408.15
45.49966,257.71,409.14
45.51825,264.18,408.61
45.53905,272.43,413.44
45.55879,279.70,414.29
45.57886,290.78,418.57
45.59799,299.59,420.08
45.61874,307.12,423.93
45.63958,312.70,423.40
45.65840,318.42,425.72
45.67978,324.00,429.81
45.69881,331.58,427.87
45.71812,336.36,431.28
45.73804,341.37,430.99
45.75937,344.80,430.41
45.77817,346.52,432.63
45.79912,350.31,435.18
45.81987,352.08,433.76
45.83884,354.92,433.68
45.85861,357.68,433.69
45.87847,357.51,435.60
45.89883,357.83,436.91
45.91810,359.55,436.08
45.93799,363.21,435.38
45.95833,363.67,434.43
45.97853,364.02,436.40
45.99906,363.03,436.21
46.01839,364.86,436.16
46.03794,361.69,437.87
46.05807,363.76,435.80
46.07866,362.71,438.19
46.09774,365.10,436.60
46.11796,366.05,436.85
46.13913,367.63,435.40
46.15962,366.84,438.77
46.17950,365.35,437.65
46.19903,366.37,438.22
46.21985,365.51,437.33
46.23821,367.68,434.40
46.25934,368.24,434.69
46.27875,369.59,437.26
46.29811,369.93,433.03
46.31971,366.21,434.82
46.33780,369.84,436.40
46.35802,368.99,437.01
46.37875,366.80,438.57
46.39933,368.87,436.55
46.41851,366.25,436.36
46.43909,367.34,437.73
46.45959,368.46,436.19
46.47952,365.29,436.76
46.49815,365.01,436.61
46.51801,366.80,437.07
46.53872,369.60,437.29
46.55928,369.71,438.35
46.57861,367.37,438.93
46.59812,366.43,437.21
46.61970,368.68,438.20
46.63822,369.50,435.74
46.65830,369.53,435.58
46.67829,369.66,436.44
46.69817,369.31,435.47
46.71919,366.57,435.77
46.73962,367.44,437.26
46.75961,369.95,437.66
46.77889,368.33,439.65
46.79950,368.95,436.95
46.81980,367.15,437.03
46.83807,369.30,439.32
46.85942,366.41,436.73
46.87964,368.50,439.94
46.89860,370.57,437.15
46.91963,368.36,438.91
46.93959,370.69,439.66
46.95880,369.43,440.08
46.97939,368.69,440.89
46.99783,370.65,438.86
47.01945,368.09,442.04
47.03882,367.81,440.86
47.05908,371.52,442.27
47.07831,371.28,439.00
47.09833,369.38,442.20
47.11851,370.22,439.58
47.13883,368.16,441.22
47.15945,370.17,441.86
47.17958,364.43,435.86
47.19877,363.57,427.24
47.21848,356.74,415.84
47.23929,353.49,411.76
47.25964,351.00,406.59
47.27799,350.07,402.79
47.29872,352.32,403.93
47.31885,351.59,407.91
47.33809,350.86,406.30
47.35846,353.49,408.88
47.37813,357.27,411.14
47.39831,358.44,414.70
47.41820,359.48,416.77
47.43950,358.00,420.57
47.45822,361.26,422.33
47.47897,363.43,424.01
47.49929,363.21,427.05
47.51865,364.70,431.79
47.53932,366.98,434.49
47.55945,368.93,440.36
47.57772,370.05,453.53
47.59935,376.28,470.74
47.61846,382.06,488.34
47.63989,391.98,503.67
47.65948,397.13,518.98
