Program Time [s],data 0,data 1
77.96378,406.52,511.85
77.98336,407.04,508.98
78.00335,407.68,512.35
78.02410,406.39,510.13
78.04404,406.05,513.30
78.06353,405.55,515.04
78.08274,401.81,516.09
78.10231,407.46,523.27
78.12424,416.12,528.42
78.14243,418.42,537.79
78.16411,428.52,563.58
78.18408,428.19,587.00
78.20374,428.45,612.22
78.22410,417.03,610.76
78.24263,412.99,604.39
78.26353,408.95,585.77
78.28305,405.95,562.97
78.30381,398.89,540.89
78.32245,397.11,518.04
78.34379,392.08,501.10
78.36265,392.73,489.92
78.38344,392.92,483.37
78.40342,401.63,482.28
78.42291,400.57,484.06
78.44274,398.28,504.26
78.46289,398.54,528.24
78.48400,403.28,571.97
78.50298,400.09,605.99
78.52354,403.58,628.74
78.54348,390.91,645.52
78.56325,396.76,654.91
78.58375,394.16,655.25
78.60323,395.94,643.97
78.62376,395.98,622.80
78.64332,403.10,591.43
78.66374,403.29,556.05
78.68396,406.50,519.73
78.70330,412.21,492.01
78.72308,410.96,471.99
78.74267,414.74,450.13
78.76329,414.58,439.28
78.78364,419.45,427.97
78.80264,419.25,419.40
78.82341,413.09,413.28
78.84282,412.72,416.47
78.86309,413.06,416.49
78.88318,408.29,419.62
78.90405,406.20,426.57
78.92249,409.47,432.86
78.94408,406.04,439.71
78.96235,407.11,442.31
78.98384,406.14,447.49
79.00351,408.22,454.07
79.02412,407.05,455.51
79.04241,405.50,459.26
79.06326,406.75,463.86
79.08351,408.78,471.77
79.10248,409.83,475.23
79.12315,407.30,484.94
79.14321,407.25,490.06
79.16418,406.63,496.84
79.18379,403.90,501.94
79.20305,404.98,505.15
79.22336,405.02,504.96
79.24373,402.71,506.00
79.26255,403.75,510.32
79.28227,400.87,511.05
79.30257,400.39,510.98
79.32300,403.46,511.60
79.34320,406.41,511.66
79.36418,406.18,511.05
79.38288,407.99,508.69
79.40337,409.02,509.84
79.42425,408.06,510.95
79.44398,407.82,509.29
79.46514,408.35,509.70
79.48475,411.19,510.66
79.50348,408.29,510.30
79.52426,409.65,509.43
79.54419,407.76,509.59
79.56461,409.04,513.40
79.58343,405.68,509.95
79.60518,405.12,512.46
79.62448,406.14,512.77
79.64503,405.38,513.32
79.66431,404.53,513.68
79.68615,408.25,512.55
79.70605,406.55,511.66
79.72616,407.72,510.06
79.74488,404.84,510.96
79.76512,406.35,509.81
79.78451,403.32,506.18
79.80494,402.81,506.84
79.82507,403.80,505.40
79.84546,401.35,504.97
79.86453,401.96,501.46
79.88614,399.62,501.10
79.90474,406.21,501.31
79.92424,410.71,502.39
79.94434,413.87,501.35
79.96478,417.64,502.30
79.98452,415.93,500.61
80.00628,414.26,503.04
80.02474,416.17,503.09
80.04564,412.22,503.60
80.06462,414.78,502.68
80.08530,411.66,505.53
80.10573,410.53,505.45
80.12528,408.92,504.03
80.14528,408.82,505.82
80.16530,413.35,508.44
80.18589,424.39,513.94
80.20482,450.85,526.53
80.22491,474.18,536.48
80.24444,501.23,538.55
80.26605,518.87,536.44
80.28581,532.63,535.10
80.30489,539.42,527.58
80.32503,541.58,518.60
80.34507,535.94,508.30
80.36447,530.26,502.29
80.38590,521.55,498.32
80.40581,513.67,491.55
80.42470,503.69,490.64
80.44594,495.88,489.08
80.46706,485.49,490.63
80.48679,476.18,488.32
80.50789,468.56,487.64
80.52847,460.39,486.40
80.54893,451.95,486.72
80.56714,443.53,485.77
80.58831,440.04,489.88
80.60799,434.55,488.61
80.62889,430.57,489.10
80.64798,422.09,492.90
80.66837,420.04,494.54
80.68812,418.45,493.21
80.70768,412.78,494.93
80.72779,411.99,494.68
80.74841,407.75,499.72
80.76794,409.35,500.83
80.78735,408.51,500.14
80.80889,403.90,501.55
80.82820,406.09,504.25
80.84844,401.91,505.36
80.86873,401.95,507.09
80.88818,401.76,507.35
80.90895,398.99,506.69
80.92768,401.27,507.64
80.94869,396.96,509.33
80.96839,397.29,506.73
80.98748,398.17,508.49
81.00788,398.71,506.63
81.02880,398.21,508.17
81.04721,395.33,509.54
81.06832,396.24,512.34
81.08906,393.84,516.27
81.10874,383.58,523.61
81.12780,366.58,528.66
81.14732,349.35,533.85
81.16863,319.83,534.68
81.18748,296.39,529.69
81.20753,273.89,518.94
81.22733,252.83,511.16
81.24872,243.17,502.63
81.26784,245.10,500.17
81.28808,247.46,495.06
81.30817,258.71,494.80
81.32907,269.33,493.39
81.34868,280.96,493.54
81.36903,292.89,492.18
81.38884,300.96,492.86
81.40907,312.89,494.80
81.42730,322.20,494.66
81.44738,333.62,497.85
81.46901,342.74,498.11
81.48829,348.23,497.71
81.50908,358.11,498.41
81.52795,362.33,499.83
81.54723,370.29,500.95
81.56869,374.29,499.82
81.58806,377.74,502.57
81.60730,382.24,502.59
81.62757,382.37,505.15
81.64742,382.91,502.75
81.66878,385.88,504.22
81.68721,391.04,505.13
81.70720,390.10,502.91
81.72728,390.04,502.54
81.74793,392.98,504.23
81.76833,392.82,504.87
81.78789,395.31,503.57
81.80992,394.51,504.35
81.82880,395.71,502.33
81.84934,393.22,502.65
81.86887,396.24,502.10
81.88934,393.71,503.95
81.90860,395.92,503.47
81.92843,396.17,501.92
81.94862,396.36,504.26
81.96883,396.67,502.09
81.98941,397.06,502.25
82.00830,395.75,505.32
82.02923,396.78,503.98
82.04835,395.14,501.07
82.06887,395.65,502.23
82.08891,399.80,501.27
82.10999,397.28,504.79
82.12922,396.28,503.53
82.14929,399.10,503.97
82.16866,396.69,505.28
82.18954,400.20,502.10
82.20980,400.44,500.40
82.22963,402.89,498.22
82.24869,401.97,496.26
82.27005,400.67,495.57
82.28975,398.95,498.32
82.30996,399.09,495.92
82.32945,398.55,496.20
82.34867,401.96,498.64
82.36828,401.31,500.05
82.38889,401.90,499.85
82.40845,399.96,502.35
82.42970,401.55,501.19
82.44903,398.50,503.25
82.46917,400.94,502.04
82.48891,400.12,501.58
82.50871,401.68,501.68
82.52922,398.58,499.87
82.55022,400.54,501.84
82.57026,401.34,504.77
82.59179,400.50,507.17
82.61035,401.40,505.75
82.63131,400.35,506.70
82.65056,401.13,505.68
82.67179,402.46,507.05
82.69030,406.17,506.24
82.71098,406.25,505.31
82.73109,406.36,506.33
82.75113,408.27,506.96
82.77185,406.02,507.12
82.79126,405.52,505.70
82.81191,404.98,507.36
82.83212,406.28,510.49
82.85102,405.58,513.77
82.87102,414.87,521.91
82.89218,435.25,538.39
82.91219,462.44,556.92
82.93037,492.52,572.96
82.95165,522.74,586.25
82.97035,544.02,586.85
82.99108,555.99,581.71
83.01035,563.03,569.56
83.03176,564.65,556.01
83.05170,561.52,539.18
83.07107,552.67,527.67
83.09185,547.35,518.36
83.11129,534.65,508.39
83.13112,522.18,497.45
83.15135,510.30,489.43
83.17168,500.61,485.56
83.19106,489.94,483.75
83.21202,479.83,479.33
83.23129,470.20,478.88
83.25034,465.59,476.93
83.27030,456.84,478.48
83.29080,449.56,483.06
83.31103,445.31,487.69
83.33055,440.64,491.04
83.35138,435.89,492.79
83.37186,433.98,497.20
83.39186,429.55,496.90
83.41184,427.20,501.05
83.43163,425.76,498.78
83.45270,421.15,502.04
83.47235,421.58,501.95
83.49197,419.93,503.80
83.51143,418.78,506.78
83.53102,417.41,504.36
83.55305,419.46,505.52
83.57150,416.09,508.45
83.59220,416.12,509.85
83.61282,415.90,507.17
83.63138,414.72,510.02
83.65270,414.40,510.20
83.67159,414.90,508.25
83.69133,416.41,507.93
83.71261,415.26,508.56
83.73227,415.44,511.43
83.75218,415.91,509.48
83.77210,414.97,511.41
83.79262,418.36,509.76
83.81144,411.00,513.35
83.83291,398.92,517.74
83.85326,383.46,524.79
83.87183,364.20,532.12
83.89179,342.64,529.74
83.91218,320.02,528.08
83.93306,297.81,521.16
83.95228,281.91,508.46
83.97299,272.16,498.61
83.99127,269.70,490.40
84.01260,271.35,487.41
84.03149,279.33,483.14
84.05256,289.80,479.19
84.07249,297.90,478.41
84.09189,311.58,474.80
84.11175,320.23,475.94
84.13255,332.45,475.43
84.15170,339.26,475.25
84.17166,348.66,475.76
84.19307,358.57,478.85
84.21235,366.73,478.61
84.23118,373.05,481.17
84.25140,378.27,484.98
84.27225,383.18,484.94
84.29168,387.27,487.02
84.31220,390.71,490.08
84.33301,394.64,489.01
84.35215,398.06,489.51
84.37225,401.54,491.82
84.39157,400.16,490.74
84.41209,405.30,490.65
84.43289,405.05,490.22
84.45180,405.14,490.21
84.47220,407.07,491.51
84.49199,409.19,493.30
84.51191,408.44,496.03
84.53270,410.94,498.85
84.55226,410.90,496.73
84.57231,411.99,498.32
84.59193,410.33,500.90
84.61245,414.79,498.77
84.63203,415.29,502.94
84.65131,415.29,502.56
84.67299,415.03,501.97
84.69253,413.33,506.86
84.71308,414.06,505.59
84.73238,411.72,505.38
84.75263,411.74,506.46
84.77259,412.65,505.37
84.79399,411.55,506.43
84.81345,413.19,504.58
84.83385,416.30,503.01
84.85439,412.70,505.47
84.87382,415.26,503.64
84.89417,413.57,506.91
84.91231,413.79,505.29
84.93334,415.87,505.97
84.95323,411.80,507.63
84.97349,410.83,509.00
84.99273,411.23,511.52
85.01242,411.19,509.06
85.03325,412.75,510.85
85.05307,413.17,509.64
85.07345,415.26,510.60
85.09250,414.03,511.05
85.11369,414.37,508.91
85.13348,415.71,512.35
85.15322,414.23,509.43
85.17239,413.00,511.08
85.19388,413.21,510.36
85.21289,415.30,507.73
85.23339,416.84,507.93
85.25234,413.74,509.77
85.27387,415.08,507.66
85.29362,415.58,508.43
85.31357,413.61,511.29
85.33204,413.48,510.93
85.35501,410.72,509.84
85.37482,414.22,511.90
85.39374,413.12,508.91
85.41466,412.61,511.72
85.43499,413.00,510.64
85.45353,409.36,510.09
85.47432,410.22,511.83
85.49427,409.41,507.87
85.51328,411.16,507.72
85.53473,412.79,508.84
85.55516,412.51,509.92
85.57354,412.96,508.74
85.59515,411.68,507.98
85.61440,410.85,506.95
85.63324,408.99,507.13
85.65474,409.52,509.58
85.67332,410.65,510.39
85.69326,408.54,510.01
85.71360,408.00,515.25
85.73490,409.13,515.71
85.75357,408.66,512.59
85.77458,408.96,514.59
85.79444,409.70,514.33
85.81325,408.36,513.79
85.83350,408.22,515.12
85.85435,409.51,512.43
85.87371,411.35,513.79
85.89451,416.49,517.38
85.91462,434.68,524.71
85.93403,457.45,531.76
85.95432,481.93,542.27
85.97339,501.73,546.53
85.99487,519.22,546.95
86.01382,529.52,542.95
86.03494,538.25,539.90
86.05451,541.96,532.43
86.07356,542.86,529.79
86.09433,540.96,525.64
86.11513,535.60,520.48
86.13434,526.56,515.06
86.15404,518.91,512.42
86.17505,511.60,510.83
86.19462,502.61,505.71
86.21499,495.29,506.10
86.23358,486.53,502.87
86.25444,474.52,504.34
86.27307,470.39,504.17
86.29448,459.32,502.20
86.31376,457.02,504.81
86.33507,447.74,505.04
86.35504,443.98,502.98
86.37344,441.95,505.75
86.39379,437.57,503.73
86.41430,431.26,507.69
86.43470,427.39,504.75
86.45314,425.30,505.15
86.47499,421.90,506.85
86.49503,421.44,507.64
86.51395,417.35,508.95
86.53466,416.59,508.87
86.55462,417.32,510.54
86.57390,416.29,507.65
86.59406,415.34,511.01
86.61348,413.76,510.73
86.63396,411.00,508.23
86.65375,410.26,510.97
86.67458,410.83,507.63
86.69463,408.97,510.20
86.71453,409.71,509.21
86.73474,409.49,508.85
86.75504,409.64,507.64
86.77438,411.14,510.94
86.79393,408.16,507.70
86.81363,407.68,511.17
86.83491,411.25,509.03
86.85428,406.47,510.02
86.87453,393.87,513.27
86.89447,376.31,511.67
86.91361,354.29,513.23
86.93448,331.15,506.65
86.95482,309.45,499.94
86.97351,290.98,490.45
86.99410,282.51,484.49
87.01488,280.11,478.55
87.03324,282.78,479.25
87.05427,288.22,477.93
87.07549,297.21,478.56
87.09454,307.01,477.59
87.11592,316.20,479.71
87.13599,324.87,485.74
87.15558,333.47,486.60
87.17550,344.80,489.76
87.19505,351.28,491.75
87.21437,355.52,494.10
87.23677,365.15,497.41
87.25635,366.46,496.97
87.27510,371.71,500.00
87.29511,375.37,501.48
87.31639,378.58,504.74
87.33500,380.89,507.29
87.35685,385.07,505.85
87.37693,388.43,507.59
87.39653,393.29,507.33
87.41688,395.69,505.22
87.43560,395.56,507.50
87.45580,395.82,506.39
87.47594,399.08,503.82
87.49516,393.08,505.30
87.51641,387.60,501.73
87.53674,383.50,500.86
87.55565,381.43,497.85
87.57710,382.04,499.37
87.59568,383.82,496.51
87.61585,382.43,497.77
87.63527,385.25,497.51
87.65694,386.37,496.62
87.67555,387.29,498.93
87.69670,387.68,497.36
87.71615,387.45,496.86
87.73522,391.64,497.16
87.75675,392.38,501.21
87.77662,392.80,500.86
87.79528,393.99,499.25
87.81622,396.10,499.46
87.83708,397.12,499.74
87.85590,395.01,499.10
87.87707,394.70,501.27
87.89684,398.48,504.19
87.91504,399.23,501.71
87.93607,398.43,504.28
87.95681,395.24,507.44
87.97576,382.29,511.48
87.99521,378.53,511.97
88.01653,377.73,512.88
88.03533,375.74,516.41
88.05596,372.87,518.63
88.07665,373.74,514.18
88.09641,373.81,514.25
88.11548,379.67,512.57
88.13548,379.97,513.51
88.15609,381.94,514.65
88.17589,382.98,512.46
88.19615,385.34,511.39
88.21621,387.58,510.53
88.23701,389.33,509.80
88.25689,388.36,510.91
88.27585,387.07,511.78
88.29594,389.16,508.36
88.31552,390.06,508.27
88.33651,393.01,509.34
88.35631,392.88,508.42
88.37521,392.65,509.25
88.39581,395.33,509.41
88.41627,392.84,508.59
88.43569,394.11,505.76
88.45702,396.95,504.92
88.47672,396.53,506.49
88.49752,399.47,506.02
88.51605,398.48,505.18
88.53778,399.03,507.33
88.55722,398.96,505.70
88.57779,398.02,507.24
88.59629,396.79,507.50
88.61598,399.22,505.89
88.63691,397.33,506.69
88.65786,400.25,506.46
88.67729,399.03,508.89
88.69779,398.89,507.64
88.71680,397.52,506.93
88.73799,398.01,506.93
88.75819,395.52,507.90
88.77617,397.90,505.08
88.79754,396.08,503.58
88.81613,399.32,505.95
88.83764,400.18,504.73
88.85902,396.20,502.31
88.87903,399.81,499.41
88.89817,399.49,499.03
88.91973,401.03,499.68
88.93861,397.77,501.95
88.95902,399.78,500.30
88.97798,397.30,499.61
88.99899,398.44,497.62
89.02190,399.93,500.45
89.04074,401.46,496.98
89.06113,400.05,496.44
89.08173,397.52,500.72
89.10157,407.24,503.07
89.12199,426.77,511.64
89.14094,453.62,524.10
89.16178,481.24,535.12
89.18064,507.24,543.19
89.20144,525.22,548.98
89.22081,543.09,549.92
89.24024,549.79,547.75
89.26100,559.08,544.01
89.28176,558.38,537.73
89.30141,554.40,532.93
89.32213,551.01,523.85
89.34249,542.98,519.83
89.36271,532.85,511.38
89.38248,521.66,507.79
89.40304,511.53,503.77
89.42216,503.73,503.21
89.44302,490.25,502.00
89.46355,482.56,499.67
89.48378,474.10,500.73
89.50291,463.98,498.91
89.52332,454.93,498.29
89.54374,451.90,499.18
89.56305,446.39,499.49
89.58297,441.47,500.86
89.60304,436.03,501.60
89.62356,431.62,500.57
89.64241,427.57,502.37
89.66300,427.05,499.25
89.68365,427.05,500.22
89.70328,422.78,504.12
89.72217,420.86,505.07
89.74324,419.16,506.56
89.76209,416.90,506.93
89.78355,416.76,504.52
89.80309,416.28,506.39
89.82204,411.84,504.57
89.84349,414.15,505.39
89.86269,411.81,504.92
89.88372,411.64,505.85
89.90349,411.91,502.82
89.92254,415.31,500.64
89.94227,405.26,505.23
89.96282,390.82,505.16
89.98392,366.57,503.60
90.00403,339.61,500.21
90.02275,313.66,493.87
90.04309,287.19,489.70
90.06213,268.20,485.46
90.08353,251.74,480.84
90.10289,248.04,477.30
90.12385,249.60,478.89
90.14205,257.87,477.02
90.16249,266.74,480.33
90.18352,280.33,481.38
90.20336,292.07,484.34
90.22398,303.63,488.70
90.24293,317.60,491.53
90.26317,329.89,492.99
90.28301,340.62,497.64
90.30371,351.07,499.18
90.32369,359.45,499.75
90.34373,368.76,500.07
90.36288,372.33,499.42
90.38313,380.71,499.63
90.40355,383.50,500.69
90.42205,390.51,502.24
90.44322,393.54,501.26
90.46335,397.07,500.77
90.48262,396.99,501.36
90.50398,402.15,504.35
90.52283,404.82,506.03
90.54217,403.79,503.92
90.56219,406.08,503.71
90.58219,406.71,504.78
90.60355,410.09,505.74
90.62377,409.61,502.93
90.64331,408.79,503.83
90.66399,409.22,506.54
90.68354,412.54,504.72
90.70311,411.25,508.14
90.72291,410.38,508.28
90.74312,413.66,510.03
90.76394,411.17,510.13
90.78291,413.47,507.64
90.80243,413.36,506.64
90.82348,412.93,508.15
90.84322,413.11,508.92
90.86323,411.64,509.91
90.88389,415.09,508.56
90.90265,412.37,507.32
90.92469,412.16,508.12
90.94433,414.67,505.64
90.96482,410.99,507.31
90.98479,413.47,505.75
91.00457,411.75,507.41
91.02385,410.30,507.48
91.04498,410.07,509.63
91.06394,416.27,508.44
91.08417,416.15,510.18
91.10419,420.00,509.19
91.12460,419.18,510.03
91.14314,420.90,510.14
91.16416,418.86,507.94
91.18309,418.19,509.56
91.20401,420.95,507.91
91.22313,422.10,510.69
91.24303,420.27,508.95
91.26404,419.81,507.63
91.28451,419.24,509.12
91.30461,416.78,508.39
91.32284,414.83,507.37
91.34293,413.15,508.59
91.36409,412.70,508.28
91.38459,415.06,508.61
91.40347,413.07,507.69
91.42312,412.00,505.66
91.44324,411.86,508.53
91.46317,413.08,506.76
91.48491,415.01,504.76
91.50313,412.24,507.89
91.52324,412.55,505.75
91.54460,411.54,508.40
91.56414,410.15,507.97
91.58496,407.77,507.26
91.60396,409.94,508.69
91.62497,409.32,507.36
91.64447,411.11,506.61
91.66381,409.78,508.64
91.68319,409.44,509.18
91.70389,408.94,509.62
91.72344,408.33,510.44
91.74363,410.95,510.21
91.76485,407.68,510.25
91.78320,407.35,506.88
91.80402,411.18,507.71
91.82393,408.94,506.28
91.84327,412.13,507.19
91.86478,410.37,506.83
91.88475,410.92,508.90
91.90458,411.15,505.77
91.92413,407.02,505.09
91.94376,408.48,504.51
91.96332,409.58,505.03
91.98418,407.72,504.47
92.00478,409.71,504.05
92.02364,407.31,504.81
92.04446,406.92,501.50
92.06429,406.96,502.50
92.08414,407.29,504.64
92.10395,406.25,504.77
92.12422,407.38,502.88
92.14491,414.33,507.95
92.16465,424.07,515.76
92.18572,442.81,526.04
92.20595,467.10,540.17
92.22590,491.76,546.42
92.24585,513.52,547.47
92.26487,530.07,546.93
92.28426,541.51,545.71
92.30528,551.91,538.09
92.32556,553.43,534.06
92.34553,552.07,527.90
92.36571,546.76,522.62
92.38672,542.51,515.46
92.40517,530.14,508.11
92.42548,521.34,505.11
92.44557,512.63,502.00
92.46523,503.73,505.79
92.48521,494.77,506.54
92.50561,481.68,504.41
92.52646,475.84,506.55
92.54695,464.50,504.09
92.56662,457.50,502.18
92.58521,452.82,503.06
92.60552,444.13,506.03
92.62594,439.74,504.03
92.64622,434.59,504.21
92.66491,428.13,502.70
92.68595,426.49,505.90
92.70518,422.03,503.60
92.72569,418.45,504.89
92.74661,415.24,504.15
92.76693,416.17,507.14
92.78521,415.83,507.76
92.80495,414.39,508.68
92.82698,411.94,511.17
92.84619,412.20,512.47
92.86575,411.70,512.90
92.88642,409.49,512.84
92.90674,408.40,513.97
92.92580,407.42,511.18
92.94697,409.88,512.23
92.96595,407.70,511.68
92.98745,403.25,511.72
93.00601,403.64,511.36
93.02741,405.60,511.77
93.04765,404.61,510.36
93.06750,402.93,511.66
93.08754,404.46,511.81
93.10670,401.18,513.52
93.12633,403.28,512.55
93.14723,397.74,511.22
93.16654,383.64,507.70
93.18696,361.27,502.96
93.20747,339.14,497.22
93.22711,314.49,492.36
93.24597,290.73,487.67
93.26589,265.59,478.90
93.28740,251.83,476.19
93.30715,247.58,473.07
93.32702,247.22,470.34
93.34702,253.98,470.13
93.36678,259.54,473.96
93.38738,272.07,474.48
93.40615,285.80,479.11
93.42664,294.29,480.10
93.44710,308.31,482.13
93.46723,318.71,487.31
93.48746,327.78,488.16
93.50661,336.43,493.30
93.52761,345.57,493.32
93.54735,352.58,495.40
93.56667,359.00,496.89
93.58631,367.53,499.48
93.60802,369.33,497.26
93.62694,376.73,498.95
93.64632,380.07,500.27
93.66716,380.62,500.76
93.68757,385.23,501.89
93.70718,386.98,504.03
93.72724,387.00,502.77
93.74649,389.62,504.89
93.76643,390.57,506.26
93.78603,392.07,503.03
93.80710,391.55,505.71
93.82593,394.14,505.33
93.84578,395.07,506.30
93.86728,393.08,502.33
93.88604,393.77,504.95
93.90716,395.90,506.68
93.92643,395.35,504.27
93.94614,398.62,506.87
93.96659,397.65,507.20
93.98651,397.38,506.18
94.00765,399.07,508.41
94.02669,399.67,506.37
94.04727,400.67,508.45
94.06759,397.83,508.99
94.08791,400.91,508.26
94.10616,399.02,508.10
94.12719,400.45,509.10
94.14697,398.08,509.13
94.16654,399.05,505.77
94.18785,399.85,508.91
94.20627,400.64,509.24
94.22786,398.39,506.80
94.24724,398.93,508.33
94.26738,399.78,507.19
94.28617,399.90,507.64
94.30631,401.38,505.89
94.32734,402.37,504.28
94.34638,402.08,505.34
94.36594,398.60,505.64
94.38711,399.26,503.50
94.40623,398.53,505.20
94.42725,398.40,505.28
94.44798,400.63,503.27
94.46778,399.09,504.59
94.48660,398.46,504.19
94.50627,397.74,503.81
94.52632,397.55,503.33
94.54726,398.80,506.62
94.56678,398.84,506.29
94.58749,397.12,504.44
94.60634,397.66,506.88
94.62748,399.23,504.84
94.64724,396.46,505.07
94.66687,398.05,504.40
94.68652,395.92,502.74
94.70748,397.87,506.78
94.72723,395.85,506.65
94.74628,396.94,503.88
94.76636,394.16,506.36
94.78681,394.95,503.53
94.80764,393.66,504.74
94.82777,397.06,500.52
94.84700,395.83,500.13
94.86707,395.27,502.15
94.88764,397.85,501.23
94.90726,397.32,502.61
94.92708,399.15,500.05
94.94770,398.46,503.39
94.96745,399.96,503.39
94.98728,397.52,501.96
95.00751,399.23,505.13
95.02738,401.87,506.38
95.04593,412.17,513.21
95.06665,426.43,521.22
95.08703,452.84,534.57
95.10620,475.79,545.56
95.12692,499.04,554.71
95.14615,519.82,557.17
95.16747,533.60,554.36
95.18727,540.36,550.02
95.20671,543.46,541.48
95.22622,545.26,536.91
95.24692,542.08,527.87
95.26674,534.18,524.45
95.28851,529.91,518.15
95.30802,520.35,514.17
95.32904,510.40,508.21
95.34922,497.24,505.88
95.36811,487.59,502.55
95.38923,478.16,502.75
95.40917,468.42,498.56
95.42833,464.30,500.21
95.44882,453.58,497.00
95.46978,446.99,500.11
95.48829,440.88,500.62
95.50886,436.81,497.80
95.52911,430.60,498.20
95.54947,426.67,502.58
95.56923,423.92,501.44
95.58948,418.75,502.42
95.60862,418.16,501.39
95.62834,415.88,502.54
95.64904,410.77,505.42
95.66960,408.65,503.99
95.68988,407.62,505.97
95.70883,407.49,504.47
95.72821,406.93,507.13
95.74793,408.59,503.77
95.76820,405.48,505.90
95.78808,407.81,503.87
95.80969,405.58,503.98
95.82793,404.76,505.47
95.84821,403.93,505.70
95.86903,403.63,505.24
95.88982,401.57,506.61
95.90923,400.27,503.69
95.92898,400.11,505.88
95.94967,399.34,505.00
95.96935,398.85,506.98
95.98812,399.65,507.12
96.00973,399.18,505.91
96.02940,399.80,508.44
96.04877,402.37,505.92
96.06850,401.05,506.23
96.08952,401.66,507.51
96.10841,397.34,506.48
96.12881,383.33,505.74
96.14840,368.09,505.33
96.16918,351.04,504.26
96.18807,329.69,498.98
96.20970,304.84,492.07
96.22947,283.67,480.10
96.24833,265.67,470.02
96.26946,251.24,464.91
96.28965,246.73,459.76
96.30844,247.90,458.23
96.32914,258.34,459.87
96.34956,265.10,458.06
96.36792,278.83,461.34
96.38857,287.37,466.75
96.40802,299.50,471.13
96.42923,309.95,474.79
96.44982,323.77,477.84
96.46795,334.35,484.20
96.48898,344.78,487.44
96.50840,354.14,489.19
96.52950,359.54,491.90
96.54839,363.83,495.35
96.56807,369.63,496.83
96.58880,377.24,499.61
96.60949,381.82,500.55
96.62817,385.96,500.47
96.64798,385.78,503.01
96.66899,389.60,502.15
96.68957,393.54,504.76
96.70797,394.89,506.05
96.72933,396.33,507.09
96.74922,399.45,506.95
96.76983,397.77,504.70
96.78917,396.82,506.12
96.80875,399.21,507.00
96.82835,400.76,509.86
96.84912,401.50,507.89
96.86957,400.38,506.87
96.88940,400.44,504.52
96.90958,402.20,505.87
96.92933,403.28,502.15
96.94826,401.32,505.64
96.96846,400.73,506.16
96.98942,403.16,502.86
97.00870,401.24,503.94
97.02942,400.66,505.19
97.04939,404.23,508.61
97.06877,403.03,506.53
97.08984,402.85,507.94
97.10911,404.55,506.68
97.12848,403.35,507.55
97.14957,402.61,507.74
97.16905,403.55,508.75
97.18960,401.99,507.81
97.20780,403.90,505.94
97.22968,402.87,505.53
97.24954,407.25,506.18
97.26834,406.58,507.01
97.28861,407.18,507.23
97.30857,406.30,505.85
97.32975,408.94,505.33
97.35035,409.38,508.69
97.36912,407.59,508.97
97.38950,410.05,507.96
97.40942,408.75,508.72
97.43002,411.92,508.47
97.45011,411.22,509.17
97.46966,409.34,508.69
97.48999,410.10,507.00
97.50993,409.32,508.47
97.52926,408.95,508.05
97.54991,409.78,504.57
97.56908,409.28,508.44
97.58928,409.37,507.67
97.60959,409.81,507.37
97.63088,408.07,506.56
97.65011,409.70,508.91
97.67090,407.49,509.45
97.69042,410.59,510.77
97.71000,409.77,509.52
97.73144,411.36,510.55
97.75155,410.03,511.85
97.77007,412.53,510.08
97.79029,412.71,506.63
97.81155,414.51,508.29
97.83094,412.83,504.29
97.85169,413.57,503.56
97.87045,411.66,506.53
97.89008,414.04,505.69
97.91019,414.78,505.36
97.93176,415.42,506.17
97.95075,413.39,504.48
97.97092,413.57,503.35
97.99121,415.04,503.65
98.01055,415.84,506.26
98.03123,411.85,504.44
98.05086,412.01,507.09
98.07147,413.12,505.30
98.09159,413.68,508.08
98.11125,410.82,504.64
98.13141,412.96,507.29
98.15152,415.29,505.86
98.17004,414.49,506.56
98.19171,411.46,509.43
98.21123,412.32,507.84
98.23016,413.70,509.12
98.25038,413.04,506.12
98.27028,414.87,506.02
98.29156,414.57,508.69
98.31144,415.96,506.73
98.33080,413.72,509.94
98.35029,423.00,512.12
98.37144,439.70,525.82
98.39149,465.29,542.44
98.41084,491.54,556.55
98.43058,519.14,564.47
98.45014,545.23,565.39
98.47080,560.36,561.22
98.49022,566.31,553.35
98.51063,572.14,545.41
98.53158,568.52,536.43
98.55053,562.16,527.28
98.57004,556.40,518.60
98.58998,546.10,513.49
98.61047,532.36,506.31
98.63029,521.83,502.73
98.65091,511.84,502.53
98.67012,502.42,504.44
98.69046,490.81,501.21
98.71064,480.62,506.20
98.72989,472.23,504.13
98.75082,465.40,504.93
98.76967,456.81,507.53
98.79036,451.44,507.77
98.81019,446.33,507.41
98.83047,440.52,510.21
98.85045,435.43,511.94
98.87075,434.30,510.33
98.89048,429.77,510.97
98.91122,427.99,512.07
98.93115,427.39,510.22
98.95098,425.47,510.15
98.97041,424.23,512.37
98.99158,421.55,512.69
99.01019,421.03,510.98
99.03101,421.61,510.32
99.05011,418.65,511.91
99.07080,416.21,511.35
99.09092,418.69,509.50
99.10983,416.34,509.09
99.13052,416.14,510.09
99.15015,414.02,509.61
99.17167,405.92,509.89
99.19081,393.26,511.13
99.21105,372.18,510.10
99.23063,345.56,505.65
99.25054,320.71,499.31
99.27012,294.77,492.91
99.29062,271.54,485.20
99.30976,256.24,480.07
99.33131,252.59,474.91
99.35087,254.61,476.56
99.37077,262.01,475.94
99.38993,271.00,478.82
99.41118,286.01,480.12
99.43150,296.26,483.48
99.45104,309.43,485.51
99.47001,319.30,488.64
99.49131,333.20,492.69
99.51024,339.34,494.83
99.53000,348.14,497.76
99.55168,355.94,497.60
99.57133,366.05,500.71
99.59094,369.97,501.84
99.61016,377.53,504.28
99.63035,380.47,502.55
99.65125,384.92,506.59
99.67008,390.57,505.57
99.69164,392.92,508.27
99.71092,394.30,505.03
99.72990,396.11,505.25
99.74977,399.35,505.56
99.77018,399.80,507.72
99.79051,401.85,506.92
99.81049,406.08,508.05
99.83025,407.67,508.22
99.85075,407.14,506.33
99.87120,410.14,505.43
99.89062,408.24,507.87
99.91137,409.41,509.25
99.93062,408.53,510.80
99.95102,410.29,509.63
99.97071,411.21,509.00
99.99099,411.10,510.06
100.01169,410.17,508.34
100.03186,408.21,509.52
100.05034,408.69,509.97
100.07133,410.30,509.75
100.09105,409.08,509.53
100.11150,408.63,509.96
100.13005,409.45,509.44
100.15173,409.28,511.28
100.17066,406.65,506.96
100.19197,409.68,508.17
100.21024,408.71,508.10
100.23016,411.06,508.27
100.25090,409.73,508.19
100.27102,410.90,505.43
100.29140,410.95,507.96
100.31084,410.40,507.41
100.33151,411.77,507.89
100.35069,411.58,505.48
100.37002,410.02,505.25
100.39148,411.02,508.33
100.41134,409.10,507.56
100.43282,411.54,507.99
100.45245,409.92,507.65
100.47207,410.30,507.35
100.49236,409.64,508.65
100.51155,412.61,508.02
100.53153,409.42,506.67
100.55194,412.77,508.39
100.57262,408.97,507.41
100.59214,407.58,507.04
100.61248,408.31,507.31
100.63343,405.41,507.87
100.65321,405.64,507.30
100.67394,406.21,507.09
100.69378,405.62,506.01
100.71395,406.96,507.58
100.73395,407.35,504.40
100.75229,406.18,503.96
100.77259,406.16,506.59
100.79306,406.04,508.15
100.81298,408.10,508.70
100.83254,407.93,509.55
100.85339,408.36,508.71
100.87229,406.50,507.01
100.89321,405.47,507.30
100.91325,405.21,507.89
100.93219,404.83,507.72
100.95323,405.62,504.84
100.97319,405.06,503.67
100.99326,403.31,504.44
101.01236,406.80,504.05
101.03288,406.14,503.89
101.05281,410.78,504.69
101.07304,424.68,511.89
101.09360,447.84,525.17
101.11310,474.04,533.85
101.13312,497.18,543.87
101.15314,520.92,549.93
101.17305,536.64,549.40
101.19265,547.73,544.24
101.21304,550.73,540.79
101.23283,551.29,536.41
101.25232,547.98,529.70
101.27399,545.60,522.35
101.29204,537.48,514.24
101.31379,527.93,510.52
101.33250,520.87,505.93
101.35204,511.73,501.36
101.37325,500.80,498.48
101.39377,491.61,497.79
101.41319,483.88,497.44
101.43369,471.47,496.11
101.45293,465.87,497.69
101.47333,458.21,496.20
101.49327,448.53,497.36
101.51281,444.14,499.42
101.53250,437.25,500.45
101.55360,429.55,502.16
101.57368,425.67,501.58
101.59378,421.98,502.87
101.61291,421.18,503.32
101.63275,416.63,507.42
101.65264,414.38,507.32
101.67302,412.71,506.18
101.69278,410.01,507.67
101.71333,408.19,509.42
101.73222,407.19,508.36
101.75220,407.94,511.65
101.77300,406.26,510.20
101.79286,406.40,511.02
101.81343,406.72,508.91
101.83254,403.72,510.17
101.85354,393.67,516.90
101.87263,379.49,519.41
101.89306,355.12,525.43
101.91332,334.74,527.36
101.93326,311.78,526.09
101.95333,292.75,521.28
101.97355,272.51,514.32
101.99288,258.12,502.26
102.01281,253.32,496.51
102.03300,256.26,488.62
102.05254,260.24,485.39
102.07228,270.06,486.27
102.09330,278.91,486.78
102.11311,287.50,484.12
102.13337,300.07,484.22
102.15291,309.11,485.76
102.17275,322.34,486.67
102.19220,330.99,486.29
102.21395,341.33,489.81
102.23334,347.33,488.98
102.25281,354.21,492.03
102.27216,360.15,494.57
102.29230,367.63,493.25
102.31292,373.08,498.73
102.33324,376.35,497.96
102.35249,377.03,497.25
102.37232,373.50,493.31
102.39283,376.12,486.27
102.41351,374.05,484.94
102.43282,375.67,485.01
102.45209,377.25,482.72
102.47314,380.46,482.23
102.49209,383.53,484.72
102.51395,384.63,487.78
102.53272,388.78,487.65
102.55397,391.23,488.58
102.57330,394.15,489.79
102.59348,393.40,492.77
102.61326,393.32,494.21
102.63231,396.03,498.74
102.65328,393.54,500.04
102.67336,393.63,500.14
102.69373,395.74,502.15
102.71322,394.45,500.37
102.73362,395.35,501.61
102.75259,397.76,500.90
102.77394,396.05,502.71
102.79391,398.91,499.55
102.81379,396.92,501.81
102.83327,398.03,500.19
102.85358,399.00,500.24
102.87391,397.94,502.27
102.89390,397.24,502.82
102.91437,394.20,500.48
102.93438,397.23,502.16
102.95365,397.05,502.51
102.97423,394.23,500.40
102.99404,395.91,502.40
103.01470,398.58,501.01
103.03500,398.16,502.45
103.05446,398.84,500.98
103.07362,398.85,503.13
103.09493,396.42,503.69
103.11467,399.48,503.55
103.13314,400.19,502.32
103.15404,402.48,503.60
103.17356,402.27,501.03
103.19478,399.00,501.27
103.21311,398.04,503.28
103.23382,399.88,504.03
103.25386,397.53,505.19
103.27465,398.78,506.87
103.29355,398.25,502.89
103.31317,400.02,504.79
103.33480,399.27,503.20
103.35310,400.37,504.85
103.37397,397.99,505.01
103.39457,400.62,504.89
103.41349,399.38,505.33
103.43481,401.11,505.02
103.45483,401.40,504.06
103.47469,400.53,504.16
103.49465,402.13,500.73
103.51354,399.03,500.34
103.53475,400.36,499.16
103.55367,398.75,500.06
103.57435,400.17,500.66
103.59345,408.82,505.38
103.61466,427.20,515.90
103.63311,452.98,523.59
103.65408,480.83,534.99
103.67337,502.25,540.52
103.69311,522.50,546.08
103.71447,532.70,544.43
103.73326,537.61,544.81
103.75340,540.60,542.56
103.77497,539.08,539.18
103.79453,535.80,532.53
103.81322,531.46,527.87
103.83424,521.87,524.48
103.85493,512.98,517.64
103.87422,504.31,515.65
103.89304,492.17,514.45
103.91383,483.32,512.44
103.93461,473.96,510.51
103.95383,462.57,507.49
103.97384,458.27,509.68
103.99325,449.24,508.56
104.01443,440.03,505.98
104.03313,435.75,507.80
104.05392,432.14,508.36
104.07336,426.51,508.79
104.09466,425.46,508.30
104.11329,420.14,507.43
104.13301,415.01,505.08
104.15396,415.33,507.43
104.17425,411.34,505.84
104.19458,410.23,506.22
104.21376,409.74,505.50
104.23492,408.40,508.90
104.25223,408.69,508.21
104.27246,406.26,507.32
104.29414,404.34,508.39
104.31474,402.37,505.18
104.33405,402.74,505.36
104.35414,402.03,506.02
104.37357,403.17,505.00
104.39334,405.38,503.46
104.41362,401.59,504.41
104.43364,402.68,503.95
104.45312,400.45,503.61
104.47378,401.93,506.55
104.49435,400.50,505.32
104.51425,399.94,503.58
104.53441,399.55,505.27
104.55280,400.91,506.37
104.57463,401.23,506.23
104.59416,400.99,504.14
104.61461,401.06,504.77
104.63384,397.09,503.86
104.65452,387.71,510.51
104.67437,367.24,514.21
104.69498,340.15,510.89
104.71401,319.52,507.65
104.73392,298.30,501.32
104.75488,278.41,492.38
104.77410,265.55,483.43
104.79368,255.97,478.44
104.81303,255.87,473.64
104.83359,261.80,471.01
104.85496,269.72,470.02
104.87499,277.77,472.08
104.89276,287.96,474.95
104.91421,299.86,474.43
104.93311,308.58,477.19
104.95373,321.62,479.04
104.97439,331.06,479.59
104.99350,338.79,481.02
105.01383,346.95,483.28
105.03473,354.41,483.97
105.05418,362.55,487.15
105.07336,366.20,488.86
105.09206,371.48,488.83
105.11395,377.31,491.87
105.13341,379.12,494.74
105.15485,382.98,494.28
105.17352,387.80,494.09
105.19449,389.80,499.47
105.21407,389.00,497.54
105.23466,392.43,500.26
105.25430,395.35,504.55
105.27429,393.75,509.15
105.29302,396.67,511.26
105.31476,396.42,513.41
105.33448,398.43,516.13
105.35343,396.88,518.17
105.37410,397.24,517.43
105.39373,398.11,517.20
105.41389,400.27,516.32
105.43443,397.44,512.65
105.45346,399.46,511.87
105.47446,399.66,513.71
105.49560,401.72,511.60
105.51503,401.59,509.35
105.53478,402.05,511.86
105.55442,402.58,511.20
105.57557,402.43,511.01
105.59411,405.25,509.83
105.61366,403.26,509.47
105.63520,403.23,508.02
105.65597,403.66,509.85
105.67485,404.61,507.73
105.69439,408.45,506.93
105.71320,407.32,506.89
105.73506,406.84,506.92
105.75402,405.79,505.97
105.77496,404.09,505.09
105.79459,404.98,506.68
105.81413,406.31,504.02
105.83627,406.29,504.00
105.85620,405.03,502.95
105.87517,408.36,506.59
105.89571,406.17,504.88
105.91469,408.54,505.66
105.93617,406.91,505.95
105.95633,406.88,507.78
105.97639,408.07,507.91
105.99571,408.39,506.21
106.01582,411.73,506.55
106.03529,411.01,507.90
106.05511,409.18,505.72
106.07568,412.13,506.22
106.09558,413.02,507.34
106.11681,411.68,506.28
106.13547,413.60,505.55
106.15449,411.09,506.59
106.17563,412.23,509.13
106.19529,411.80,508.16
106.21573,410.45,506.89
106.23609,411.31,507.69
106.25550,409.60,506.16
106.27557,409.82,504.18
106.29521,410.39,507.06
106.31525,409.36,507.62
106.33646,407.85,506.93
106.35628,410.48,505.17
106.37571,408.79,508.48
106.39644,410.05,506.81
106.41651,409.19,507.92
106.43792,410.85,509.97
106.45756,413.99,508.63
106.47697,411.67,509.50
106.49697,414.66,508.80
106.51761,411.77,508.20
106.53888,414.58,507.21
106.55833,413.01,508.12
106.57746,412.52,508.88
106.59778,413.07,505.26
106.61826,414.18,506.41
106.63703,412.43,507.30
106.65714,413.13,507.51
106.67706,410.58,505.18
106.69716,411.81,505.92
106.71803,412.72,505.26
106.73713,415.93,504.65
106.75891,415.20,506.43
106.77865,414.29,507.41
106.79719,417.17,507.39
106.81702,432.03,515.92
106.83831,460.77,524.06
106.85742,487.06,539.57
106.87847,519.99,548.56
106.89760,539.26,556.18
106.91713,555.40,553.88
106.93723,565.75,551.93
106.95873,566.90,547.38
106.97832,567.41,542.34
106.99721,561.85,533.25
107.01814,555.39,527.61
107.03831,543.98,521.99
107.05824,534.33,515.26
107.07866,519.70,509.90
107.09798,509.51,507.31
107.11804,502.36,502.74
107.13701,490.04,500.65
107.15828,483.31,499.01
107.17883,471.06,499.99
107.19734,465.22,502.24
107.21760,458.13,500.15
107.23844,451.24,503.99
107.25852,446.13,505.02
107.27759,439.06,505.19
107.29725,434.35,505.15
107.31832,433.70,503.16
107.33830,429.51,505.10
107.35762,425.39,509.33
107.37895,423.49,509.06
107.39673,424.70,508.69
107.41710,423.03,510.07
107.43767,422.67,511.13
107.45819,419.69,510.41
107.47817,417.60,509.54
107.49752,418.88,508.86
107.51859,417.03,508.68
107.53767,415.24,507.92
107.55870,416.47,509.97
107.57885,416.27,510.00
107.59675,414.22,510.13
107.61841,416.19,507.98
107.63788,414.52,509.66
107.65931,411.78,507.68
107.67913,414.14,510.96
107.69835,412.85,509.17
107.71891,412.45,509.30
107.73805,407.36,513.22
107.75862,400.37,515.93
107.77810,389.81,515.51
107.79760,371.40,515.93
107.81989,350.30,513.09
107.83972,323.86,507.27
107.85866,298.71,493.35
107.87955,274.54,479.23
107.89872,254.37,469.33
107.91830,245.10,461.18
107.93959,246.94,457.50
107.95957,250.55,455.84
107.97947,259.32,453.46
107.99828,271.60,457.54
108.01978,283.23,464.15
108.03972,299.37,472.48
108.05878,309.93,479.06
108.08065,319.65,484.10
108.09843,332.19,490.58
108.12032,342.65,493.90
108.14025,350.14,498.79
108.16026,356.22,502.83
108.17953,363.28,503.34
108.19914,370.80,507.16
108.21920,378.63,509.19
108.24048,383.36,508.02
108.25977,385.95,509.94
108.27971,390.93,513.42
108.29837,392.12,512.65
108.32056,395.85,512.04
108.34053,397.51,510.37
108.35942,398.88,510.93
108.37912,397.12,510.00
108.40056,398.21,512.04
108.41940,399.58,510.45
108.44054,400.37,510.93
108.45921,405.61,509.08
108.47955,404.77,507.51
108.50076,402.93,510.44
108.51901,406.27,508.01
108.54077,405.05,508.19
108.55820,406.92,509.38
108.57943,404.48,505.86
108.59993,405.26,506.83
108.62100,405.65,505.64
108.63853,408.35,504.11
108.65913,408.35,505.90
108.67935,406.29,504.97
108.70049,407.66,505.18
108.72081,404.98,506.00
108.73977,406.11,506.59
108.75932,405.29,505.73
108.78021,406.40,505.22
108.79970,405.35,505.86
108.81969,408.36,506.24
108.84068,405.75,504.93
108.86001,406.49,506.19
108.87964,402.86,507.43
108.90159,401.99,507.88
108.92126,403.29,507.43
108.94061,401.88,505.40
108.96007,404.03,507.41
108.98175,402.94,506.96
109.00170,399.92,507.57
109.02058,403.56,508.28
109.04031,403.13,509.15
109.06008,403.76,507.25
109.08196,402.48,507.45
109.10081,403.68,505.61
109.12118,403.43,507.53
109.14170,400.73,506.98
109.16101,404.32,504.08
109.18148,402.52,506.11
109.20059,400.58,505.75
109.22124,400.01,505.45
109.24054,401.30,507.30
109.26077,402.63,506.46
109.28016,403.85,506.21
109.30130,401.24,506.68
109.32146,404.74,508.24
109.34084,404.79,508.13
109.35944,400.98,509.38
109.38172,402.15,507.58
109.40120,404.42,506.86
109.42091,404.25,508.38
109.44133,420.07,517.68
109.46168,441.87,526.74
109.48143,469.44,540.46
109.50159,494.91,550.79
109.52135,517.45,557.03
109.53913,533.99,560.17
109.56179,547.26,557.21
109.58048,557.32,550.61
109.60031,557.91,544.41
109.62193,553.44,540.15
109.64112,547.58,532.44
109.66129,539.29,522.49
109.68066,531.12,519.72
109.70025,520.47,514.81
109.72174,509.98,509.69
109.74169,501.61,507.86
109.76106,491.72,504.56
109.77931,480.67,501.55
109.80145,471.73,501.62
109.82071,462.04,502.92
109.84117,455.25,502.80
109.86074,446.41,504.53
109.88068,438.78,504.80
109.90085,432.31,503.15
109.92052,429.67,503.32
109.94054,423.84,506.03
109.95985,419.43,505.52
109.97930,416.48,505.16
110.00199,414.77,504.07
110.01904,414.07,506.73
110.04031,411.96,506.42
110.06009,406.06,504.64
110.08065,408.57,505.64
110.09924,405.15,506.71
110.12112,402.65,505.83
110.14098,400.74,506.39
110.16005,399.96,506.40
110.18043,400.05,507.60
110.20072,400.78,508.36
110.22152,398.60,508.04
110.24172,401.62,509.55
110.26113,398.24,507.54
110.28178,401.46,506.18
110.30097,398.37,506.21
110.32196,397.29,506.67
110.34005,398.36,505.62
110.36135,399.40,505.90
110.38047,392.01,511.14
110.40042,378.31,515.88
110.42105,357.46,512.79
110.44193,333.21,512.25
110.46085,306.16,505.38
110.47944,278.79,495.10
110.50163,259.02,490.97
110.52076,243.23,481.49
110.54041,238.05,478.57
110.56021,238.20,475.35
110.58023,243.44,476.38
110.60162,255.76,475.22
110.61901,265.97,474.35
110.64193,277.33,476.71
110.66029,287.80,478.63
110.68094,300.86,479.98
110.70187,313.79,484.04
110.72074,322.09,488.01
110.74153,329.74,491.13
110.76059,339.22,494.67
110.78068,346.10,496.76
110.79918,351.82,498.57
110.82004,358.89,497.58
110.84010,362.34,499.11
110.86293,368.31,499.82
110.88025,375.20,503.10
110.90235,376.36,501.29
110.92262,380.87,505.11
110.94157,382.52,504.56
110.96180,387.10,504.16
110.98104,389.74,504.33
111.00274,389.78,506.41
111.02213,389.83,506.64
111.04185,390.51,507.13
111.06300,391.78,507.88
111.08017,390.57,505.58
111.10008,391.79,503.98
111.12138,392.50,505.86
111.14167,394.03,504.44
111.16277,398.24,503.68
111.18152,398.04,505.70
111.20298,398.18,503.15
111.22190,397.13,504.63
111.24119,397.61,503.56
111.26128,399.39,500.02
111.28162,396.46,501.20
111.30246,399.35,499.74
111.32197,397.99,499.97
111.34285,400.49,499.57
111.36165,396.57,498.54
111.38192,397.26,498.91
111.40257,398.92,498.26
111.42176,398.75,497.92
111.44047,397.44,497.51
111.46169,398.75,500.40
111.48190,399.55,499.92
111.50230,398.70,500.85
111.52296,396.21,501.36
111.54115,399.45,502.74
111.56127,400.60,501.82
111.58157,399.75,502.92
111.60184,398.92,501.87
111.62182,399.42,505.17
111.64186,399.94,506.52
111.66105,397.41,506.68
111.68075,399.05,502.56
111.70203,395.49,503.66
111.72085,398.23,505.37
111.74184,400.09,503.27
111.76210,398.81,503.29
111.78183,398.88,506.01
111.80047,399.72,504.86
111.82085,398.23,505.04
111.84287,399.98,503.27
111.86153,397.54,501.75
111.88199,398.71,503.40
111.90132,397.79,504.46
111.92293,400.45,504.17
111.94187,401.66,504.55
111.96278,400.68,507.19
111.98257,398.08,507.05
112.00265,399.65,502.80
112.02255,400.29,506.80
112.04125,400.59,503.40
112.06005,404.00,507.22
112.08109,404.18,504.33
112.10289,402.85,506.49
112.12181,405.40,506.35
112.14003,402.19,507.99
112.16276,401.12,506.39
112.18100,403.35,509.53
112.20231,403.39,506.68
112.22121,402.36,506.46
112.24210,401.67,506.94
112.26174,403.40,507.82
112.28159,403.91,506.63
112.30135,399.63,508.61
112.32069,399.26,508.30
112.34118,402.48,508.06
112.36212,400.62,508.25
112.38158,401.98,504.91
112.40174,399.47,504.31
112.42099,398.85,506.65
112.44143,400.35,504.08
112.46183,400.06,503.69
112.48046,399.52,500.88
112.50216,400.18,503.65
112.52125,399.91,502.31
112.54278,399.86,502.96
112.56016,396.57,504.50
112.58248,398.53,507.81
112.60270,400.60,506.63
112.62295,398.51,506.41
112.64061,398.03,506.83
112.66181,400.95,504.68
112.68096,401.36,507.28
112.70027,400.06,508.14
112.72242,411.82,511.27
112.74231,429.27,521.56
112.76239,452.01,529.35
112.78163,474.13,535.62
112.80161,495.56,543.96
112.82168,509.65,543.61
112.84283,520.01,542.72
112.86075,528.87,537.25
112.88002,533.95,532.10
112.90101,532.71,523.73
112.92247,531.80,520.28
112.94204,529.71,515.07
112.96114,522.32,507.31
112.98001,517.18,506.14
113.00146,508.55,503.14
113.02068,502.21,502.16
113.04154,492.75,499.12
113.06136,482.26,496.59
113.08129,472.35,497.15
113.10126,467.22,500.24
113.12276,456.36,501.96
113.14234,451.55,499.89
113.16295,444.30,503.87
113.18296,438.43,502.78
113.20349,435.97,503.86
113.22235,431.50,503.97
113.24156,430.20,503.28
113.26240,425.05,502.95
113.28222,420.89,504.63
113.30232,420.39,506.62
113.32270,420.27,507.17
113.34155,416.06,507.91
113.36229,414.18,508.10
113.38581,413.92,506.61
113.40165,410.17,507.20
113.42119,412.55,507.32
113.44113,409.76,507.62
113.46145,406.81,507.85
113.48165,406.68,508.56
113.50141,409.16,503.33
113.52283,409.23,502.83
113.54312,407.21,498.57
113.56216,407.24,496.56
113.58147,406.30,498.35
113.60189,406.66,498.69
113.62298,405.79,496.66
113.64309,407.15,503.87
113.66209,405.78,505.86
113.68109,406.27,509.96
113.70358,405.11,510.02
113.72207,402.85,513.39
113.74330,405.35,511.48
113.76290,404.28,514.35
113.78288,404.14,512.53
113.80279,404.31,511.44
113.82150,394.03,515.17
113.84191,377.04,515.68
113.86187,354.40,514.34
113.88198,330.36,507.58
113.90202,305.39,503.77
113.92236,286.18,496.66
113.94346,267.90,491.34
113.96396,258.76,491.27
113.98292,256.50,485.96
114.00281,259.69,485.83
114.02484,266.66,485.17
114.04432,275.57,485.87
114.06441,288.79,482.99
114.08352,300.21,486.80
114.10235,308.49,488.73
114.12369,322.47,487.77
114.14302,331.35,489.69
114.16281,343.22,491.29
114.18305,350.23,492.13
114.20371,361.44,496.35
114.22454,366.60,498.15
114.24450,374.19,499.18
114.26399,377.58,499.35
114.28434,382.63,500.45
114.30408,389.22,500.97
114.32338,390.21,500.53
114.34536,393.17,501.80
114.36413,399.21,503.60
114.38508,401.59,503.78
114.40430,401.25,502.30
114.42411,402.81,503.49
114.44316,406.33,505.27
114.46385,407.40,501.39
114.48398,408.57,502.68
114.50462,410.48,503.74
114.52544,409.29,503.92
114.54439,412.28,502.25
114.56466,411.72,502.76
114.58451,414.18,505.85
114.60336,415.22,505.13
114.62452,413.17,505.06
114.64405,413.62,504.38
114.66426,415.82,507.52
114.68529,415.27,508.93
114.70380,416.98,506.83
114.72351,417.98,506.03
114.74372,415.61,505.51
114.76395,415.96,507.94
114.78455,414.53,507.76
114.80425,414.93,507.85
114.82410,414.69,503.92
114.84583,416.44,507.19
114.86446,413.32,503.91
114.88474,416.33,503.74
114.90459,416.14,506.66
114.92380,414.86,504.82
114.94420,415.96,504.10
114.96381,414.76,505.99
114.98405,413.74,506.59
115.00409,415.22,507.47
115.02350,416.82,505.10
115.04393,415.84,507.01
115.06448,416.48,506.67
115.08521,415.59,508.76
115.10337,416.46,506.40
115.12418,415.64,508.84
115.14323,416.67,508.58
115.16322,415.78,510.45
115.18440,416.46,515.69
115.20478,421.03,524.95
115.22451,422.31,538.96
115.24359,425.33,557.85
115.26486,424.76,572.67
115.28407,426.65,586.59
115.30512,424.62,598.06
115.32512,423.47,598.77
115.34354,421.19,587.60
115.36498,414.44,562.46
115.38384,409.67,534.34
115.40312,401.46,503.50
115.42456,398.21,476.94
115.44428,392.76,455.14
115.46338,393.77,443.32
115.48503,392.90,434.08
115.50407,395.60,427.15
115.52409,397.79,424.82
115.54382,398.25,425.59
115.56466,402.36,428.16
115.58448,400.83,434.44
115.60455,402.07,435.84
115.62451,402.45,437.95
115.64410,402.45,439.23
115.66430,403.65,444.03
115.68468,401.38,448.37
115.70446,404.65,453.19
115.72484,404.04,459.18
115.74362,407.37,464.87
115.76432,409.22,472.44
115.78519,408.76,474.73
115.80422,408.34,463.30
115.82528,406.14,446.51
115.84426,401.18,426.23
115.86588,403.17,412.50
