Program Time [s],data 0,data 1
3.26239,516.69,583.50
3.28221,518.15,580.31
3.30213,518.04,580.88
3.32325,519.12,579.46
3.34188,520.21,582.11
3.36175,518.81,580.62
3.38274,519.26,581.52
3.40237,519.18,582.32
3.42177,517.37,581.60
3.44229,515.94,584.91
3.46297,517.70,582.49
3.48328,519.90,582.33
3.50362,516.04,581.22
3.52329,518.38,581.08
3.54260,516.96,582.04
3.56197,519.83,583.23
3.58302,521.84,584.27
3.60285,519.96,583.60
3.62312,523.00,583.35
3.64336,521.26,581.84
3.66245,522.29,583.92
3.68265,518.90,583.10
3.70238,519.67,583.59
3.72171,519.47,585.95
3.74322,520.86,584.80
3.76241,519.55,583.84
3.78250,520.86,583.96
3.80228,519.35,583.45
3.82249,518.10,583.64
3.84335,518.32,584.15
3.86177,518.54,583.22
3.88328,516.94,581.28
3.90315,519.27,581.45
3.92186,520.97,584.04
3.94337,517.82,583.29
3.96254,519.57,584.06
3.98232,516.41,582.07
4.00266,519.93,580.25
4.02253,519.14,583.84
4.04210,516.80,580.01
4.06193,516.46,583.28
4.08373,519.15,585.28
4.10293,516.95,581.59
4.12278,521.15,581.51
4.14386,518.59,582.50
4.16201,519.84,583.72
4.18225,517.43,584.47
4.20314,516.81,585.58
4.22169,517.06,581.45
4.24350,516.76,581.24
4.26304,518.53,580.09
4.28251,519.97,579.82
4.30307,518.61,577.89
4.32178,515.83,581.51
4.34276,515.77,579.44
4.36225,516.53,581.65
4.38166,516.30,580.75
4.40305,514.72,581.03
4.42204,518.18,581.31
4.44180,515.55,578.75
4.46308,516.14,579.62
4.48275,517.36,582.11
4.50283,516.03,580.20
4.52174,517.60,579.22
4.54226,516.55,579.66
4.56355,515.04,578.73
4.58354,516.82,582.38
4.60325,518.90,584.06
4.62330,518.74,583.25
4.64263,519.31,580.62
4.66303,518.26,581.79
4.68376,517.30,581.85
4.70313,514.31,580.81
4.72267,518.24,583.35
4.74189,517.99,580.15
4.76325,515.60,579.05
4.78186,518.24,582.48
4.80186,520.04,580.85
4.82199,533.32,589.72
4.84356,554.93,600.86
4.86360,584.95,615.85
4.88232,610.31,626.98
4.90307,635.58,634.35
4.92288,655.09,634.32
4.94222,667.96,632.71
4.96236,675.05,626.18
4.98243,676.54,617.44
5.00238,674.35,611.13
5.02251,669.50,602.37
5.04251,661.37,594.63
5.06301,648.39,587.69
5.08328,638.42,585.39
5.10263,630.15,583.09
5.12328,618.70,579.69
5.14272,604.70,579.04
5.16243,596.96,580.11
5.18308,586.84,580.88
5.20253,580.35,580.08
5.22304,572.43,581.24
5.24281,565.98,580.97
5.26238,557.97,582.39
5.28251,550.73,583.47
5.30183,545.19,583.69
5.32280,543.54,585.59
5.34184,539.08,584.38
5.36323,535.58,583.34
5.38366,532.20,585.72
5.40213,534.45,584.69
5.42223,530.46,587.02
5.44233,530.77,585.68
5.46316,527.62,584.38
5.48322,529.39,585.68
5.50223,526.86,584.15
5.52188,526.88,584.54
5.54387,525.02,584.39
5.56188,524.72,583.27
5.58290,521.35,582.17
5.60283,521.10,584.14
5.62341,520.11,586.04
5.64210,521.31,586.43
5.66269,522.35,586.24
5.68220,520.26,583.74
5.70348,518.93,583.09
5.72341,518.66,581.77
5.74257,520.47,584.54
5.76178,518.29,583.01
5.78310,519.68,580.38
5.80232,519.88,581.23
5.82320,518.60,581.01
5.84273,517.95,581.94
5.86356,515.49,580.59
5.88278,513.52,581.98
5.90360,511.14,581.58
5.92284,506.79,589.42
5.94206,494.46,600.97
5.96211,480.00,616.30
5.98311,463.57,630.93
6.00343,442.24,638.16
6.02253,422.79,630.99
6.04290,399.81,616.99
6.06321,372.40,589.81
6.08328,354.86,565.55
6.10218,341.26,545.84
6.12209,336.88,526.98
6.14333,336.91,517.04
6.16243,347.40,514.88
6.18372,358.41,510.29
6.20192,370.01,512.08
6.22250,386.60,515.38
6.24295,397.70,520.73
6.26352,410.64,526.08
6.28247,425.62,532.67
6.30240,438.67,536.51
6.32196,446.13,544.08
6.34275,456.47,549.13
6.36331,464.68,553.20
6.38364,470.61,554.19
6.40316,477.10,555.73
6.42234,484.94,560.27
6.44305,486.12,561.43
6.46303,493.02,562.36
6.48267,495.01,562.67
6.50269,499.98,564.94
6.52240,505.68,564.82
6.54328,505.27,566.52
6.56238,507.11,567.02
6.58206,507.72,567.86
6.60272,507.82,569.84
6.62224,510.75,570.27
6.64350,514.37,572.21
6.66331,512.39,573.17
6.68354,513.80,572.65
6.70275,514.42,575.07
6.72198,512.95,572.45
6.74355,514.82,573.94
6.76276,515.67,572.41
6.78266,513.60,572.83
6.80335,514.46,572.55
6.82301,516.61,574.01
6.84255,517.20,574.14
6.86229,515.61,573.99
6.88294,517.70,577.12
6.90185,517.28,575.97
6.92230,516.06,576.99
6.94208,514.97,575.43
6.96362,519.61,577.77
6.98305,515.34,573.74
7.00374,516.54,575.81
7.02256,517.12,575.13
7.04281,517.51,575.71
7.06327,520.09,573.13
7.08471,517.83,575.67
7.10385,519.90,572.60
7.12417,521.17,573.25
7.14295,518.33,574.91
7.16553,521.90,575.09
7.18542,522.77,573.47
7.20425,523.56,574.21
7.22473,523.53,575.51
7.24413,521.48,578.58
7.26524,520.30,576.32
7.28515,520.14,580.04
7.30391,521.90,578.96
7.32409,519.46,581.19
7.34433,519.36,577.80
7.36585,521.98,578.00
7.38668,518.58,578.05
7.40510,518.77,576.67
7.42553,517.88,575.47
7.44580,519.23,575.70
7.46638,518.60,572.90
7.48656,520.61,572.64
7.50614,521.22,572.02
7.52547,520.68,569.90
7.54495,522.53,571.14
7.56630,522.89,570.44
7.58736,523.72,569.94
7.60632,525.00,570.57
7.62755,525.82,569.04
7.64763,525.00,570.47
7.66712,524.25,570.42
7.68706,525.13,572.16
7.70594,523.79,568.78
7.72720,525.08,569.04
7.74588,523.66,573.05
7.76683,525.20,571.56
7.78583,522.85,574.87
7.80668,524.25,571.82
7.82770,523.63,572.68
7.84614,521.24,573.50
7.86722,522.41,573.46
7.88628,522.72,570.02
7.90693,519.91,569.72
7.92760,521.02,568.87
7.94668,521.78,567.55
7.96681,522.53,569.02
7.98591,520.78,568.14
8.00741,520.35,569.50
8.02597,519.15,573.66
8.04630,519.50,572.93
8.06742,517.81,573.23
8.08620,521.48,571.94
8.10674,517.99,573.52
8.12742,519.74,572.31
8.14602,520.20,571.86
8.16742,522.48,572.02
8.18674,523.45,573.65
8.20747,523.68,573.53
8.22718,522.03,572.61
8.24616,523.97,575.36
8.26693,522.68,574.31
8.28738,520.61,572.28
8.30669,522.18,571.96
8.32760,524.74,573.00
8.34670,521.44,572.68
8.36637,521.91,574.43
8.38576,521.40,574.32
8.40745,519.83,573.75
8.42781,519.45,574.76
8.44713,519.39,573.71
8.46603,519.61,576.23
8.48760,521.67,574.38
8.50581,520.95,577.02
8.52620,523.55,576.16
8.54728,521.21,575.46
8.56610,522.13,573.35
8.58720,522.45,575.39
8.60665,522.02,575.97
8.62745,521.15,574.86
8.64718,521.15,576.94
8.66596,524.09,578.23
8.68697,521.88,575.18
8.70689,523.39,575.38
8.72650,523.25,574.99
8.74738,524.51,575.15
8.76778,521.52,575.62
8.78673,524.10,575.26
8.80585,524.08,573.59
8.82729,524.58,572.02
8.84625,522.08,576.55
8.86599,522.29,575.81
8.88625,522.44,575.55
8.90736,523.96,575.37
8.92654,532.60,582.06
8.94749,555.12,589.82
8.96701,585.75,601.16
8.98588,614.81,612.84
9.00666,647.76,621.32
9.02690,668.72,626.56
9.04666,686.83,626.04
9.06668,694.14,621.23
9.08730,698.76,613.21
9.10621,700.03,609.80
9.12644,695.32,600.29
9.14601,684.20,594.51
9.16600,673.88,586.73
9.18733,665.54,582.64
9.20646,652.37,579.16
9.22589,639.73,576.82
9.24654,625.92,575.35
9.26739,615.42,574.83
9.28636,608.22,572.69
9.30744,596.45,572.17
9.32622,587.14,574.43
9.34735,579.86,572.95
9.36685,572.08,575.30
9.38650,565.80,572.20
9.40715,559.03,576.71
9.42569,557.32,575.92
9.44683,551.19,575.49
9.46609,545.76,573.27
9.48683,543.13,575.79
9.50600,542.27,573.34
9.52665,540.08,575.20
9.54732,537.03,577.06
9.56638,535.23,578.33
9.58649,533.13,579.41
9.60737,532.77,577.85
9.62643,530.56,579.58
9.64765,530.80,578.77
9.66706,529.41,578.59
9.68695,528.01,576.11
9.70653,527.87,575.76
9.72763,527.71,574.65
9.74569,527.89,576.02
9.76699,520.98,574.57
9.78713,512.83,578.18
9.80623,495.64,576.11
9.82714,465.62,573.00
9.84626,434.84,566.82
9.86716,402.90,561.35
9.88851,371.00,550.57
9.90732,346.39,536.91
9.92673,332.05,529.24
9.94808,327.65,523.64
9.96718,330.90,526.11
9.98730,342.77,528.21
10.00855,352.97,527.30
10.02773,366.65,530.45
10.04688,381.69,537.44
10.06841,398.89,541.50
10.08722,412.69,545.24
10.10673,423.74,549.62
10.12753,440.00,553.81
10.14726,451.10,560.93
10.16691,461.05,563.95
10.18795,466.75,565.44
10.20729,477.01,566.28
10.22785,481.04,571.13
10.24850,486.86,572.47
10.26791,491.43,572.93
10.28703,496.15,574.26
10.30723,499.09,577.77
10.32869,503.12,576.82
10.34827,507.24,576.14
10.36795,509.32,580.80
10.38793,511.11,580.76
10.40748,515.64,584.11
10.42763,515.35,580.35
10.44721,516.55,582.23
10.46770,515.45,582.58
10.48794,515.47,582.86
10.50723,517.95,583.41
10.52754,519.95,584.02
10.54708,520.34,581.46
10.56828,518.02,579.92
10.58784,520.40,579.62
10.60791,522.56,581.08
10.62749,521.93,580.54
10.64791,523.24,580.79
10.66739,523.27,579.17
10.68685,523.58,579.80
10.70828,524.33,581.32
10.72739,524.82,582.90
10.74778,526.94,579.26
10.76788,523.80,580.00
10.78775,523.94,577.71
10.80832,525.16,577.07
10.82775,522.40,579.38
10.84801,521.06,580.13
10.86676,522.89,580.39
10.88846,519.53,581.45
10.90790,522.78,579.77
10.92863,520.61,578.14
10.94781,520.05,579.89
10.96678,519.96,578.65
10.98818,519.57,579.98
11.00847,520.54,578.48
11.02690,520.08,580.62
11.04828,520.50,578.05
11.06844,523.11,575.84
11.08808,521.07,577.90
11.10746,522.86,577.03
11.12739,523.05,578.67
11.14687,522.00,578.32
11.16689,523.41,578.49
11.18838,524.64,577.76
11.20827,523.05,579.27
11.22678,522.83,575.82
11.24758,522.43,578.55
11.26750,526.05,575.93
11.28691,523.49,578.37
11.30771,522.08,579.17
11.32781,522.66,576.98
11.34688,522.72,577.28
11.36692,524.58,574.88
11.38777,521.25,575.13
11.40817,521.52,574.88
11.42817,522.47,575.10
11.44827,519.58,574.87
11.46852,519.81,575.54
11.48678,522.58,573.42
11.50823,520.44,576.19
11.52833,522.22,573.86
11.54691,520.88,575.12
11.56870,519.19,576.15
11.58865,520.23,576.97
11.60841,520.74,575.73
11.62745,520.68,575.43
11.64683,519.44,576.65
11.66769,521.42,575.27
11.68729,520.29,576.08
11.70807,520.69,575.21
11.72687,520.26,576.95
11.74757,519.95,574.14
11.76800,520.83,574.57
11.78878,521.11,575.77
11.80812,521.38,574.41
11.82950,519.16,574.17
11.84924,521.70,573.23
11.86849,517.07,572.92
11.88796,517.26,574.25
11.90832,520.08,573.31
11.92779,520.26,572.89
11.94892,519.94,574.92
11.96785,517.77,575.07
11.98846,519.20,572.78
12.00783,520.82,574.27
12.02800,518.41,574.06
12.04840,518.02,572.54
12.06878,518.96,574.03
12.08775,519.82,574.09
12.10906,519.32,574.26
12.12808,521.39,571.63
12.14928,520.22,573.52
12.16952,521.51,569.52
12.18847,518.98,573.90
12.20806,522.94,573.45
12.22780,520.32,573.22
12.24875,519.53,574.64
12.26896,518.85,575.49
12.28950,519.70,574.28
12.30885,519.31,575.27
12.32975,519.75,575.07
12.34911,519.21,576.68
12.36860,517.94,575.18
12.39037,520.26,574.29
12.41001,518.23,574.03
12.42852,518.52,575.45
12.44981,517.07,575.15
12.46876,516.71,573.30
12.48978,518.37,575.23
12.50876,519.16,573.45
12.52979,519.10,575.61
12.55046,521.09,576.04
12.56856,518.75,575.04
12.58908,519.74,577.55
12.60980,521.02,577.51
12.62881,518.98,577.16
12.64976,520.61,576.47
12.67027,517.21,576.56
12.68896,517.30,575.47
12.70987,516.53,578.01
12.72995,520.09,576.70
12.75034,520.14,575.16
12.77074,519.63,577.82
12.79105,521.39,576.51
12.81207,519.27,578.34
12.83089,519.31,579.34
12.85249,522.34,576.87
12.87240,521.60,579.12
12.89060,520.07,580.29
12.91140,520.44,577.80
12.93137,517.44,575.91
12.95151,516.87,577.39
12.97153,518.93,575.80
12.99162,518.33,579.29
13.01061,516.92,576.42
13.03144,516.79,576.28
13.05096,518.14,577.76
13.07233,518.23,575.89
13.09206,517.58,575.47
13.11235,517.98,575.80
13.13189,516.87,578.09
13.15242,516.22,577.17
13.17123,516.61,574.73
13.19217,515.43,576.29
13.21218,515.53,574.79
13.23319,515.50,576.07
13.25217,516.08,576.12
13.27215,514.80,575.52
13.29353,516.14,578.45
13.31223,516.42,578.96
13.33359,512.66,579.21
13.35306,520.60,582.42
13.37233,536.65,588.87
13.39164,561.71,599.15
13.41167,588.96,615.97
13.43248,625.63,630.54
13.45336,652.70,639.57
13.47294,677.39,642.76
13.49343,691.51,641.31
13.51355,698.12,633.70
13.53284,700.06,626.68
13.55322,694.79,617.30
13.57356,686.28,610.01
13.59208,676.71,601.18
13.61241,665.12,597.62
13.63202,652.73,590.85
13.65164,638.14,590.46
13.67326,624.76,584.37
13.69199,610.46,583.09
13.71293,598.96,580.37
13.73371,590.02,581.02
13.75285,580.04,582.07
13.77258,574.25,580.31
13.79282,566.10,580.97
13.81174,559.66,578.37
13.83252,554.18,579.43
13.85354,547.22,580.13
13.87339,543.19,579.74
13.89233,536.90,579.78
13.91197,534.73,577.31
13.93198,530.64,576.05
13.95230,530.58,578.23
13.97280,525.12,578.09
13.99237,524.09,579.91
14.01380,522.35,578.35
14.03392,521.40,577.75
14.05368,519.94,577.89
14.07282,518.05,577.48
14.09274,518.01,578.92
14.11295,516.32,577.45
14.13318,516.60,579.47
14.15450,516.70,580.13
14.17306,514.82,585.19
14.19301,505.27,586.74
14.21443,490.53,590.92
14.23278,466.08,588.33
14.25404,438.01,580.25
14.27372,411.37,569.53
14.29445,384.64,559.65
14.31395,360.76,544.98
14.33337,341.46,532.22
14.35304,324.77,520.64
14.37384,322.01,515.00
14.39456,328.23,513.09
14.41338,334.89,514.92
14.43323,346.46,518.43
14.45346,361.38,517.70
14.47292,376.44,521.96
14.49459,391.51,527.27
14.51315,404.24,535.10
14.53393,417.19,539.00
14.55410,428.85,542.04
14.57436,438.71,547.48
14.59468,449.13,552.02
14.61294,458.42,553.92
14.63460,464.18,561.08
14.65264,474.47,560.95
14.67262,479.60,566.58
14.69333,483.46,565.14
14.71443,485.44,567.87
14.73372,490.37,570.44
14.75405,495.12,571.69
14.77334,494.96,573.54
14.79351,500.22,572.73
14.81433,501.15,572.49
14.83410,503.66,572.12
14.85321,504.65,572.15
14.87269,506.71,573.75
14.89356,509.52,576.98
14.91298,508.93,576.92
14.93319,509.84,579.29
14.95400,511.75,578.45
14.97403,513.12,578.64
14.99379,511.54,579.23
15.01362,512.81,579.02
15.03429,510.25,579.26
15.05330,511.76,577.35
15.07376,512.64,577.72
15.09401,512.72,576.79
15.11523,514.23,576.32
15.13412,514.55,575.86
15.15522,516.15,578.45
15.17468,513.78,579.51
15.19553,512.96,578.26
15.21518,512.55,580.14
15.23443,508.98,581.13
15.25494,511.40,582.25
15.27539,510.18,582.86
15.29505,509.24,583.90
15.31400,511.44,581.39
15.33560,512.22,581.66
15.35389,509.87,584.46
15.37425,511.20,582.24
15.39501,509.88,583.66
15.41367,511.55,583.65
15.43401,510.93,579.77
15.45498,509.88,582.74
15.47449,509.48,585.44
15.49557,511.44,584.26
15.51450,507.60,586.16
15.53524,510.32,584.00
15.55473,509.29,584.65
15.57541,511.67,583.54
15.59502,509.50,582.56
15.61453,510.85,582.20
15.63403,510.98,582.29
15.65391,510.91,583.38
15.67409,511.18,582.15
15.69423,512.57,582.35
15.71414,511.12,581.88
15.73499,509.51,578.18
15.75514,508.45,579.43
15.77477,510.19,580.87
15.79534,514.26,584.00
15.81497,510.88,580.68
15.83384,509.58,582.46
15.85416,512.35,581.41
15.87458,510.08,580.85
15.89404,511.10,583.48
15.91410,510.26,584.54
15.93387,511.89,584.93
15.95373,509.17,583.66
15.97555,510.41,583.90
15.99468,511.16,580.66
16.01445,512.10,583.20
16.03415,511.48,581.69
16.05526,512.54,583.63
16.07558,514.93,582.27
16.09522,513.58,582.53
16.11371,514.61,582.25
16.13429,512.75,580.58
16.15498,516.10,584.43
16.17369,511.69,584.91
16.19411,514.30,584.27
16.21447,512.07,582.26
16.23481,512.47,583.83
16.25478,512.14,581.52
16.27398,511.86,580.70
16.29462,510.87,581.01
16.31514,512.78,580.42
16.33451,512.62,582.64
16.35564,512.45,582.14
16.37511,512.86,583.16
16.39395,512.44,582.91
16.41432,512.49,580.09
16.43521,512.65,582.77
16.45380,510.28,581.14
16.47539,512.48,577.94
16.49371,511.24,578.76
16.51447,510.88,578.87
16.53424,509.99,581.63
16.55433,512.57,580.40
16.57444,510.17,582.44
16.59372,510.93,581.64
16.61411,511.35,581.63
16.63513,512.63,581.49
16.65507,513.55,580.47
16.67505,513.85,581.42
16.69439,512.89,579.74
16.71422,513.26,581.41
16.73538,511.62,582.10
16.75524,514.39,582.32
16.77388,516.15,580.05
16.79493,515.92,579.74
16.81504,516.21,582.50
16.83384,514.38,582.31
16.85406,515.21,580.67
16.87492,516.94,581.07
16.89540,514.90,581.14
16.91507,515.91,583.63
16.93412,511.42,581.15
16.95535,510.07,583.35
16.97380,512.32,581.56
16.99367,511.26,583.82
17.01509,514.49,584.45
17.03478,515.76,583.37
17.05513,512.17,581.62
17.07364,512.84,579.49
17.09377,514.39,582.01
17.11514,515.46,581.64
17.13462,514.15,579.92
17.15478,516.85,581.31
17.17415,512.58,581.42
17.19507,513.54,579.83
17.21398,515.94,580.76
17.23428,515.27,578.54
17.25535,514.04,577.96
17.27441,517.06,580.67
17.29436,515.95,580.37
17.31409,517.13,581.87
17.33486,516.54,579.92
17.35386,513.91,582.78
17.37388,516.36,582.76
17.39475,515.41,582.76
17.41506,514.34,583.14
17.43405,515.21,581.23
17.45543,513.91,584.11
17.47415,512.61,583.81
17.49555,514.20,583.40
17.51416,513.61,581.31
17.53543,513.38,582.43
17.55484,516.12,583.84
17.57375,515.72,584.81
17.59476,516.53,582.39
17.61500,515.42,586.48
17.63429,515.57,587.08
17.65500,514.22,586.18
17.67495,513.41,584.78
17.69377,516.98,585.88
17.71390,515.02,584.13
17.73440,514.33,580.87
17.75478,515.53,580.46
17.77411,515.08,584.19
17.79418,516.77,583.33
17.81393,514.75,584.38
17.83354,513.53,584.97
17.85360,521.97,587.69
17.87408,543.19,594.79
17.89455,572.66,606.75
17.91542,603.40,615.52
17.93416,632.19,623.34
17.95527,655.74,629.41
17.97351,671.97,631.30
17.99392,682.24,628.43
18.01453,687.84,625.00
18.03419,684.35,616.78
18.05431,680.94,610.57
18.07371,672.05,606.53
18.09424,665.82,600.62
18.11489,652.80,598.28
18.13501,639.73,593.46
18.15545,627.48,595.90
18.17479,614.64,592.66
18.19524,601.06,591.55
18.21415,593.97,590.92
18.23461,583.93,589.53
18.25465,573.32,588.84
18.27453,566.59,589.35
18.29549,560.26,587.65
18.31478,554.52,587.51
18.33501,549.95,589.07
18.35553,542.44,586.12
18.37542,538.50,584.17
18.39420,534.75,585.38
18.41445,532.90,585.41
18.43422,531.57,583.07
18.45393,527.38,582.03
18.47401,527.08,582.31
18.49378,523.13,585.06
18.51524,520.85,582.94
18.53395,520.90,585.00
18.55470,521.32,586.51
18.57384,520.07,585.80
18.59548,520.08,585.43
18.61396,520.96,586.18
18.63507,519.59,588.22
18.65476,517.38,586.90
18.67504,519.56,586.78
18.69473,520.74,586.04
18.71359,517.89,588.11
18.73373,515.66,587.12
18.75411,513.10,584.10
18.77359,503.11,585.20
18.79375,481.46,585.26
18.81504,447.75,575.56
18.83360,417.25,562.36
18.85550,383.98,551.60
18.87419,357.12,542.34
18.89446,336.00,534.55
18.91500,330.77,532.48
18.93511,330.23,532.41
18.95393,337.83,533.30
18.97366,348.34,535.34
18.99418,361.48,539.41
19.01435,374.67,545.85
19.03544,388.28,547.95
19.05399,402.97,553.61
19.07478,414.33,555.93
19.09473,426.26,562.00
19.11368,439.17,565.97
19.13475,450.27,568.54
19.15440,459.89,571.12
19.17351,467.24,572.83
19.19478,475.41,572.46
19.21392,479.88,576.07
19.23497,485.43,578.99
19.25394,490.07,579.97
19.27383,494.23,579.72
19.29415,495.80,580.74
19.31371,498.94,584.70
19.33387,502.92,581.75
19.35381,503.85,582.20
19.37450,507.64,583.94
19.39419,507.80,583.60
19.41455,509.83,584.14
19.43527,509.06,585.57
19.45455,513.21,586.58
19.47581,513.42,585.04
19.49585,516.08,587.95
19.51595,513.78,589.19
19.53560,516.54,588.29
19.55543,515.15,584.56
19.57562,516.41,584.11
19.59577,515.33,584.85
19.61502,518.12,584.68
19.63497,516.93,583.76
19.65470,517.84,587.25
19.67620,515.37,585.34
19.69552,518.03,584.16
19.71550,518.73,584.23
19.73634,518.12,586.00
19.75513,516.65,586.43
19.77581,516.64,586.61
19.79536,517.45,585.60
19.81454,519.49,589.57
19.83766,519.73,587.88
19.85612,516.36,588.80
19.87482,518.02,588.82
19.89536,516.36,587.11
19.91523,520.17,586.96
19.93535,520.46,586.37
19.95586,521.07,588.79
19.97462,518.80,588.91
19.99460,516.99,588.17
20.01650,518.36,590.08
20.03704,519.90,590.67
20.05594,517.73,588.54
20.07559,518.96,590.19
20.09560,518.48,589.03
20.11755,519.93,589.74
20.13721,519.53,591.15
20.15531,522.25,588.48
20.17648,520.37,590.15
20.19543,521.53,589.45
20.21552,522.10,592.27
20.23576,521.84,593.21
20.25545,520.77,592.32
20.27725,520.50,592.75
20.29560,520.04,590.93
20.31617,519.41,591.70
20.33705,522.26,590.29
20.35715,520.04,587.81
20.37657,518.32,589.50
20.39695,520.19,586.90
20.41614,520.43,587.67
20.43616,521.11,586.10
20.45608,521.16,587.89
20.47546,518.62,587.66
20.49652,520.43,586.14
20.51683,518.80,586.27
20.53571,516.72,587.60
20.55688,518.30,588.08
20.57575,518.61,587.62
20.59670,520.33,588.59
20.61678,518.65,588.72
20.63670,519.32,586.84
20.65713,519.40,587.41
20.67652,522.13,587.67
20.69843,521.09,587.06
20.71684,522.32,584.59
20.73653,522.67,587.36
20.75655,520.86,586.58
20.77717,521.99,587.36
20.79701,520.27,586.60
20.81720,523.81,587.57
20.83798,523.86,588.59
20.85652,523.27,586.65
20.87742,524.58,585.70
20.89876,522.72,584.45
20.91831,521.34,582.36
20.93769,521.74,583.48
20.95755,522.42,582.93
20.97750,521.48,579.95
20.99806,518.97,583.90
21.01869,522.86,578.60
21.03899,520.45,577.22
21.05794,521.66,578.75
21.07920,522.23,579.26
21.09848,520.97,576.84
21.11903,518.79,576.17
21.13943,521.40,576.75
21.15889,517.32,579.25
21.17998,519.72,577.55
21.19850,521.79,577.06
21.22015,520.51,579.46
21.23888,521.09,578.09
21.25854,523.40,579.56
21.27988,522.36,578.06
21.30035,522.53,577.97
21.32018,521.95,577.33
21.33877,525.01,580.27
21.35930,522.84,578.96
21.37873,524.76,577.60
21.40044,522.58,577.68
21.41940,523.23,576.37
21.43878,524.75,579.13
21.45964,524.67,575.83
21.47857,525.40,575.00
21.50000,522.02,576.01
21.51895,525.84,576.26
21.53944,525.36,576.94
21.55915,524.42,576.06
21.57863,523.91,576.18
21.60001,525.44,577.51
21.62007,523.67,577.24
21.64019,524.48,577.91
21.65997,524.84,576.99
21.67947,522.75,576.90
21.69963,524.58,576.32
21.71919,523.42,572.86
21.73878,522.32,575.52
21.75945,523.29,573.56
21.77909,524.26,573.46
21.79914,542.82,583.00
21.81857,571.98,592.69
21.83904,603.80,607.50
21.85866,635.73,621.03
21.87886,662.68,629.86
21.89896,686.42,635.72
21.92027,699.96,634.48
21.93832,706.86,627.82
21.95855,706.87,619.59
21.97967,701.23,611.86
22.00010,691.00,604.45
22.01936,682.11,598.81
22.03950,668.20,592.57
22.05911,655.75,589.47
22.07928,642.23,585.47
22.09850,626.22,582.05
22.11869,616.92,579.69
22.13873,602.83,579.89
22.15913,591.87,579.78
22.17945,585.55,577.78
22.19981,576.37,577.89
22.21896,569.09,574.74
22.24020,561.75,573.53
22.25949,556.58,572.25
22.28035,550.12,574.49
22.29964,544.99,575.17
22.31927,545.68,572.68
22.33917,541.17,575.19
22.35899,536.97,575.04
22.37854,536.13,576.00
22.39931,533.03,572.62
22.42027,530.33,572.75
22.44006,532.14,572.88
22.45852,530.61,575.20
22.47881,529.92,573.04
22.49919,529.25,571.72
22.51851,528.10,573.37
22.53979,527.73,573.45
22.55961,525.81,573.52
22.57953,524.96,571.32
22.59892,525.52,573.59
22.61885,525.87,571.32
22.63938,527.78,575.24
22.66033,528.43,574.09
22.67933,515.66,573.46
22.69978,490.97,566.11
22.71886,458.09,558.70
22.73845,421.54,545.09
22.76075,387.48,529.59
22.77985,358.08,520.21
22.79957,334.26,510.47
22.82035,327.28,508.26
22.84118,328.58,506.24
22.86111,334.77,509.31
22.88106,347.07,514.11
22.90088,359.48,516.60
22.92032,374.14,521.12
22.94121,388.37,526.84
22.96041,403.36,534.59
22.98059,417.86,540.48
23.00009,428.93,545.91
23.02050,440.17,550.02
23.04001,450.26,552.74
23.05971,459.35,557.28
23.07969,468.04,558.28
23.10126,476.78,564.29
23.12118,482.26,564.79
23.14023,492.18,568.03
23.15968,496.18,568.08
23.17953,500.96,569.08
23.20015,504.27,569.39
23.21987,504.66,571.51
23.23957,505.28,572.42
23.26092,507.81,571.51
23.28127,508.83,570.74
23.29956,512.25,570.61
23.32041,511.80,573.04
23.34064,514.74,574.20
23.36065,513.97,573.78
23.38068,513.36,571.33
23.40170,513.02,571.62
23.42157,512.63,573.06
23.44065,516.21,575.25
23.46150,514.12,571.86
23.48162,516.56,571.36
23.50058,518.78,572.15
23.52076,518.14,573.13
23.54212,519.52,575.65
23.56077,519.78,574.22
23.58062,521.51,573.59
23.60072,521.76,574.05
23.62036,521.54,573.64
23.64311,523.16,572.62
23.66191,523.40,575.08
23.68146,522.36,575.68
23.70190,520.06,574.54
23.72218,518.81,575.72
23.74199,519.71,575.95
23.76268,515.91,574.03
23.78226,514.43,577.36
23.80391,515.68,573.69
23.82231,517.57,573.39
23.84241,519.21,576.35
23.86273,518.15,576.63
23.88483,516.61,574.51
23.90381,515.32,576.65
23.92522,518.47,576.43
23.94448,519.11,577.41
23.96394,518.40,577.81
23.98427,519.53,576.46
24.00523,520.21,576.47
24.02544,519.38,575.83
24.04466,517.97,576.94
24.06492,517.80,575.37
24.08444,515.75,575.45
24.10437,516.24,577.07
24.12340,518.28,574.51
24.14447,518.33,575.93
24.16457,518.04,576.19
24.18571,520.69,580.23
24.20429,518.16,579.29
24.22534,517.63,577.29
24.24554,520.38,579.96
24.26481,517.92,580.05
24.28574,516.80,577.81
24.30467,516.54,576.80
24.32553,513.66,575.72
24.34571,516.16,577.18
24.36531,513.97,575.19
24.38631,515.26,577.38
24.40596,515.20,575.51
24.42600,516.64,575.36
24.44615,517.39,575.65
24.46540,516.29,579.90
24.48525,516.66,577.25
24.50544,514.85,580.18
24.52466,515.85,576.91
24.54627,518.51,579.16
24.56490,517.09,581.04
24.58621,517.75,576.67
24.60453,518.86,579.09
24.62578,518.11,579.17
24.64544,517.05,578.36
24.66472,515.55,581.58
24.68602,513.87,581.52
24.70562,514.97,581.57
24.72647,516.31,579.27
24.74568,517.60,578.96
24.76475,516.37,578.07
24.78544,516.02,578.79
24.80494,518.14,579.76
24.82591,516.54,578.68
24.84603,517.82,580.39
24.86441,519.24,580.10
24.88571,519.05,577.50
24.90625,515.13,576.99
24.92613,515.85,579.95
24.94457,520.42,575.79
24.96578,519.54,578.07
24.98432,519.38,576.12
25.00493,518.17,576.18
25.02491,516.23,578.34
25.04619,518.96,578.93
25.06566,517.59,579.44
25.08606,519.53,579.03
25.10430,517.95,578.86
25.12509,516.65,576.84
25.14520,515.10,579.31
25.16498,516.41,577.53
25.18450,515.28,580.89
25.20439,516.55,579.14
25.22425,515.79,580.22
25.24488,515.50,577.12
25.26520,514.99,576.30
25.28607,519.86,579.69
25.30524,531.59,584.89
25.32612,555.50,595.51
25.34503,588.69,613.89
25.36583,622.53,631.55
25.38586,652.20,641.08
25.40699,677.16,643.85
25.42590,691.03,640.29
25.44729,699.97,634.83
25.46552,703.21,624.04
25.48685,696.96,618.11
25.50632,689.78,605.24
25.52615,679.71,596.45
25.54721,669.73,588.24
25.56558,656.25,584.02
25.58688,643.69,577.19
25.60614,628.21,577.51
25.62602,615.12,574.88
25.64541,604.79,573.53
25.66737,591.97,570.53
25.68686,585.02,574.02
25.70679,572.87,573.61
25.72573,565.07,572.54
25.74562,557.70,575.92
25.76556,552.16,576.59
25.78686,545.74,577.36
25.80620,543.01,575.25
25.82704,538.07,577.90
25.84693,536.40,576.54
25.86675,532.16,577.30
25.88773,532.26,577.70
25.90686,527.59,578.61
25.92830,528.88,578.99
25.94796,525.73,582.60
25.96734,522.93,578.83
25.98722,521.67,580.19
26.00780,519.28,578.52
26.02680,522.50,580.59
26.04743,521.04,581.93
26.06918,520.08,581.08
26.08808,520.77,580.89
26.10799,519.20,581.67
26.12814,519.74,582.18
26.14785,517.64,585.70
26.16813,512.48,585.96
26.18869,511.33,586.96
26.20747,508.37,586.91
26.22860,505.45,591.71
26.24858,497.45,592.24
26.26786,485.27,593.90
26.28988,466.45,594.67
26.30865,441.18,590.03
26.32947,416.90,581.82
26.34909,391.00,574.90
26.36933,372.08,560.79
26.38870,354.12,553.13
26.41003,340.34,544.05
26.42950,327.53,533.72
26.44844,327.68,532.05
26.46904,338.19,529.09
26.48931,349.63,529.00
26.50914,360.83,535.94
26.52833,374.51,537.32
26.54951,387.99,542.84
26.56861,404.25,546.97
26.58814,418.48,553.64
26.60940,428.82,557.75
26.62897,439.14,559.07
26.64849,446.32,563.17
26.67014,455.46,566.83
26.68953,463.47,568.15
26.70872,473.48,569.75
26.72831,478.54,574.33
26.74986,483.17,573.14
26.76971,486.64,577.19
26.78898,489.72,574.14
26.80855,496.48,575.63
26.83002,497.05,578.33
26.84978,502.68,577.27
26.86989,502.30,579.40
26.88927,505.84,578.28
26.91035,508.85,579.78
26.92861,510.53,579.97
26.94947,513.35,579.84
26.96873,512.15,580.44
26.98939,514.65,581.41
27.00880,513.69,582.84
27.02964,513.17,582.04
27.04862,515.19,583.93
27.06986,512.80,582.90
27.08935,515.60,582.92
27.10916,514.42,582.94
27.12976,515.29,584.55
27.14898,515.99,585.98
27.16888,515.46,587.69
27.18977,515.67,585.99
27.20896,517.46,585.98
27.22904,520.34,588.64
27.24895,518.79,589.86
27.26884,521.50,589.09
27.28894,518.27,588.41
27.30965,518.73,591.28
27.32862,518.60,590.99
27.34956,519.09,593.11
27.36833,515.82,593.84
27.38908,516.12,591.05
27.40999,517.88,590.60
27.42990,516.13,592.52
27.44876,518.98,589.87
27.47009,517.54,590.91
27.48824,518.08,592.34
27.50840,519.36,589.24
27.52923,520.14,590.76
27.54909,520.05,590.38
27.57021,515.17,589.98
27.58976,514.29,587.57
27.61012,515.45,585.44
27.62952,514.20,585.88
27.64857,516.36,585.76
27.66915,514.52,586.24
27.68882,514.72,586.65
27.70876,516.81,584.32
27.73023,516.35,585.11
27.74950,517.57,584.75
27.76874,519.50,586.39
27.78977,517.75,584.07
27.80996,518.86,584.58
27.82888,520.48,583.41
27.84921,516.47,584.42
27.86931,517.48,585.58
27.88816,517.05,583.38
27.90996,517.91,583.24
27.92848,517.20,581.93
27.94888,516.27,582.60
27.96942,516.17,583.16
27.98885,520.47,587.68
28.00945,517.11,588.15
28.02857,515.97,585.05
28.04882,517.94,585.24
28.06901,517.49,584.95
28.09025,518.77,584.65
28.10923,515.12,586.07
28.12848,516.60,587.05
28.14966,516.90,583.47
28.17018,518.79,587.01
28.18879,520.67,584.00
28.20933,521.48,585.32
28.23035,519.91,586.95
28.29049,519.95,584.31
28.29084,521.00,586.71
28.29109,518.77,586.71
28.30856,520.57,589.55
28.33001,519.12,587.97
28.34817,517.22,587.67
28.36840,515.93,586.21
28.38950,514.96,586.27
28.40972,516.60,584.50
28.42989,516.72,581.52
28.44998,515.78,583.56
28.47222,518.43,579.76
28.49019,519.14,580.33
28.51097,522.27,581.80
28.53099,520.45,580.33
28.55092,520.63,580.00
28.57189,521.38,581.42
28.59122,520.26,581.35
28.61141,517.57,580.51
28.63161,515.21,579.45
28.65060,518.55,581.47
28.67171,517.95,581.13
28.69170,516.29,579.01
28.71213,519.93,581.17
28.73192,519.74,578.40
28.75209,518.04,580.09
28.77124,515.95,581.45
28.79048,517.43,579.56
28.81162,515.66,580.14
28.83092,518.29,579.22
28.85100,519.31,579.85
28.87073,519.88,579.45
28.89189,519.19,580.05
28.91047,520.44,578.62
28.93211,519.98,579.79
28.95062,520.41,578.66
28.97213,518.68,579.06
28.99166,521.83,574.06
29.01197,519.11,574.28
29.03092,519.19,575.44
29.05042,519.40,574.25
29.07179,518.48,574.09
29.09202,516.35,575.46
29.11071,516.15,575.17
29.13088,526.90,579.91
29.15081,546.08,592.09
29.17062,574.47,605.65
29.19204,604.68,620.95
29.21097,636.89,634.65
29.23154,665.19,645.27
29.25095,682.75,649.10
29.27052,697.62,648.57
29.29207,708.45,645.01
29.31066,707.23,637.38
29.33212,705.87,628.75
29.35143,697.96,619.17
29.37113,691.34,611.99
29.39004,678.88,604.00
29.41035,665.23,599.59
29.43097,652.57,593.10
29.45219,636.33,590.15
29.47172,623.24,587.51
29.49179,612.36,586.84
29.51113,600.78,583.36
29.53193,587.89,582.96
29.55077,579.52,582.64
29.57101,572.25,581.23
29.59233,565.52,582.48
29.61199,558.06,581.12
29.63154,556.44,579.83
29.65103,552.62,581.59
29.67178,544.56,580.71
29.69114,541.45,578.56
29.71160,538.94,581.04
29.73035,536.92,579.22
29.75199,534.65,581.74
29.77035,534.11,580.73
29.79177,533.38,581.17
29.81112,530.78,580.78
29.83294,529.93,578.01
29.85178,529.97,578.47
29.87176,525.84,579.62
29.89313,526.66,575.20
29.91184,525.37,576.34
29.93272,523.02,576.97
29.95189,526.07,577.72
29.97285,525.38,578.27
29.99195,516.05,576.54
30.01203,504.65,572.64
30.03188,482.93,569.68
30.05282,453.78,560.06
30.07163,422.49,549.85
30.09260,393.82,537.82
30.11185,364.37,525.91
30.13255,343.11,515.04
30.15147,332.51,509.07
30.17171,328.16,504.15
30.19215,336.41,503.20
30.21204,344.91,507.03
30.23236,357.85,513.06
30.25310,372.47,517.22
30.27235,387.61,524.11
30.29403,401.08,529.49
30.31263,414.52,535.19
30.33317,423.21,540.49
30.35383,440.01,545.82
30.37238,451.68,550.86
30.39231,461.20,554.60
30.41369,470.04,557.03
30.43264,475.33,557.86
30.45406,481.38,558.41
30.47326,486.47,561.95
30.49339,494.78,562.71
30.51380,498.05,562.68
30.53270,502.66,562.34
30.55398,504.50,564.06
30.57229,508.41,565.94
30.59391,509.31,565.88
30.61307,510.05,567.22
30.63404,512.50,565.90
30.65395,514.40,565.84
30.67323,513.63,568.72
30.69256,516.12,568.43
30.71371,514.75,566.27
30.73268,519.61,566.36
30.75352,517.87,568.70
30.77392,518.78,568.54
30.79306,520.53,566.12
30.81249,518.05,568.18
30.83263,519.66,569.00
30.85249,519.29,567.92
30.87224,519.44,569.43
30.89374,518.16,569.54
30.91346,521.40,566.32
30.93293,521.91,567.85
30.95218,520.15,568.90
30.97292,519.49,570.32
30.99273,522.55,569.03
31.01231,519.07,569.70
31.03267,520.29,570.55
31.05253,522.48,572.72
31.07332,523.03,572.40
31.09306,521.13,574.12
31.11352,523.96,571.71
31.13312,521.46,570.65
31.15281,523.68,573.46
31.17335,519.44,571.90
31.19325,519.22,573.12
31.21277,517.99,573.00
31.23363,522.30,575.24
31.25408,519.48,572.08
31.27206,522.90,571.79
31.29232,520.61,572.60
31.31238,520.71,572.03
31.33234,519.26,571.57
31.35364,523.70,571.88
31.37338,523.52,571.69
31.39322,522.33,571.07
31.41239,520.43,571.57
31.43288,523.27,572.68
31.45320,520.88,574.17
31.47402,524.13,572.63
31.49244,521.32,573.07
31.51254,525.31,572.71
31.53277,522.34,574.10
31.55353,521.02,573.90
31.57304,523.16,572.35
31.59302,524.18,573.20
31.61308,523.02,574.73
31.63398,523.76,576.56
31.65362,526.24,574.12
31.67247,523.71,573.23
31.69247,524.16,575.60
31.71299,524.74,575.18
31.73375,522.89,574.44
31.75265,520.28,574.00
31.77368,522.81,573.59
31.79419,521.13,573.45
31.81230,521.75,574.55
31.83325,519.42,574.41
31.85328,520.31,572.89
31.87330,519.55,569.39
31.89420,520.85,571.56
31.91404,518.89,571.13
31.93236,521.20,569.19
31.95222,517.85,571.49
31.97413,519.57,571.84
31.99281,522.45,570.32
32.01334,520.32,572.65
32.03373,520.62,569.84
32.05407,518.61,571.65
32.07301,522.24,572.53
32.09365,518.49,569.35
32.11279,518.16,569.59
32.13359,521.28,570.21
32.15381,519.28,571.75
32.17232,520.12,572.66
32.19416,518.97,572.56
32.21231,520.22,570.97
32.23360,520.71,573.80
32.25322,519.97,573.88
32.27232,521.71,571.63
32.29311,519.65,572.53
32.31337,518.68,574.36
32.33241,518.36,575.30
32.35322,517.62,575.54
32.37399,518.80,576.34
32.39245,518.99,575.44
32.41293,521.89,574.58
32.43262,522.02,575.88
32.45384,523.36,577.75
32.47356,519.89,574.92
32.49385,522.80,572.90
32.51276,519.65,574.18
32.53343,520.52,576.27
32.55404,523.48,575.19
32.57360,523.81,574.46
32.59293,522.46,573.68
32.61286,523.58,576.31
32.63246,524.98,573.05
32.65357,525.71,574.68
32.67289,523.14,576.29
32.69401,532.83,581.79
32.71221,552.59,593.19
32.73344,581.05,610.87
32.75244,609.61,622.84
32.77301,641.23,635.27
32.79378,665.60,645.50
32.81337,685.21,647.88
32.83359,700.21,642.13
32.85289,703.01,636.94
32.87309,702.85,629.90
32.89234,696.94,618.83
32.91303,686.20,609.16
32.93341,674.58,598.36
32.95319,662.52,592.77
32.97399,647.62,586.34
32.99251,634.65,579.94
33.01220,622.21,576.31
33.03294,610.85,575.09
33.05373,600.91,574.98
33.07402,590.51,571.01
33.09233,580.67,568.36
33.11290,568.96,570.82
33.13346,564.87,571.41
33.15238,557.55,568.84
33.17360,552.97,571.27
33.19376,546.48,570.33
33.21248,542.14,571.40
33.23244,540.77,571.78
33.25313,535.72,571.40
33.27201,533.42,573.76
33.29435,531.06,575.63
33.31342,532.06,574.09
33.33268,527.64,576.32
33.35346,527.72,575.53
33.37388,526.48,576.64
33.39412,527.60,573.62
33.41221,528.26,576.98
33.43337,526.03,576.09
33.45294,522.59,577.01
33.47396,524.27,575.47
33.49375,522.98,575.48
33.51279,520.84,574.68
33.53297,522.78,572.42
33.55375,524.69,571.52
33.57218,523.74,572.31
33.59362,524.47,573.39
33.61359,523.50,573.15
33.63260,522.84,575.90
33.65331,522.06,575.25
33.67280,522.07,577.58
33.69373,522.38,575.84
33.71379,518.63,574.09
33.73407,519.25,572.28
33.75354,517.52,570.18
33.77296,519.45,569.24
33.79391,517.11,568.96
33.81379,516.59,568.00
33.83373,516.84,567.81
33.85420,518.25,566.73
33.87281,518.35,564.27
33.89499,512.95,565.55
33.91517,499.01,561.98
33.93482,476.95,557.46
33.95383,450.09,552.38
33.97394,427.50,547.05
33.99311,399.25,539.62
34.01491,379.03,535.04
34.03394,359.16,527.00
34.05472,345.23,522.44
34.07340,340.63,522.53
34.09388,342.77,525.86
34.11454,348.80,524.65
34.13501,358.12,530.91
34.15497,372.19,534.34
34.17487,386.43,536.77
34.19511,397.04,543.42
34.21398,411.17,545.38
34.23390,425.37,551.29
34.25372,434.07,552.02
34.27355,445.21,554.78
34.29353,454.51,558.66
34.31497,465.06,561.14
34.33443,472.83,567.10
34.35485,476.86,566.11
34.37323,486.09,567.93
34.39528,490.41,570.55
34.41377,495.25,570.32
34.43414,495.37,574.22
34.45370,501.83,576.54
34.47472,504.48,575.59
34.49587,502.31,576.88
34.51512,504.68,578.79
34.53608,507.11,579.44
34.55472,507.68,576.50
34.57615,511.49,579.78
34.59469,512.97,576.17
34.61465,515.32,578.09
34.63507,513.46,580.51
34.65563,515.59,578.78
34.67490,516.14,576.40
34.69419,515.07,577.51
34.71580,515.87,577.59
34.73543,517.49,577.48
34.75460,515.94,576.46
34.77459,514.52,577.22
34.79438,514.56,578.54
34.81600,515.01,578.06
34.83594,514.32,579.96
34.85549,513.43,578.13
34.87518,515.50,581.32
34.89613,517.73,580.91
34.91475,522.66,582.76
34.93432,525.29,582.77
34.95422,527.85,581.36
34.97531,529.99,581.97
34.99428,527.74,579.68
35.01432,530.85,580.62
35.03456,529.29,580.09
35.05475,527.84,581.86
35.07407,524.12,578.82
35.09586,524.81,579.89
35.11575,522.95,578.38
35.13588,522.24,581.35
35.15624,519.48,577.99
35.17613,521.13,579.81
35.19800,517.92,578.58
35.21664,518.73,580.63
35.23699,520.48,579.24
35.25763,518.18,578.08
35.27779,516.62,580.90
35.29694,517.17,581.00
35.31685,516.48,582.47
35.33691,516.70,582.78
35.35673,515.81,583.47
35.37667,515.63,584.15
35.39626,516.28,583.30
35.41615,515.65,582.36
35.43647,513.82,579.30
35.45721,514.28,579.45
35.47693,514.36,579.69
35.49785,513.69,580.14
35.51680,514.49,581.98
35.53648,513.83,581.08
35.55701,511.24,582.12
35.57750,512.57,583.41
35.59783,512.65,584.53
35.61810,513.64,583.66
35.63782,513.25,582.04
35.65723,512.85,580.87
35.67726,514.84,581.19
35.69842,516.22,580.74
35.71800,513.85,581.16
35.73800,512.44,580.93
35.75800,514.22,580.31
35.77881,512.71,582.58
35.79837,512.85,579.38
35.81847,512.19,580.46
35.83744,513.82,581.17
35.85839,511.87,579.62
35.87902,513.47,582.40
35.89842,512.59,582.81
35.91814,511.88,580.25
35.93708,511.90,582.71
35.95755,511.54,580.34
35.97839,513.03,580.14
35.99891,514.10,580.73
36.01877,513.22,582.40
36.03854,511.79,581.08
36.05864,514.09,581.24
36.07805,511.94,580.16
36.09832,511.64,580.85
36.11776,514.41,581.99
36.13861,513.86,582.12
36.15825,512.78,580.82
36.17860,511.12,581.48
36.19841,511.62,581.28
36.21762,512.09,581.66
36.23836,512.54,581.25
36.25784,511.52,582.12
36.27857,511.07,580.27
36.29776,509.93,579.69
36.31794,513.44,582.76
36.33895,510.45,582.56
36.35856,511.58,583.12
36.37790,512.73,581.17
36.39713,511.57,582.27
36.41749,510.80,582.63
36.43813,524.74,586.47
36.45862,551.61,597.36
36.47843,578.29,610.76
36.49895,614.31,622.71
36.51825,642.46,628.91
36.53900,668.15,629.02
36.55786,679.29,629.05
36.57847,689.34,625.91
36.59861,689.22,621.36
36.61822,687.90,615.20
36.63851,677.79,612.48
36.65846,669.98,607.37
36.67858,657.56,603.46
36.69778,647.98,600.71
36.71769,635.26,599.14
36.73731,621.08,596.92
36.75753,609.38,595.31
36.77761,598.09,591.93
36.79762,586.66,587.96
36.81806,576.79,587.47
36.83832,570.99,587.40
36.85772,562.91,584.80
36.87775,553.99,588.05
36.89852,549.10,586.88
36.91834,541.95,584.05
36.93761,537.95,585.23
36.95761,534.97,583.76
36.97852,531.20,585.07
36.99813,530.20,584.63
37.01715,530.33,586.20
37.03826,526.60,585.38
37.05827,526.92,584.23
37.07784,525.79,585.62
37.09832,521.87,585.87
37.11806,522.84,584.71
37.13732,521.48,585.59
37.15800,520.78,588.17
37.17794,517.78,587.29
37.19723,517.27,584.97
37.21758,516.96,585.69
37.23821,517.48,587.84
37.25694,509.98,590.42
37.27835,500.68,594.55
37.29802,483.50,605.45
37.31777,467.77,615.75
37.33746,454.60,621.29
37.35806,434.20,620.27
37.37722,413.17,609.52
37.39830,391.50,595.17
37.42017,369.22,573.41
37.43957,351.38,549.66
37.46068,337.71,534.47
37.48077,338.74,523.60
37.49931,344.29,516.62
37.52003,352.82,514.12
37.53916,363.45,511.16
37.56074,374.12,516.05
37.58005,390.24,521.95
37.59951,402.77,525.40
37.61948,412.90,531.69
37.64030,427.88,533.34
37.65946,439.70,540.73
37.68000,447.52,543.88
37.70003,457.55,547.61
37.71899,464.35,551.80
37.73982,473.34,554.77
37.76067,480.05,562.29
37.78028,483.00,564.18
37.79964,490.15,570.19
37.81957,496.15,571.12
37.83974,498.17,570.91
37.86001,499.89,572.15
37.87912,500.32,574.68
37.89923,502.53,576.25
37.92111,504.63,579.08
37.94078,508.02,578.51
37.95980,510.81,580.24
37.97993,509.59,581.43
38.00023,513.67,581.08
38.01948,513.92,582.38
38.04040,513.18,582.91
38.05997,515.28,585.06
38.08053,516.16,585.84
38.09948,512.80,584.81
38.11988,513.57,585.76
38.14018,516.96,584.90
38.16045,512.91,586.23
38.18042,516.52,586.12
38.20022,513.61,585.35
38.21903,515.03,586.76
38.23977,518.15,586.25
38.25907,518.36,586.88
38.28045,519.07,588.38
38.30088,517.11,587.21
38.31991,520.10,586.08
38.34082,519.62,588.64
38.36064,517.92,584.88
38.37948,520.34,585.44
38.40025,520.08,586.94
38.41976,517.61,586.10
38.43962,517.53,587.28
38.46070,516.35,586.63
38.48072,519.74,587.29
38.50092,519.02,587.70
38.52000,517.74,585.44
38.53974,516.82,589.02
38.55947,518.24,585.79
38.57982,517.95,586.43
38.59950,516.13,588.45
38.62009,519.29,586.29
38.64077,516.69,585.25
38.66020,519.42,589.67
38.67981,517.71,590.82
38.70052,516.19,591.47
38.71954,516.66,590.63
38.74004,517.96,591.18
38.75929,514.44,587.96
38.77891,516.39,586.27
38.79935,517.51,586.28
38.81943,518.14,588.28
38.83970,515.54,588.60
38.86077,516.45,585.15
38.88014,517.75,587.29
38.89997,519.15,585.89
38.92067,518.27,588.53
38.93894,519.43,587.98
38.96048,519.33,587.22
38.97937,519.84,586.90
39.00024,517.92,586.01
39.02000,518.59,583.19
39.04009,518.33,583.94
39.06011,519.21,583.31
39.08005,520.04,586.15
39.09967,520.43,583.90
39.11906,517.10,584.47
39.13979,521.26,582.34
39.16031,518.79,583.11
39.17958,518.75,584.26
39.19960,521.27,585.16
39.21941,520.62,585.05
39.24084,519.08,584.86
39.26009,516.64,587.48
39.27947,517.10,586.18
39.30016,517.22,585.42
39.31992,520.31,586.85
39.34026,519.80,586.83
39.35939,521.02,585.90
39.37932,520.56,585.50
39.39945,521.46,586.44
39.42100,519.05,584.99
39.44061,519.33,584.06
39.46068,519.38,584.88
39.48097,518.02,586.74
39.50196,519.08,583.08
39.52093,518.85,581.67
39.54183,517.08,581.82
39.56090,517.22,580.61
39.58100,517.03,581.17
39.60164,518.42,581.77
39.62052,519.50,581.76
39.64063,522.09,583.72
39.66207,519.97,582.96
39.68082,520.05,584.82
39.70089,518.78,585.19
39.72059,516.99,582.41
39.74101,517.43,582.58
39.76058,518.08,583.39
39.78003,519.05,581.98
39.80024,520.40,583.60
39.82000,517.22,585.71
39.84084,518.21,584.68
39.86286,519.14,584.65
39.88137,517.23,584.06
39.90495,519.94,582.36
39.92135,519.53,582.05
39.94182,520.93,581.13
39.96222,522.92,581.87
39.98188,534.96,588.16
40.00117,558.41,598.27
40.02228,590.63,609.91
40.04145,622.02,623.45
40.06298,654.35,631.56
40.08102,678.64,639.11
40.10276,696.48,636.60
40.12237,703.54,635.61
40.14118,706.26,630.51
40.16131,702.23,624.81
40.18206,694.55,616.84
40.20352,686.47,610.43
40.22302,670.44,600.82
40.24275,661.21,597.14
40.26380,647.41,590.73
40.28188,634.46,586.22
40.30377,622.12,582.14
40.32305,610.63,578.95
40.34379,601.32,579.00
40.36388,592.53,579.96
40.38230,581.76,580.36
40.40258,572.78,580.53
40.42236,567.36,577.34
40.44238,560.58,576.20
40.46213,557.89,578.48
40.48301,553.15,578.78
40.50203,546.85,578.54
40.52204,543.20,579.39
40.54224,542.21,578.43
40.56455,540.39,576.68
40.58410,536.20,577.95
40.60485,535.18,578.77
40.62403,534.37,577.28
40.64426,530.14,574.62
40.66503,527.76,577.37
40.68411,529.54,578.13
40.70495,527.80,578.49
40.72362,527.69,578.87
40.74469,527.69,576.68
40.76454,524.05,578.30
40.78438,527.37,575.89
40.80457,525.38,574.80
40.82367,523.10,575.79
40.84475,525.05,575.47
40.86394,525.61,576.86
40.88489,520.04,581.52
40.90485,515.27,587.58
40.92426,505.28,597.33
40.94347,485.69,604.72
40.96409,459.34,603.88
40.98340,431.72,587.62
41.00324,405.11,568.61
41.02387,377.00,548.07
41.04412,351.61,530.43
41.06287,336.33,514.36
41.08488,335.08,507.07
41.10382,339.12,504.80
41.12351,347.62,499.90
41.14478,358.58,501.78
41.16384,371.52,501.55
41.18370,387.34,505.96
41.20490,398.92,507.88
41.22489,411.80,514.32
41.24362,426.04,521.27
41.26381,436.90,527.15
41.28328,449.63,530.83
41.30391,458.78,534.81
41.32425,465.86,541.34
41.34395,475.98,543.44
41.36375,480.14,548.49
41.38412,486.28,550.84
41.40510,493.69,553.76
41.42329,493.72,552.41
41.44319,497.99,556.78
41.46386,498.67,559.92
41.48341,502.99,560.70
41.50380,504.61,564.13
41.52463,508.19,565.12
41.54427,510.01,563.21
41.56444,512.34,564.69
41.58431,510.50,565.19
41.60496,513.63,568.15
41.62303,512.95,568.08
41.64367,516.09,567.41
41.66383,517.39,568.51
41.68311,518.89,572.24
41.70316,517.41,574.03
41.72342,516.82,573.39
41.74407,516.83,574.23
41.76476,516.08,573.65
41.78332,519.54,573.77
41.80469,519.78,572.95
41.82317,519.12,571.40
41.84339,521.59,571.26
41.86320,520.73,572.00
41.88429,520.21,572.98
41.90329,523.37,572.91
41.92291,520.24,574.33
41.94349,518.33,572.90
41.96312,521.23,572.51
41.98317,518.34,572.37
42.00390,517.75,572.48
42.02433,518.59,571.85
42.04381,516.45,575.01
42.06332,517.91,574.70
42.08495,516.64,571.49
42.10388,520.06,572.15
42.12459,518.69,571.92
42.14391,522.15,575.57
42.16476,522.73,573.37
42.18323,521.31,572.46
42.20346,521.35,573.45
42.22434,522.85,572.19
42.24364,521.48,572.65
42.26325,519.30,572.03
42.28410,519.15,572.93
42.30315,521.92,572.68
42.32347,519.85,574.67
42.34364,521.22,573.14
42.36463,521.26,575.75
42.38371,517.68,574.46
42.40450,521.19,575.47
42.42404,520.89,576.10
42.44404,521.48,573.96
42.46335,519.24,575.26
42.48360,519.57,574.75
42.50429,521.66,571.97
42.52308,522.27,572.29
42.54372,521.40,573.13
42.56414,520.62,571.82
42.58453,523.15,573.10
42.60387,520.80,571.29
42.62422,521.53,570.15
42.64381,523.39,570.01
42.66468,522.25,572.61
42.68424,522.52,572.27
42.70360,521.65,571.17
42.72356,520.68,570.77
42.74478,521.22,570.20
42.76304,521.30,572.60
42.78350,519.45,573.84
42.80394,520.86,574.04
42.82438,523.25,572.26
42.84326,519.84,570.73
42.86465,520.26,571.39
42.88499,522.53,572.45
42.90477,518.60,573.35
42.92297,520.76,575.30
42.94436,521.12,573.44
42.96376,519.38,576.53
42.98504,520.44,575.68
43.00306,519.08,574.38
43.02413,521.74,573.59
43.04347,521.43,575.36
43.06375,522.03,572.77
43.08306,522.12,575.90
43.10287,520.57,575.48
43.12313,520.65,571.79
43.14381,520.48,573.76
43.16435,520.20,571.36
43.18419,521.35,572.52
43.20427,523.74,572.08
43.22463,522.17,574.01
43.24497,521.85,573.61
43.26333,522.63,575.54
43.28474,523.81,573.26
43.30303,522.05,572.47
43.32400,523.20,572.06
43.34400,523.46,572.99
43.36430,522.70,572.66
43.38349,521.34,574.31
43.40363,520.44,570.28
43.42479,522.52,572.52
43.44477,521.35,571.58
43.46492,524.69,571.02
43.48489,522.90,570.01
43.50307,525.45,573.23
43.52372,523.01,572.89
43.54423,523.36,571.36
43.56412,521.10,572.82
43.58414,521.74,572.01
43.60379,521.37,574.20
43.62316,521.40,575.10
43.64451,519.90,574.12
43.66377,520.57,573.25
43.68404,519.02,575.54
43.70453,520.02,576.03
43.72321,520.78,572.32
43.74339,522.12,571.92
43.76470,526.24,572.65
43.78504,536.62,579.85
43.80472,559.76,588.52
43.82370,588.99,603.34
43.84427,616.57,617.70
43.86314,640.48,622.90
43.88300,659.70,627.95
43.90274,673.97,628.36
43.92296,684.07,630.68
43.94335,687.58,623.82
43.96378,685.35,617.68
43.98351,679.74,610.27
44.00389,672.33,604.55
44.02370,664.52,598.16
44.04325,653.98,594.88
44.06321,642.62,588.71
44.08386,632.02,584.44
44.10470,619.50,582.36
44.12321,608.94,581.95
44.14410,602.25,582.15
44.16352,591.32,580.90
44.18334,583.99,577.38
44.20331,575.54,579.78
44.22301,566.85,575.93
44.24321,559.80,576.72
44.26418,553.87,577.66
44.28357,548.41,577.26
44.30381,545.11,577.77
44.32358,543.55,574.19
44.34344,537.97,575.25
44.36305,537.62,577.52
44.38487,535.48,576.03
44.40426,531.84,575.81
44.42380,531.91,573.16
44.44295,530.76,574.55
44.46359,531.26,574.00
44.48377,529.98,576.13
44.50372,527.90,575.05
44.52468,528.23,572.99
44.54487,524.89,575.37
44.56310,525.59,577.17
44.58376,524.07,574.39
44.60474,525.52,576.44
44.62353,526.86,573.63
44.64321,525.30,573.68
44.66463,525.46,574.74
44.68271,523.18,575.34
44.70441,521.56,575.93
44.72328,524.36,575.59
44.74424,523.91,575.02
44.76471,522.97,576.64
44.78433,520.71,574.64
44.80349,518.85,574.81
44.82308,513.75,572.76
44.84302,502.61,571.75
44.86398,487.41,569.38
44.88294,462.15,566.57
44.90481,439.41,559.32
44.92334,411.62,554.54
44.94436,390.51,545.44
44.96321,370.66,536.69
44.98432,355.48,532.39
45.00480,343.41,528.36
45.02462,341.64,523.88
45.04468,347.92,525.69
45.06450,357.70,529.32
45.08394,368.58,529.96
45.10465,381.69,535.60
45.12411,395.61,539.45
45.14357,408.41,544.52
45.16484,421.86,549.17
45.18325,433.93,554.16
45.20321,446.54,554.58
45.22461,457.58,556.71
45.24301,464.60,560.80
45.26313,474.40,561.16
45.28486,481.84,560.20
45.30453,484.75,565.00
45.32484,489.56,565.64
45.34324,494.67,567.94
45.36386,496.50,567.61
45.38417,499.00,566.34
45.40494,502.74,569.41
45.42290,505.04,571.07
45.44369,510.59,569.25
45.46466,512.04,569.88
45.48381,512.92,570.13
45.50358,511.68,573.19
45.52368,514.16,571.77
45.54302,513.59,575.47
45.56348,516.53,575.39
45.58326,514.40,575.50
45.60277,515.89,573.25
45.62414,515.96,576.73
45.64484,517.15,573.07
45.66343,517.18,573.06
45.68327,518.79,576.55
45.70326,518.37,572.24
45.72423,517.76,575.55
45.74315,517.98,572.79
45.76301,520.35,574.71
45.78340,517.27,573.41
45.80346,517.77,576.13
45.82483,516.49,574.59
45.84459,516.92,573.51
45.86310,516.08,574.66
45.88283,520.84,575.92
45.90368,518.07,573.51
45.92307,519.11,572.52
45.94435,520.04,574.55
45.96330,518.91,571.15
45.98311,519.29,574.31
46.00352,521.94,571.97
46.02346,519.83,571.54
46.04452,520.92,571.18
46.06410,519.56,571.45
46.08413,519.85,569.72
46.10364,520.85,573.12
46.12310,518.74,570.99
46.14385,521.01,571.07
46.16358,519.51,569.34
46.18374,518.93,570.79
46.20308,517.51,570.74
46.22365,521.51,571.04
46.24377,518.23,570.24
46.26472,518.90,568.33
46.28295,519.82,568.30
46.30396,520.67,571.01
46.32386,522.10,571.75
46.34427,520.61,570.02
46.36321,519.94,574.37
46.38287,520.17,574.09
46.40452,518.10,571.78
46.42343,517.63,575.15
46.44315,517.61,572.24
46.46309,517.75,573.21
46.48461,515.35,574.19
46.50281,517.75,572.26
46.52427,519.27,573.05
46.54441,520.32,579.19
46.56410,520.19,585.73
46.58415,524.66,599.81
46.60399,530.75,612.32
46.62438,535.62,628.12
46.64413,541.96,641.97
46.66420,549.35,660.12
46.68349,549.56,668.58
46.70463,554.32,681.89
46.72476,554.61,692.39
46.74472,557.67,693.42
46.76347,555.05,698.23
46.78420,556.63,701.61
46.80461,554.59,700.58
46.82379,558.89,699.10
46.84365,555.31,696.73
46.86431,557.78,690.08
46.88352,555.28,685.89
46.90494,553.04,677.36
46.92413,553.19,670.04
46.94362,549.21,666.13
46.96310,549.81,659.12
46.98329,545.54,654.61
47.00522,547.58,648.99
47.02543,547.76,642.89
47.04437,547.92,634.80
47.06417,546.67,631.33
47.08515,551.89,628.01
47.10462,553.25,622.98
47.12414,551.59,619.11
47.14537,550.22,618.97
47.16411,547.46,615.54
47.18445,541.18,614.79
47.20435,536.88,611.26
47.22427,528.10,611.54
