Program Time [s],data 0,data 1
3.46414,509.03,529.03
3.46417,511.62,531.62
3.4642,511.3,531.9
3.46423,509.04,530.92
3.46426,509.43,528.74
3.46429,510.74,524.19
3.46431,510,519.95
3.46434,509.4,515.56
4.9786,510.6,518.2
5.00307,510.68,521.36
5.02362,511.34,525.09
5.04413,510.68,524.47
5.06456,509.54,522.78
5.08518,508.83,521.42
5.10947,508.27,517.74
5.13015,509.81,515.79
5.15059,508.65,511.03
5.17108,509.52,511.03
5.1916,511.02,511.82
5.21208,512.61,510.86
5.23668,510.49,511.68
5.25701,511.59,516.15
5.2776,511.07,518.52
5.29807,511.66,523.41
5.3185,514.73,527.13
5.34303,513.78,531.91
5.36347,511.83,532.72
5.38402,511.86,531.18
5.40448,510.09,527.74
5.42501,510.47,523.79
5.44543,509.78,519.24
5.47003,507.82,516.59
5.49046,507.26,512.27
5.51095,507.01,508.22
5.53143,508.8,506.97
5.55194,511.84,505.58
5.57639,512.47,505.46
5.59699,511.78,507.77
5.61745,511.82,513.22
5.63799,514.46,517.77
5.65839,523.37,519.62
5.67895,530.29,524.49
5.70346,532.84,526.4
5.72395,534.07,527.72
5.74443,533.05,527.17
5.76498,534.84,528.34
5.78541,533.67,524.87
5.80589,532.74,522.3
5.83043,529.59,519.44
5.85093,525.47,515.15
5.87142,520.98,513.92
5.89191,520.78,512.14
5.91237,520.63,512.31
5.93696,518.3,511.85
5.95755,517.64,514.48
5.97796,516.71,518.18
5.99844,516.17,523.15
6.01891,515.94,528.92
6.03934,515.75,531.33
6.06391,514.4,532.87
6.08438,513.32,534.89
6.10494,510.66,533.31
6.12537,509.72,532.05
6.14594,508.18,528.64
6.17033,507.74,523.51
6.19091,506.79,519.61
6.21144,508.04,515.69
6.23194,507.03,510.95
6.25233,506.62,511.56
6.27285,508.9,512.05
6.29733,509.12,513.04
6.31793,510.3,516.83
6.33835,510.24,520.66
6.35891,509.39,525.73
6.37944,508.51,529.59
6.40383,509.01,533.67
6.42455,507.61,535.73
6.44496,506.89,534.99
6.46534,508.71,534.59
6.48588,508.37,532.87
6.50644,507.69,527.3
6.5308,506.35,521.64
6.55141,505.88,517.31
6.57188,505.31,513.65
6.59232,506.45,510.92
6.61282,505.16,510.94
6.63729,506.73,510.95
6.65794,506.38,514.96
6.67847,506.1,520.17
6.69896,506.08,527.33
6.7193,507.87,526.87
6.7399,506.89,517.89
6.76444,506.51,503.91
6.78499,507.41,483.13
6.80547,507.73,459.31
6.82587,506.98,437.44
6.84639,503.99,418.76
6.86673,502.79,406.6
6.89147,501.63,402.08
6.91198,499.91,401.67
6.93245,500.92,404.93
6.95293,500.54,412.35
6.97345,503.23,420.88
6.99786,504.99,428.7
7.01821,507.79,452.76
7.03873,509.03,497.61
7.05926,512.42,551.69
7.07968,515.54,597.95
7.10015,518.63,622.76
7.12477,520.91,635.41
7.14531,517.92,636.93
7.16586,516.74,632.34
7.18644,516.59,624.67
7.20674,517.07,611.94
7.23123,515.86,598.15
7.2517,512.89,584.52
7.27231,510.51,572.22
7.29272,510.41,560.97
7.31329,512.73,552.58
7.33367,512.38,544.66
7.35837,507.7,539.73
7.37888,504.56,536.58
7.39948,506.25,537.07
7.41968,506.8,536.85
7.4403,506.24,537.48
7.46469,507.59,537.19
7.48528,507.87,537.75
7.5058,510.9,536.2
7.52629,510.92,534.76
7.54665,510.94,531.81
7.56716,507.95,528.65
7.59161,507.16,524.72
7.61231,507.33,519.57
7.63277,506.06,514.86
7.65322,505.05,511.09
7.6737,505.84,510.27
7.69806,506.07,509.22
7.71867,507.26,510.57
7.73926,508.61,514.26
7.75978,508.28,516.41
7.78012,508.63,520.53
7.80077,507.3,525.42
7.8253,509.24,529.54
7.84577,508.19,530.83
7.86609,507.15,531.06
7.88679,506.92,532.05
7.90721,507.74,527.84
7.93162,509.19,525.27
7.9522,507.95,521.62
7.97265,505.96,517.49
7.99316,505.17,514.4
8.01358,504.34,512.12
8.03416,504.27,510.89
8.05856,506.22,511.11
8.07925,505.37,512.29
8.09965,504.1,514.83
8.12018,504.68,517.67
8.14067,504.14,523.13
8.16105,503.11,525.71
8.18553,503.89,527.97
8.20603,505.11,530.17
8.22661,504.09,529.34
8.24708,503.27,528.27
8.26752,504.02,525.62
8.29202,504.81,523.09
8.31251,504.45,518.87
8.33311,503.76,515.5
8.35355,502.81,512.4
8.37406,501.65,508.72
8.39445,501.32,507.78
8.41901,500.85,508.82
8.43951,501.68,511.86
8.4601,502.35,514.49
8.48046,504.28,518.79
8.50109,504.02,521.83
8.52553,505.22,525.86
8.54608,505.17,528.09
8.56645,505.14,529.47
8.58695,504.51,528.98
8.60744,506.61,528.38
8.62794,506.89,526.31
8.65246,507.31,524.05
8.67302,508.05,519.64
8.69362,507.84,514.91
8.71409,508.07,512.53
8.73445,506.66,510.22
8.75896,504.13,509.18
8.77946,505.9,509.54
8.79996,505.12,511.03
8.82045,506.3,513.63
8.84087,508.64,518.7
8.86147,507.91,523.56
8.88593,507.93,526.05
8.90642,508.74,528.44
8.92691,510.19,529.15
8.94748,510.76,530.12
8.96786,506.4,528.9
8.99242,501.12,525.92
9.01287,496.7,523.93
9.0334,495.56,520.75
9.05392,494.05,516.2
9.07444,494.64,511.96
9.09501,494.51,508.97
9.11935,495.61,509.17
9.13998,495.09,508.54
9.16036,495.67,510.63
9.18096,496.54,513.3
9.20137,498.83,516.04
9.22186,501.66,520.84
9.24634,503.13,524.67
9.26689,503.1,529.33
9.28738,504.28,531.27
9.30786,504.43,531.41
9.32843,506.14,530.33
9.3528,506.11,529.07
9.37332,506.49,527.05
9.39394,507.19,524.84
9.41436,507.55,522.47
9.43479,506.84,521.38
9.45545,508.47,522.7
9.47978,507.78,524.96
9.50045,508.62,528.37
9.52081,511.1,528.5
9.54142,515.28,517.4
9.56186,523.22,499.72
9.58627,530.38,479.37
9.60689,536.1,461.1
9.62729,537.68,446.48
9.64793,539.55,435.78
9.66829,539.64,430.23
9.68873,536.51,426.98
9.71325,534.61,427.59
9.73387,530.49,429.87
9.75429,527.59,432.69
9.77477,525.87,438.36
9.79532,522.3,443.88
9.8197,523.64,449.51
9.84037,520.71,456.21
9.86111,517.57,471.96
9.88129,518.85,510.17
9.90171,518.48,557.54
9.92231,518.19,597.83
9.94669,517.35,621.46
9.96725,517.28,630.57
9.98776,516.62,632.06
10.0083,516.7,626.25
10.0288,515.36,617.2
10.0533,514.29,605.56
10.0738,513.43,593.65
10.0944,510.74,581.52
10.1147,511.6,568.41
10.1354,511.68,556.93
10.1557,512.34,547.34
10.1802,513.27,538.68
10.2008,512.82,534.34
10.2213,512.65,532.07
10.2417,511.32,529.86
10.2622,512.66,530.69
10.2827,512.13,532.75
10.3073,510.5,535.2
10.3277,510.6,536.96
10.3483,509.48,537.77
10.3686,508.18,537.81
10.3893,506.35,537.65
10.4136,507.48,533.92
10.4342,507.38,531.34
10.4547,509.11,526.27
10.4752,509.28,520.02
10.4957,507.23,515.21
10.5162,511.18,514.17
10.5406,515.15,514.14
10.5612,517.92,515.11
10.5817,520.73,517.49
10.6021,521.59,520.59
10.6226,520.47,523.87
10.6471,520.58,527.7
10.6676,519.06,532.56
10.6881,517.45,534.25
10.7086,516.56,534.6
10.7293,517.25,533.48
10.7495,515.4,532.18
10.7741,516.32,528.35
10.7946,522.65,526.28
10.8151,525.52,522.82
10.8355,527.22,521.46
10.8561,527.78,518.57
10.8805,527.42,514.65
10.9011,526.54,513.32
10.9216,526.03,512.46
10.9421,524.02,513.57
10.9625,523.22,516.65
10.983,521.17,519.32
11.0076,518.34,524.06
11.0281,517.07,527.25
11.0487,514.86,530.4
11.0691,512.49,530.92
11.0897,509.79,532.33
11.1145,508.23,531.47
11.1345,507.78,528.97
11.1551,507.43,525.18
11.1756,507.14,521.54
11.196,507.91,517.23
11.2165,507.33,514.19
11.2411,506.66,511.55
11.2615,506.73,510.24
11.282,507.19,510.19
11.3026,506.35,512.35
11.323,507.88,516.48
11.3474,507.3,520.39
11.3681,507.84,525.31
11.3885,507.87,528.05
11.409,507.7,529.64
11.4294,508.76,531.71
11.45,507.61,530.57
11.4744,507.69,529.25
11.495,506.55,526.6
11.5155,508.04,521.48
11.536,508.23,517.99
11.5564,508.19,514.39
11.5769,509.35,511.31
11.6015,510.68,508.25
11.6221,510.94,507.2
11.6425,508.95,508.76
11.6629,509.76,509.01
11.6834,510.61,512.81
11.7079,510.09,516.24
11.7285,509.47,521.4
11.749,509.98,525.92
11.7696,508.78,528.53
11.79,506.83,531.83
11.8104,507.66,531.86
11.835,507.33,530.09
11.8555,507.46,527.87
11.876,507.77,524.3
11.8964,508.02,520.64
11.9169,507.41,517.11
11.9414,508.33,513.89
11.9619,508.26,511.31
11.9826,508.61,510.05
12.003,507.89,511.64
12.0234,507.31,514.91
12.044,507.85,518.73
12.0685,507.48,523.78
12.089,507.78,527.03
12.1095,508.83,530.22
12.1299,508.26,532.78
12.1505,507.61,534.22
12.1749,507.29,535.58
12.1954,506.43,536.26
12.216,506.14,536.61
12.2364,506.52,529.69
12.257,504.81,522.75
12.2775,504.85,510
12.3019,504.28,490.2
12.3227,501.02,466.56
12.3429,499.42,443.65
12.3634,495.94,424.32
12.3839,492.15,411.45
12.4085,491.92,407.16
12.429,492.13,411.13
12.4494,492.91,418.7
12.4699,493.13,428.56
12.4903,496.3,438.85
12.5108,496.64,450.28
12.5353,496.31,457.62
12.556,498.65,464.1
12.5765,500.32,469.48
12.5968,501.66,474.78
12.6174,500.52,476.23
12.6378,501.02,495.98
12.6623,504.82,533.19
12.6828,512.85,573.35
12.7034,520.88,601.28
12.7239,525.91,614.42
12.7444,530.52,618.74
12.7688,533.42,618.39
12.7894,532.74,615.71
12.81,533.99,609.97
12.8303,532.79,603.58
12.8509,528.43,596.26
12.8713,525.15,589.41
12.8959,521.32,579.93
12.9163,520.65,570.74
12.9368,522.32,560.59
12.9573,522.26,553.27
12.9778,521.61,545.22
13.0023,521.29,536.18
13.0227,518.63,528.94
13.0433,519.1,525.35
13.0638,518.28,522.48
13.0843,519.23,521.39
13.1048,518.38,522.71
13.1294,517.3,525.57
13.1498,518.04,528.85
13.1703,517.63,531.88
13.1908,517.71,534.71
13.2113,516.77,536.76
13.2358,516.21,537.81
13.2564,516.97,538.65
13.2768,516.98,534.12
13.2973,514.78,531.7
13.3177,514.62,528.96
13.3382,513.3,524.17
13.3627,511.44,519.93
13.3833,512.55,517.75
13.4037,509.44,516
13.4242,510.75,515.2
13.4447,511.4,515.96
13.4692,511.12,519.17
13.4897,509.5,523.13
13.5104,508.6,527.51
13.5308,509.48,530.41
13.5511,508.78,532.92
13.5717,507.83,533.14
13.5963,506.66,534.11
13.6167,507.93,533.49
13.6373,507.74,531.39
13.6576,509.39,527.51
13.6782,509.52,523.81
13.7025,510.01,520.85
13.7231,508.81,517.48
13.7437,509.65,515.98
13.7642,509.12,515.39
13.7848,508.09,514.91
13.8051,507.88,515.93
13.8296,508.5,518.74
13.8501,508.6,522.19
13.8706,510.08,525.15
13.8911,510.66,528.72
13.9116,511.93,530.98
13.9321,510.55,531.78
13.9567,509.64,532.43
13.9771,509.31,530.74
13.9975,509.45,526.79
14.0181,509.16,523.23
14.0385,507.93,518.99
14.0631,507.94,515.59
14.0835,507.35,512.27
14.1043,507.28,510.82
14.1247,508.03,508.85
14.1451,506.42,510.28
14.1656,505.34,512.23
14.19,507.47,516.38
14.2106,506.58,521.11
14.2311,506.46,525.48
14.2516,507.97,529.39
14.2721,508.17,531.51
14.2966,506.94,534.01
14.3171,505.55,534.01
14.3377,506.44,533.61
14.3581,505.95,530.88
14.3785,505.56,529.11
14.399,506.85,524.89
14.4237,507.68,520.71
14.4441,508.74,517.37
14.4645,509.2,513.69
14.4852,508.96,512.75
14.5056,508.56,512.8
14.53,507.85,514.84
14.5505,511.28,519.47
14.571,512.23,523.38
14.5915,513.78,526.9
14.612,517.02,529.12
14.6325,519.02,530.5
14.657,519.62,531
14.6776,519.49,530.8
14.698,518.19,529.44
14.7185,516.16,527.55
14.7389,515.92,523.64
14.7636,513.94,521.11
14.7841,512.55,519.89
14.8046,511.64,519.71
14.8251,508.11,513.97
14.8455,504.69,505.18
14.866,497.35,492.14
14.8904,493.88,477.71
14.9111,486.71,463.37
14.9315,483.16,450.3
14.952,481.53,439.24
14.9724,481.03,433.19
14.9968,482.42,432.55
15.0175,481.34,434.64
15.0379,481.67,439.71
15.0585,482.14,444.77
15.0789,483.51,449.42
15.0994,486.81,454.33
15.124,487.85,459.27
15.1444,489.48,463.41
15.1649,492.18,468.53
15.1854,495.54,479.22
15.2059,497.04,508.18
15.2263,506.83,545.14
15.2509,519.86,579.11
15.2716,529.09,601.29
15.2919,535.87,614.03
15.3124,538.7,618.23
15.3328,537.76,616.98
15.3574,536.81,611.79
15.3778,536.25,602.43
15.3984,535.2,595.54
15.4188,532.76,585.83
15.4394,529.21,574.67
15.4598,524.56,565.33
15.4843,526.65,555.67
15.5049,526.72,547.33
15.5254,526.38,540.07
15.5459,525.7,535.85
15.5664,523.76,531.88
15.5909,522.61,530.11
15.6114,522.49,529.09
15.6318,520.19,532.27
15.6524,520.55,534.81
15.6728,518.64,537.05
15.6933,518.31,538.04
15.7179,516.05,538.23
15.7384,516.64,537.79
15.7588,512.51,537.03
15.7793,512.61,534.62
15.7998,512.49,530.9
15.8244,510.19,527.52
15.8449,508.75,524.02
15.8653,509,519.61
15.8858,508.4,516.69
15.9062,510.32,514.35
15.9269,508.66,512.28
15.9514,509.13,514.83
15.9718,509.5,517.26
15.9924,509.4,521.01
16.0129,507.52,524.41
16.0333,507.62,529.33
16.0578,508.49,532.26
16.0783,508.79,533.81
16.0988,509.24,534.85
16.1193,510.39,534.68
16.1397,509.91,533.54
16.1602,511.13,530.23
16.1846,511.1,525.79
16.2053,508.28,521.23
16.2257,508.83,517.18
16.2462,508.26,512.75
16.2667,508.61,510.8
16.2911,509.09,511.04
16.3118,509.27,512.23
16.3322,510.42,515.58
16.3528,510.73,519.07
16.3732,511.99,523.65
16.3936,510.19,528.12
16.4181,508.95,532.3
16.4387,508.56,534.84
16.4591,508.05,535.07
16.4797,509.64,534.06
16.5002,509.71,531.45
16.5207,508.77,528.36
16.5451,508.62,524.09
16.5657,506.09,521.07
16.5862,508.07,515.85
16.6069,507.06,511.88
16.6271,508.25,510.71
16.6516,508.6,510.17
16.6721,509.08,511.53
16.6928,509.06,514.63
16.7131,510.85,519.1
16.7337,511.08,523.28
16.7544,511.26,527.22
16.7786,511.21,530.18
16.7993,510.77,531.74
16.8197,509.42,531.79
16.8403,507.93,529.84
16.8606,506.95,527.07
16.8852,506.56,523.66
16.9058,507.85,519.72
16.9262,507.08,515.98
16.9466,509.06,512.38
16.9671,508.25,509.31
16.9876,509.2,509.65
17.0121,509.96,510.12
17.0326,510.57,513.29
17.0531,508.25,516.63
17.0738,507.6,519.71
17.0941,510.48,525.17
17.1187,511.39,529.93
17.1392,511.71,533.75
17.1596,511.17,535
17.1801,509.13,532.6
17.2006,510.11,531.88
17.2211,509.69,528.9
17.2456,507.75,527.12
17.2661,507,523.7
17.2868,506.8,518.56
17.3071,505.64,515.65
17.3275,505.91,512.92
17.352,507.53,510.33
17.3725,508.62,510.87
17.393,508.3,514.09
17.4135,508.44,518.07
17.4339,508.95,522.06
17.4546,507.96,527.05
17.4791,508.57,529.84
17.4995,509.26,533.47
17.52,507.6,535.38
17.5406,507.08,534.7
17.5609,505.27,532.36
17.5814,505.61,529.29
17.606,505.09,524.83
17.6266,505.47,521.06
17.647,504.78,516.45
17.6675,505.22,512.56
17.688,504.78,510.65
17.7126,506.22,509.52
17.7329,505.98,510.42
17.7535,505.98,513.53
17.774,505.79,518.63
17.7944,507.03,523.7
17.8151,507.62,530.16
17.8395,508.9,536.33
17.8599,507.92,540.06
17.8806,506.33,538.85
17.9009,505.07,527.48
17.9216,500.85,511.58
17.9458,497.88,492.07
17.9665,494.91,470.45
17.987,493.73,449.76
18.0074,489.78,433.81
18.0279,485.62,419.45
18.0484,481.9,414.76
18.0729,481.92,415.61
18.0935,482.94,420.29
18.1139,485.55,429.83
18.1344,487.64,440.26
18.1549,489.91,452.01
18.1794,492.13,463.61
18.1999,493.7,475.09
18.2205,493.16,483.67
18.2409,495.13,490.94
18.2613,496.9,496.95
18.2818,498.32,506.76
18.3063,503.06,533.01
18.3269,514.45,565.01
18.3474,527.76,589.8
18.3679,537.81,601.64
18.3884,543.24,602.71
18.4088,544.8,600.17
18.4334,544.44,594.74
18.4539,544.35,589.39
18.4744,542.08,585.11
18.4949,541.66,579.69
18.5153,537.93,576.15
18.5398,535.14,572.92
18.5605,530.92,568.94
18.5808,527.73,565.35
18.6013,523.79,560.08
18.6218,522.43,556.06
18.6424,517.94,550.65
18.6667,518.95,545.92
18.6875,517.76,540.74
18.7078,518.01,535.19
18.7285,517.21,529.35
18.7488,517.37,525.28
18.7733,518.09,521.62
18.7938,518.87,518.1
18.8143,517.5,517.88
18.8348,517,518.9
18.8553,515.8,521.52
18.8758,515.84,525.42
18.9002,516.27,528.73
18.9208,513.02,531.59
18.9414,514.61,534.87
18.9617,512.69,534.9
18.9824,512.75,535.52
19.0067,511.6,534.61
19.0274,509.08,533.29
19.0478,509.47,529.03
19.0683,509.57,525.03
19.0887,507.86,520.22
19.1092,507.29,517.18
19.1336,507.43,516.34
19.1543,509.94,515.87
19.1747,511.15,517.5
19.1951,510.52,519.2
19.2157,509.22,521.56
19.2401,508.78,525.05
19.2606,509.22,528.04
19.2812,506.38,529.83
19.3017,506.9,532.06
19.3222,506.72,533.65
19.3426,507.58,533.32
19.3673,509.26,531.86
19.3877,507.61,528.69
19.4082,508.69,526.55
19.4286,507.15,523.44
19.4491,506.52,517.75
19.4736,507.42,513.6
19.4941,506.13,511.28
19.5146,506.91,511.02
19.5351,507.12,512.82
19.5557,508.3,515.46
19.5761,509.24,519.76
19.6005,508.19,522.81
19.6213,506.95,525.25
19.6416,507.36,530
19.6621,505.49,532
19.6825,505.79,531.2
19.7031,505.23,531.36
19.7275,505.19,529.49
19.7481,505.15,529.39
19.7685,505.12,526.71
19.7891,505.5,522.57
19.8095,504.2,518.46
19.8342,504.96,515.16
19.8545,504.97,513.33
19.8751,505.17,512.87
19.8957,505.74,514.29
19.916,506.19,517.43
19.9366,506.75,521.55
19.961,507.8,524.64
19.9816,509.64,528.31
20.0022,509.51,531.45
20.0226,510.61,533.36
20.0431,510.89,534.09
20.0676,512.31,534.27
20.0881,511.05,531.42
20.1086,510.04,527.53
20.129,509.63,523.63
20.1495,509.5,518.9
20.1701,509,513.92
20.1946,508.4,510.54
20.2151,508.92,509.83
20.2356,508.94,510.86
20.2562,508.55,512.69
20.2766,507.64,515.15
20.3011,507.51,519.72
20.3215,510.41,523.18
20.3421,512.33,526.74
20.3626,512.66,530.79
20.3829,514.73,533.23
20.4035,513.98,534.39
20.4279,512.79,532.91
20.4485,510.63,530.13
20.469,510.3,527.1
20.4895,508.64,523.68
20.51,510.51,521.75
20.5304,508.61,517
20.555,507.29,513.6
20.5755,506.63,512.48
20.596,506.51,512.38
20.6164,508,514.31
20.6369,509.2,518.24
20.6615,509.36,521.6
20.682,511.09,526.28
20.7025,508.67,531.62
20.7231,507.54,536.3
20.7434,507.63,535.84
20.7641,505.3,530.87
20.7885,499.64,519.7
20.809,496.31,502.76
20.8294,490.45,480.81
20.8499,484.56,456.64
20.8705,481.25,433.92
20.8949,478.4,416.53
20.9154,477.52,406.03
20.936,477.42,401.82
20.9564,475.53,404.26
20.9771,477.43,411.61
20.9973,481.34,423.08
21.0218,484.47,434.87
21.0424,486.58,446.89
21.063,488.66,459.92
21.0834,492.33,470.13
21.1039,494.46,478.91
21.1284,493.57,485.52
21.1489,496.06,491.02
21.1694,495.45,496.02
21.1899,500.56,515.01
21.2104,509.25,550.61
21.2309,521.4,589.69
21.2554,533.12,613.75
21.276,540.89,624
21.2965,544.71,625.8
21.3168,544.37,622.04
21.3373,543.5,616.03
21.3618,542.8,608.83
21.3823,539.24,601.86
21.4029,535.79,596.89
21.4234,534.43,589.91
21.4438,529.75,583.33
21.4643,527,577.26
21.4887,524,571.81
21.5094,522.8,565.25
21.5298,522.64,559.6
21.5503,521.71,552.08
21.5708,521.37,543.66
21.5953,521.09,537.13
21.6159,518.88,530.3
21.6364,516.9,526.04
21.6568,518.12,524.23
21.6773,518.3,521.39
21.6979,517.64,521.31
21.7222,517.91,522.85
21.7428,515.13,526.08
21.7633,513.3,529.66
21.7839,513.44,533.13
21.8044,511.55,535.9
21.8248,511.44,536.52
21.8494,509.75,534.82
21.8698,508.8,533.85
21.8903,507.84,531.48
21.9108,506.07,527.99
21.9313,505.66,524.59
21.9557,504.93,520.87
21.9763,505.34,516.3
21.9967,507.47,513.64
22.0173,508.78,512.91
22.0378,508.02,513.33
22.0582,509.02,515.86
22.0827,508.41,520.49
22.1034,508.93,523.99
22.1237,508.75,527.79
22.1443,507.4,531.03
22.1647,508.12,534.03
22.1891,508.29,535.02
22.2097,509.24,533.82
22.2302,509.19,531.65
22.2507,508.95,528.12
22.2712,508.36,526.3
22.2918,508.09,522.24
22.3162,508.47,518.19
22.3368,508.58,515.15
22.3574,509.66,512.32
22.3777,510.13,510.86
22.3981,509.7,512.29
22.4227,509.76,516.03
22.4433,508.21,520.22
22.4638,507.77,522.18
22.4842,508.01,525.34
22.5046,510.01,528.67
22.5251,511.21,531.54
22.5496,512.57,531.63
22.5701,513.25,530.91
22.5906,511.2,530.52
22.6113,510.96,528.42
22.6316,511.37,525.34
22.656,511.5,520.47
22.6767,512,516.17
22.6971,510.8,512.74
22.7176,509.44,510.19
22.7381,509.55,510.35
22.7586,508.44,512.08
22.7831,507.95,514.67
22.8036,509.96,517.73
22.8243,510.77,522.39
22.8446,510.22,525.91
22.865,509.37,529.13
22.8856,507.9,531.7
22.9101,508.52,532.16
22.9306,508.41,531.13
22.9511,507.53,529.9
22.9716,505.63,526.12
22.9922,505.7,523.1
23.0165,507.16,520.48
23.037,507.73,516.58
23.0576,506.78,513.07
23.078,506.43,511.65
23.0986,505.34,511.12
23.119,505.27,512.5
23.1436,505.42,515.2
23.1641,504.53,519.56
23.1846,506.03,524.25
23.205,505.62,527.4
23.2255,505.9,530.92
23.25,506.12,532.53
23.2705,507.69,533.63
23.2911,508.36,532.7
23.3115,507.68,530.96
23.332,508.95,528.57
23.3525,509.16,524.26
23.3769,509.13,519.8
23.3975,509.3,515.24
23.4182,507.84,512.99
23.4384,508.47,510.4
23.4591,507.78,509.92
23.4834,506.42,512.33
23.5039,507.14,514.67
23.5246,508.51,517.53
23.545,508.01,521.43
23.5655,508.01,525.54
23.5859,507.61,529.23
23.6104,505.48,532.19
23.631,508.39,532.75
23.6514,511.91,532.6
23.6719,513.53,529.88
23.6924,515.82,526.7
23.7168,516.86,522.96
23.7374,516.49,519.57
23.758,514.59,514.66
23.7785,513.27,512.53
23.799,511.22,510.62
23.8195,510.77,510.3
23.8439,512.22,511.64
23.8644,511.78,514.11
23.8849,512.62,518.69
23.9054,513.3,522.95
23.9259,514.44,527.36
23.9503,514.95,531.29
23.9709,514.36,532.23
23.9914,513.69,533.18
24.0119,512.15,533.55
24.0325,509.12,531.04
24.0528,512.3,527.43
24.0773,512.84,524.14
24.0979,514.67,520.72
24.1183,514.54,516.97
24.1389,514.43,513.38
24.1593,514.14,511.1
24.1798,514.11,512.88
24.2044,514.09,514.51
24.2249,513.67,517.4
24.2453,513.74,521.12
24.2658,514.39,526.1
24.2863,514.51,530.08
24.3108,514.81,535.26
24.3313,515.05,537.41
24.3519,514.44,534.73
24.3723,510.55,520.38
24.3929,504.84,501.91
24.4133,499.67,483.33
24.4378,492.54,462.26
24.4583,486.03,443.01
24.4788,480.22,424.81
24.4993,478.58,412.25
24.5199,478.26,405.8
24.5443,477.81,405.84
24.565,477.85,411.07
24.5853,479.68,420.26
24.6058,483.34,431
24.6263,485.87,444.2
24.6467,486.3,456.76
24.6712,488.84,469.21
24.6918,490.67,478.17
24.7123,490.94,486.33
24.7328,494.35,492.27
24.7533,496.28,496.21
24.7777,499.22,504.37
24.7983,505.18,531.5
24.8188,516.94,568.8
24.8393,528.75,597.44
24.8597,536.4,610.95
24.8803,539.72,614.96
24.9048,541.58,614.57
24.9253,541.66,610.45
24.9457,539.73,605.76
24.9662,537.18,601.01
24.9868,535.95,595.41
25.0112,532.16,590.93
25.0318,529.93,584.54
25.0522,526.54,578.23
25.0728,524.43,572.79
25.0932,522.75,566.63
25.1137,519.8,559.3
25.1382,521.04,554.44
25.1588,521.43,547.15
25.1792,520.94,539.92
25.1996,519.96,533.34
25.2202,516.96,527.87
25.2407,515.37,525.7
25.2652,515.1,524.96
25.2857,514.28,525.37
25.3063,513.42,526.89
25.3266,515.34,527.71
25.3473,515.67,531.57
25.3716,513.14,535.66
25.3923,513.71,537.93
25.4127,511.77,538.34
25.4332,511.01,537.87
25.4536,511.41,535.1
25.4741,509.53,531.28
25.4987,506.22,528.22
25.5193,507.78,524.78
25.5397,506.82,519.62
25.5601,505.46,516.7
25.5806,507.37,513.96
25.6051,504.69,513.17
25.6256,504.55,513.33
25.6461,506.84,515.87
25.6668,509.27,520.49
25.6871,509.22,524.59
25.7076,510.58,528.08
25.732,511.86,531.46
25.7527,510.89,533.57
25.7731,510.91,533.25
25.7936,510.33,535
25.8141,511.06,532.6
25.8386,509.85,529.68
25.8591,508.68,524.75
25.8795,509.74,521
25.9001,509,518
25.9206,509.8,515.2
25.9411,510.84,512.76
25.9655,512.87,511.41
25.9861,512.9,513.33
26.0067,510.52,515.86
26.0271,507.61,519.69
26.0475,506.89,523.55
26.0721,506.71,527.44
26.0925,506.17,530.75
26.1131,505.14,532.4
26.1335,505.11,532.72
26.154,505.49,531.78
26.1745,505.99,528.42
26.1991,504.19,528.14
26.2196,503.75,525.11
26.2401,505.8,521.29
26.2604,507.24,517.23
26.281,508.79,513.18
26.3054,511.04,511.75
26.326,510.63,510.8
26.3465,510.7,511.84
26.367,511.56,514.27
26.3876,511.05,517.22
26.4079,510.24,521.57
26.4325,509.19,525.46
26.453,509.75,528.77
26.4735,509.4,531.01
26.494,509.32,531.01
26.5145,508.66,530.21
26.5349,508.73,529.17
26.5594,507.78,525.33
26.5799,507.22,522.27
26.6005,506.98,518.81
26.621,506.38,514.45
26.6414,506.11,512.16
26.666,506.09,511.13
26.6864,507.07,510.5
26.707,508.05,512.6
26.7275,507.44,514.68
26.7479,508.96,518.55
26.7684,507.96,523.44
26.793,507.77,527.55
26.8136,508.02,530.24
26.834,508.61,531.19
26.8545,507.09,532.35
26.8749,509.67,531.88
26.8994,508.54,529.11
26.9199,507.83,525.68
26.9404,508.86,521.55
26.9608,507.89,518.04
26.9814,510.31,513.63
27.0018,509.05,511.3
27.0264,508.64,511.64
27.0469,505.71,510.71
27.0673,503.97,513.17
27.0879,504.58,517.54
27.1083,503.06,521.43
27.1328,503.45,525.94
27.1533,504.96,530.36
27.1738,503.57,533.28
27.1943,505.25,536.03
27.2148,505,536.82
27.2353,504.6,536.06
27.2598,504.48,532.45
27.2804,503.79,528.56
27.3009,502.63,524.25
27.3213,505.9,518.8
27.3418,507.12,515.64
27.3662,509.9,512.91
27.3868,510.92,511.53
27.4073,511.53,511.82
27.4278,512.43,512.66
27.4482,511.54,516.73
27.4688,511.43,521.38
27.4933,509.75,525.5
27.5138,511,529.4
27.5343,509,532.32
27.5548,509,533.46
27.5753,508.6,533.17
27.5958,508.08,531.33
27.6203,509.66,528.87
27.6408,508.53,524.49
27.6614,508.22,521.59
27.6818,507.98,517.48
27.7022,509.38,512.78
27.7267,509.11,510.62
27.7472,509.89,510.3
27.7677,507.51,511.24
27.7883,508.21,514.59
27.8088,507.77,518.67
27.8293,509.81,522.74
27.8537,509.65,527.59
27.8743,509.92,533.87
27.8947,509.74,540.3
27.9152,511.59,541.24
27.9357,511.87,538.19
27.9601,512.1,530.15
27.9807,509.68,514.52
28.0012,507.34,493.42
28.0217,504.27,469.73
28.0421,500.02,446.19
28.0626,494.82,426.15
28.0871,492.05,413.32
28.1077,489.04,406.46
28.1282,485.23,407.76
28.1487,482.99,415.01
28.1692,482.59,424.41
28.1936,482.67,436.53
28.2142,484.54,448.02
28.2347,486.83,460.82
28.2552,490.46,471.45
28.2757,490.37,479.36
28.2961,490.1,487.69
28.3207,491.08,493.55
28.3413,493.26,496.84
28.3616,496.01,497.47
28.3821,495.61,501.38
28.4026,499.29,520.9
28.4232,512.23,552.92
28.4476,525.58,582.14
28.4682,534.67,600.51
28.4887,538.53,608.41
28.5092,539.43,610.73
28.5296,538.94,610.38
28.5541,538.95,608.51
28.5747,535.96,603.8
28.5951,534.97,598.44
28.6157,532.18,592.15
28.6362,530.14,584.52
28.6565,528.71,577.82
28.6811,526.37,570.66
28.7016,522.9,563.12
28.7223,520.12,554.5
28.7426,521.09,547.8
28.763,517.87,540.24
28.7876,517.1,533.39
28.8081,515.28,527.91
28.8287,514.82,525.73
28.8491,513.46,524.38
28.8696,513.37,524.91
28.8901,514.29,528.13
28.9146,513.64,532.1
28.9351,515.11,536.08
28.9557,513.49,538.86
28.976,513.39,541.29
28.9965,513.11,541.63
29.0211,513.69,540.11
29.0416,513.15,537.49
29.0621,512.72,532.39
29.0826,511.58,527.51
29.1031,512.06,523.41
29.1236,509.85,518.93
29.148,512.28,516.94
29.1685,510.62,514.75
29.189,511.1,512.8
29.2096,510.68,514.24
29.2299,511.34,517.59
29.2545,510.27,521.47
29.2751,509.02,524.38
29.2955,508.22,528.5
29.3159,509.57,531.8
29.3365,511.06,532.64
29.3569,510.45,532.91
29.3814,509.16,532.73
29.402,507.53,531.59
29.4225,508.82,527.87
29.443,506.86,524.09
29.4635,508.49,521.08
29.4879,508.39,516.26
29.5084,508.51,512.81
29.5289,508.21,512.05
29.5494,507.57,510.64
29.5699,507.45,511.71
29.5905,508.76,515.97
29.6148,509.61,519.17
29.6355,509.69,523.94
29.656,510.35,527.75
29.6764,510.88,531.4
29.697,510.5,532.52
29.7175,509.6,533.42
29.742,507.28,532.53
29.7625,506.43,529.23
29.7829,507.14,526.98
29.8035,506.31,524.59
29.8238,505.05,521.27
29.8484,505.24,516.61
29.8689,506.39,513.29
29.8894,505.91,511.63
29.9098,505.73,511.51
29.9304,507.18,513.61
29.9508,505.95,517.48
29.9753,508.76,522.39
29.9959,510.41,524.91
30.0164,507.73,527.93
30.0369,509.78,530.54
30.0574,512.02,532.83
30.0819,514.22,534.67
30.1023,513.18,533.33
30.1229,513.54,530.47
30.1434,512.43,529.17
30.1639,511.95,525.54
30.1844,510.36,521.83
30.2088,509.09,518.46
30.2294,508.87,515.57
30.2498,508.69,514.46
30.2704,510.36,514.57
30.2909,510.68,516.45
30.3153,511.15,519.16
30.3359,512.72,523.13
30.3564,513.17,526.7
30.3769,511.94,529.56
30.3973,512.15,531.85
30.4179,510.72,532.88
30.4423,507.18,533.9
30.4628,508.34,532.72
30.4834,507.67,529.38
30.5039,507.54,526.7
30.5244,507.63,523.36
30.5489,507.1,519.49
30.5693,507.08,516.19
30.5898,508.07,515.55
30.6104,508.05,515.64
30.6308,509.04,517.51
30.6514,509.83,519.61
30.6757,509.67,522.29
30.6963,509.53,526.43
30.7168,508.03,531.55
30.7373,508.02,535.24
30.7578,507.62,538.79
30.7823,508.49,538.63
30.8027,509.6,538.3
30.8232,509.88,539.04
30.8437,508.1,537.44
30.8643,509.88,533.15
30.8846,512.5,529.72
30.9092,512.8,523.97
30.9297,513.64,519.98
30.9503,511.71,509.98
30.9708,508.57,490.19
30.9913,503.86,467.15
31.0117,501.29,445.12
31.0362,497.63,425.9
31.0567,494.9,412.72
31.0772,490.12,403.77
31.0977,486.5,400.42
31.1182,484.4,402.93
31.1427,483.72,409.55
31.1632,483.17,417.24
31.1837,483.14,423.79
31.2041,485.11,429.83
31.2247,485.49,437.87
31.2451,485.19,445.69
31.2697,486.75,451.35
31.2902,490.6,457.68
31.3107,493.08,464.35
31.3313,494.67,471.28
31.3516,498.13,485.82
31.3761,506.11,513.86
31.3966,518.68,553.69
31.4171,531.35,598.15
31.4377,539.08,634.92
31.4582,546.06,653.74
31.4786,547.05,659.79
31.5031,546.04,657.83
31.5236,544.03,647.26
31.5442,544.43,633.81
31.5647,539.94,620.25
31.5852,531.55,610.2
31.6097,525.84,596.76
31.63,522.27,583.21
31.6506,517.82,570.17
31.6711,513.86,559.13
31.6916,512.68,550.51
31.7121,511.75,543.41
31.7366,510.6,539.92
31.7571,508.28,537.54
31.7776,507.22,538.03
31.7981,511.78,537.43
31.8185,512.82,536.54
31.843,511.66,535.23
31.8636,512.13,535.19
31.8842,510.1,534.15
31.9045,509.48,532.72
31.9252,510.38,528.98
31.9455,510.51,524.58
31.97,510.81,520.66
31.9905,509.04,516.33
32.011,510.64,511.47
32.0315,508.71,509.97
32.0522,508.57,509.38
32.0724,509.85,511.3
32.097,509.68,514.24
32.1175,510.75,518.99
32.1381,510.8,522.79
32.1585,508.24,526.84
32.179,506.59,531.07
32.2035,507.47,534.45
32.2241,508.18,536.96
32.2446,506.34,535.57
32.2651,505.07,534.06
32.2855,505.66,531.85
32.3059,504.73,527.88
32.3304,505.98,524.7
32.351,506.59,521.16
32.3714,508.07,519.73
32.392,508.45,517.78
32.4125,507.36,516.63
32.437,506.89,517.9
32.4575,507.71,520.72
32.478,508.77,522.98
32.4984,509.22,526.38
32.5189,508.37,529.91
32.5394,508.3,531.92
32.5638,507.24,533.14
32.5845,506.39,534.11
32.605,507.71,533.09
32.6255,508.37,531.07
32.6459,508.7,527.06
32.6703,509.96,523.45
32.6909,508.57,519.36
32.7114,507.25,515.69
32.7319,505.8,513.35
32.7524,506.24,512.08
32.7729,507.99,510.86
32.7974,506.79,513.09
32.8179,507.04,515.47
32.8384,508.63,518.58
32.859,508.9,522.86
32.8793,508.32,526.89
32.9037,509.46,529.11
32.9244,507.97,531.29
32.9449,506.77,531.43
32.9655,506.82,530.95
32.9858,504.45,529.36
33.0063,502.76,527.88
33.0308,503.01,525.31
33.0514,503.41,521.25
33.072,503.33,518.2
33.0924,504.66,515.16
33.1129,505.33,514.13
33.1334,504.26,513.7
33.1578,504.81,515.76
33.1783,504.85,519.21
33.1989,505.48,521.97
33.2193,505.58,525.77
33.2398,506.27,530.62
33.2643,506.21,534.1
33.2848,506.57,536.08
33.3053,506.46,537.06
33.3259,507.37,537.25
33.3464,506.69,538.8
33.3668,505.35,538.64
33.3913,503.48,531.51
33.4119,499.99,519.61
33.4324,497.19,499.69
33.4528,494.95,476.15
33.4732,492.76,453.52
33.4977,491.41,436.62
33.5183,489.93,426.09
33.5388,487.34,422.87
33.5593,486.47,425.7
33.5799,486.58,431.36
33.6003,487.86,440.49
33.6247,489.09,451.79
33.6453,490.27,459.83
33.6658,493.22,466.67
33.6863,497.97,474.53
33.7067,499.58,478.43
33.7313,500.66,481.14
33.7518,500.53,482.71
33.7724,501.42,490.97
33.7927,505.94,518.78
33.8132,514.15,552.62
33.8337,525.32,578.7
33.8582,532.26,592.76
33.8787,534.61,598.01
33.8992,536.28,600.8
33.9197,536.83,601.24
33.9401,536.66,598
33.9646,536.73,593.8
33.9852,533.98,588.04
34.0057,531.59,581.83
34.0262,529.07,575.46
34.0466,527.26,567.97
34.0671,523.4,559.78
34.0916,523.12,553.62
34.1121,523.3,548.1
34.1326,520.64,542.28
34.1532,520.11,537.02
34.1736,519.49,531.42
34.1941,518.39,528.33
34.2188,518.11,527.47
34.2392,517.49,527.57
34.2596,516.39,528.86
34.2802,515.51,531.49
34.3006,514.61,533.79
34.3251,514.29,536.43
34.3456,512.83,537.95
34.3661,512.86,538.16
34.3866,512.29,538.73
34.4072,511.83,536.18
34.4275,510.07,532.94
34.4522,509.85,529.76
34.4726,509.08,525.2
34.4931,508.47,521.16
34.5136,509.57,516.53
34.5341,509.26,514.42
34.5585,509.01,513.94
34.5792,508.81,514.95
34.5997,506.24,516.96
34.6203,504.8,520.37
34.6405,504.24,524.3
34.6611,503.39,527.44
34.6855,505.51,530.75
34.7061,507.81,532.4
34.7265,506.45,534.32
34.7471,503.76,533.86
34.7675,504.41,531.48
34.792,506.13,528.79
34.8126,507.9,525.23
34.833,508.32,522.98
34.8536,507.66,519.19
34.874,510.32,515.95
34.8945,509.46,514.56
34.9191,509.77,514.45
34.9396,507.41,516.56
34.9601,507.13,521.05
34.9806,508.11,526.24
35.001,507.48,526.59
35.0254,502.99,521.67
35.0462,498.99,509.54
35.0666,495.59,492.43
35.087,489.87,472.94
35.1075,481.7,454.16
35.1279,479.56,438.32
35.1525,479.25,427.46
35.173,480.4,422.57
35.1935,480.92,421.65
35.214,482.73,423.92
35.2345,484.99,428.34
35.2591,487.19,436.67
35.2794,489.75,444.94
35.2999,490.4,452.15
35.3205,492.72,462.52
35.3409,496.18,480.02
35.3614,503.14,518.01
35.3859,514.11,563.41
35.4066,526.29,598.53
35.427,534.63,617.62
35.4474,537.31,623.5
35.468,536.64,621.8
35.4884,537.12,615.44
35.5129,535.89,606.95
35.5335,533.71,596.36
35.5539,530.57,584.69
35.5744,528.06,572.35
35.5948,526.05,562.28
35.6195,523.44,553.62
35.6399,523.95,548.7
35.6604,525.56,547.16
35.6809,524.45,545.93
35.7014,524.96,545.94
35.7219,523.37,546.15
35.7463,520.89,546.12
35.767,520.71,546.5
35.7875,519.17,545.8
35.8079,515.94,544.84
35.8284,515.15,542.47
35.8529,513.92,539.38
35.8734,513.54,536.1
35.8941,512.63,531.08
35.9144,512.5,526.07
35.9348,512.2,522.45
35.9553,511.76,518.96
35.9799,512.41,515.97
36.0005,512.13,514.98
36.021,511.3,514.98
36.0414,511.44,518.38
36.0619,510.95,520.91
36.0863,509.56,525.33
36.1068,509.25,529.46
36.1274,507.2,533.17
36.1479,507.56,534.13
36.1683,505.85,533.31
36.1888,503.68,533.25
36.2134,504.54,532.6
36.2339,504.23,531.08
36.2543,505.59,527.86
36.2749,506.07,524.09
36.2952,505.46,521.67
36.3198,507.16,518.54
36.3405,506.73,517.03
36.3609,506.39,516.62
36.3813,509.31,518.5
36.4018,513.25,521.4
36.4223,516.2,524.12
36.4468,516.16,527.7
36.4674,518.53,530.56
36.4879,517.82,533.25
36.5083,515.86,534.8
36.5288,514.29,534.64
36.5534,513.03,533.51
36.5739,513.42,531.01
36.5943,512.14,528.21
36.615,512.11,524.36
36.6353,509.69,520.69
36.6557,510.15,516.55
36.6803,508.72,514.24
36.7008,511.18,513.79
36.7214,512.54,513.64
36.7419,513.03,514.11
36.7623,514.63,517.09
36.7867,514.1,519.87
36.8073,512.88,522.7
36.8278,511.9,526.36
36.8483,510.12,529.69
36.8687,511.1,532.75
36.8892,511.28,532.2
36.9137,510.42,531.56
36.9342,508.34,529.45
36.9547,507.67,526.16
36.9752,505.74,524.13
36.9957,505.19,521.1
37.0161,505.75,517.88
37.0407,506.2,516.5
37.0613,506.36,516.8
37.0819,506.09,518.64
37.1022,506.87,523.51
37.1227,505.9,523.61
37.1471,502.12,519.09
37.1676,498.09,511.67
37.1882,492.28,498.54
37.2088,486.22,480.23
37.2292,479.78,461.78
37.2496,474.22,444.83
37.2742,470.38,432.66
37.2947,468.5,426.33
37.3151,468.8,423.66
37.3357,468.44,425.93
37.3562,469.55,429.74
37.3806,472.64,434.2
37.4012,477.31,440.16
37.4217,482.05,448.13
37.4421,484.44,455.5
37.4626,486.15,463.4
37.4831,490.32,472.72
37.5077,493.66,482.58
37.5281,497.13,499.66
37.5487,502.3,534.73
37.5691,512.44,572.98
37.5896,525.75,601.99
37.614,536.2,616.99
37.6347,541.56,622.39
37.6551,543.45,617.71
37.6756,544.36,610.57
37.696,544.29,599.66
37.7165,541.03,587.13
37.7411,537.42,576.1
37.7617,535.14,566.08
37.7823,532.71,557.26
37.8025,527.57,551.01
37.8231,525.86,548.01
37.8476,526.48,547.81
37.868,526.79,549.05
37.8885,524.03,548.84
37.909,523.22,549.87
37.9295,522.38,550.3
37.95,519.3,548.64
37.9746,519.44,546.91
37.995,518.75,544.53
38.0155,517.8,541.42
38.036,516.44,537.14
38.0565,515.35,532.31
38.0769,513.08,528.45
38.1015,511.07,523.76
38.122,511.05,519.81
38.1426,512.24,518.05
38.1629,512.59,517.84
38.1835,513.68,518.47
38.208,512.54,520.98
38.2285,512.03,523.98
38.249,510.03,526.78
38.2694,510.22,529.63
38.2899,509.78,532.9
38.3104,508.22,533.92
38.335,508.78,533.54
38.3555,507.62,532.63
38.3759,506.5,530.3
38.3964,505.4,526.64
38.4169,505.92,523.51
38.4414,505.93,520.21
38.4619,506.75,517.17
38.4825,506.8,515.34
38.5029,505.64,513.67
38.5234,506.11,513.53
38.5439,506.09,514.43
38.5685,506.27,517.34
38.5889,505.62,521.47
38.6094,505.69,524.78
38.6299,506.75,527.42
38.6504,508.4,530.74
38.6748,508.72,530.79
38.6954,508.98,531.43
38.716,509.58,531.35
38.7364,509.87,528.88
38.757,508.89,526.7
38.7775,509.31,523.76
38.8019,508.65,519.81
38.8225,507.92,515.65
38.8431,507.94,513.32
38.8634,508.95,511.45
38.8838,508.76,511.16
38.9084,510.01,512.93
38.9288,511.21,514.54
38.9495,511.57,518.04
38.9699,511.25,522.43
38.9903,511.2,526.74
39.0108,510.96,529.99
39.0353,507.57,531.2
39.0558,508.86,531.76
39.0764,507.88,531.01
39.0968,508.71,529.2
39.1173,507.57,525.56
39.1379,508.05,523.45
39.1623,508.24,519.76
39.1829,507.59,516.61
39.2034,507.68,514.09
39.2239,506.94,512.67
39.2444,507.95,511.34
39.2688,508.76,513.07
39.2892,507.21,515.25
39.3098,506.17,519
39.3302,506.73,522.6
39.3508,508.19,526.28
39.3713,508.75,528.63
39.3958,509.8,530.9
39.4164,508.84,531.72
39.4369,508.07,530.38
39.4573,509.46,529.5
39.4777,508.37,526.2
39.5023,509.49,522.96
39.5228,508.19,519.37
39.5433,507.76,516.49
39.5638,507.2,514.2
39.5843,507.16,512.76
39.6047,507.13,514.21
39.6293,505.5,515.56
39.6497,506.2,518.85
39.6703,507.16,522.68
39.6908,509.33,526.15
39.7112,507.86,529.12
39.7356,506.69,532.09
39.7562,506.95,533.07
39.7767,506.56,534.86
39.7972,506.25,533.49
39.8176,505.8,529.39
39.8381,505.24,519.91
39.8627,504.39,504.93
39.8832,501.51,484.74
39.9037,497.81,463.19
39.9241,494.45,445.76
39.9447,491.16,431
39.9692,488.93,421.6
39.9896,485.54,418.68
40.0103,485.83,421.75
40.0307,486.27,430.2
40.0512,486.81,441.36
40.0717,488.85,451.49
40.0962,490.08,461.59
40.1167,492.86,469.27
40.1371,496.29,477.02
40.1576,498.43,486.81
40.1782,503.95,514.85
40.1986,514.76,551.48
40.2231,523.21,578.78
40.2437,528.76,591.03
40.2643,532.01,593.22
40.2846,533.01,590.18
40.305,533.61,585.74
40.3297,531.69,580.59
40.3501,530.95,574.67
40.3707,532.76,571.94
40.3912,529.61,569.35
40.4117,527.29,566.68
40.4321,524.03,564.35
40.4566,521.22,562.08
40.4772,517.98,559.26
40.4977,520.38,555.41
40.5181,522.31,552.13
40.5385,523.84,549.1
40.563,523.08,543.68
40.5837,520.66,538.75
40.604,518.53,533.4
40.6245,517.82,528.12
40.6451,516.06,524.29
40.6655,515.65,521.63
40.6901,514.92,519.51
40.7107,514.53,519.21
40.7311,513.23,520.77
40.7516,511.98,523.21
40.772,511.19,525.37
40.7966,513.95,529.5
40.817,514.36,532.6
40.8376,514.89,534.28
40.858,514.31,535.42
40.8785,512.85,533.74
40.8992,510.48,531.19
40.9235,509.78,527.75
40.944,510.63,526
40.9645,509.5,522.4
40.985,508.4,518.52
41.0055,508.12,515.42
41.03,507.5,513.93
41.0505,508.8,513.35
41.0711,508.04,515.88
41.0914,510.83,518.1
41.112,510.86,521.48
41.1324,511.69,525.79
41.1569,510.35,528.63
41.1775,508.68,532.1
41.1979,509.35,533.28
41.2184,507.68,533.83
41.2389,506.34,532.06
41.2634,506.67,529.25
41.2839,506.74,526.6
41.3045,504.99,522.28
41.325,506.79,518.82
41.3454,508.03,516.06
41.3659,509.23,512.85
41.3905,509.78,511.48
41.411,510.43,510.98
41.4315,509.54,512.19
41.4519,510.43,514.15
41.4726,511.15,517.92
41.4929,511.12,522.34
41.5174,511.49,526.07
41.538,510.39,529.25
41.5584,508.72,530.6
41.579,507.77,531.88
41.5994,507.22,531.11
41.6239,506.37,528.89
41.6444,506.7,525.91
41.6649,506.36,521.53
41.6853,505.89,517.42
41.7058,504.91,514.34
41.7263,504.93,511.87
41.7509,504.54,510.3
41.7714,505.23,509.84
41.792,507.39,512.27
41.8124,506.91,515.62
41.8328,507.53,520.29
41.8573,507.02,523.83
41.8778,507.42,527.47
41.8985,506.93,529.97
41.9188,507.55,532.38
41.9393,507.04,532.9
41.9599,508.23,531.92
41.9843,509.18,529.54
42.005,508.55,526.63
42.0253,508.44,523.7
42.0458,507.75,521.16
42.0663,507.6,519.13
42.0907,507.48,519.3
42.1115,508.98,521.44
42.1319,507.19,518.76
42.1524,505.35,511.8
42.1728,502.48,502.64
42.1933,500.18,490.31
42.2178,497.15,477.45
42.2383,493.72,465.36
42.2588,491.57,457.09
42.2793,487.46,450.27
42.2997,485.37,448.62
42.3242,483.89,449.49
42.3447,485.92,451.79
42.3653,487.33,454.84
42.3858,487.47,458.07
42.4063,490.77,459.86
42.4268,492.42,463.08
42.4513,495.13,466.67
42.4718,497.51,471.33
42.4923,502.41,475.87
42.5128,503.92,480.89
42.5333,503.34,486.11
42.5537,504.67,500.69
42.5783,510.74,533.15
42.5988,520.79,570.52
42.6193,530.63,597.42
42.6398,537.11,610.93
42.6602,539.88,613.55
42.6847,540.71,610.44
42.7053,538.97,603.75
42.7257,536.37,595.6
42.7463,534.3,586.28
42.7668,532.24,575.62
42.7872,528.59,565.3
42.8117,524.87,556.84
42.8323,523.5,550.47
42.8528,522.2,545.78
42.8732,523.56,542.02
42.8937,521.65,540.42
42.9182,519.92,540.93
42.9386,518.73,540.95
42.9592,516.79,541.36
42.9797,514.23,541.09
43.0003,515.78,540.07
43.0207,515.23,538.06
43.0452,515.58,536.04
43.0658,515.27,533.44
43.0861,514.81,528.75
43.1067,514.85,524.6
43.1272,514.08,521.68
43.1515,514.66,516.94
43.1721,514.73,513.35
43.1926,513.38,512.48
43.2131,511.91,512.79
43.2336,511.33,514.23
43.2543,510.86,516.18
43.2786,509.49,518.55
43.2992,509.99,522.04
43.3197,509.79,525.83
43.3401,509.43,528.66
43.3605,508.55,531.13
43.385,508.84,531.51
43.4056,508.07,530.6
43.4261,508.06,528.88
43.4467,508.05,525.31
43.4671,508.24,521.65
43.4876,509.59,518.72
43.512,510.47,515.17
43.5326,510.98,513.54
43.553,512.18,512.83
43.5736,511.95,512.06
43.5941,511.76,514.65
43.6185,511.41,517.52
43.6391,511.52,522.62
43.6596,510.22,526.09
43.6801,509.58,529.07
43.7005,509.46,531.46
43.7211,508.57,531.97
43.7455,508.65,532.17
43.7661,508.12,531.34
43.7866,506.9,529.07
43.807,505.52,525.86
43.8275,504.62,521.89
43.848,504.69,518.91
43.8725,504.95,515.93
43.893,505.56,513.14
43.9135,506.85,511.51
43.934,506.88,510.21
43.9545,506.9,511.57
43.979,506.32,514.45
43.9996,505.86,518.76
44.02,507.09,523.41
44.0405,507.67,525.73
44.0611,505.74,528.38
44.0814,504.99,531.31
44.106,505.79,531.45
44.1265,505.23,530.56
44.147,506.39,529.25
44.1676,507.11,527.6
44.1879,508.09,524.08
44.2124,508.47,519.66
44.233,508.38,516.13
44.2537,508.9,514.3
44.274,507.52,514.04
44.2944,508.02,513.43
44.315,509.21,516.15
44.3394,511.17,518.92
44.3599,507.54,521.53
44.3805,506.23,525.63
44.4009,508.58,529.3
44.4215,511.07,530.84
44.4459,510.25,532.07
44.4664,507.4,533.46
44.4869,507.32,532.57
44.5074,507.66,532.25
44.5279,508.33,530
44.5484,509.06,524.2
44.5728,507.25,513.36
44.5934,503.2,498.69
44.6139,497.96,482.15
44.6344,493.17,465.32
44.6549,489.53,450.66
44.6794,486.83,441.13
44.6999,483.46,437.3
44.7204,480.57,438.64
44.741,482.06,444.11
44.7615,485.64,451.09
44.7819,485.52,458.27
44.8064,485.01,466.02
44.8269,485.81,474.61
44.8475,489.45,480.89
44.8679,493.56,485.91
44.8884,497.05,488.53
44.9088,498.04,490.42
44.9334,499.23,490.14
44.9539,501.98,489.91
44.9744,504.59,491.33
44.9949,503.67,494.26
45.0153,505.14,511.81
45.0397,510.31,542.25
45.0603,518.85,574.8
45.0808,527.88,596.84
45.1013,533.1,607.67
45.1217,534.28,612.14
45.1423,535.03,611.11
45.1668,535.62,607.09
45.1873,538.5,600.87
45.2078,537,592.7
45.2283,532.8,583.36
45.2488,526.64,573.29
45.2733,523.91,562.03
45.2938,523.53,552.82
45.3145,519.82,544.66
45.3348,517.26,537.33
45.3554,518.21,534.06
45.3758,517.97,530.05
45.4003,518.77,529.04
45.4208,518.62,528.43
45.4413,517.09,529.15
45.4618,515.28,531.32
45.4823,513.62,533.05
45.5068,512.9,535.84
45.5273,512.32,536.87
45.5477,512.45,536.1
45.5683,511.76,534.68
45.5888,509.41,532.54
45.6092,509.13,528.23
45.6337,509.5,524.79
45.6543,510.2,521.03
45.6747,510.76,517.02
45.6952,508.81,513.82
45.7157,509.05,512.06
45.7402,510.84,511.04
45.7607,511.27,512.44
45.7813,509.62,514.55
45.8017,509.29,517.64
45.8222,509.63,520.91
45.8426,509.71,524.33
45.8672,511.37,527.86
45.8877,511.09,530.69
45.9082,512.27,532.95
45.9287,513.82,532.56
45.9491,514.06,530.65
45.9696,512.04,528.72
45.9941,510.64,525.58
46.0147,509.11,521.66
46.0351,508.09,517.13
46.0557,507.87,514.9
46.0761,507.7,514.72
46.1011,507.76,514.18
46.1211,510.61,515.74
46.1417,509.68,519.39
46.1622,509.55,521.91
46.1829,508.44,525.53
46.2032,507.75,529.23
46.2277,508.8,532.18
46.2481,509.64,532.34
46.2687,508.51,531.68
46.2891,508.21,531.54
46.3096,508.57,529.43
46.3341,510.45,526.95
46.3546,510.36,523.76
46.3752,508.09,520.61
46.3956,507.27,517.28
46.4161,507.42,514.63
46.4366,509.13,513.1
46.4611,509.11,513.08
46.4816,507.69,514.67
46.502,508.75,517.33
46.5226,508.4,520.87
46.543,509.32,525.49
46.5675,509.86,528.59
46.588,509.48,531.28
46.6086,508.99,533.42
46.629,510.59,533.14
46.6495,509.07,532.51
46.6701,508.06,530.41
46.6947,506.45,526.33
46.7151,506.76,517.86
46.7355,506.81,510.49
46.7562,506.84,504.99
46.7765,506.28,501.79
46.801,506.82,499.43
46.8216,506.26,499.55
46.8421,505.21,501.24
46.8626,505.76,506.79
46.883,507.21,513.03
46.9035,507.77,519.63
46.9279,508.22,515.9
46.9485,507.17,504.52
46.969,503.94,490.42
46.9895,497.95,475.53
47.0099,492.96,462.63
47.0344,490.97,453.9
47.0549,489.37,449.12
47.0755,488.5,448.1
47.0961,491.6,448.68
47.1165,492.68,451.54
47.1369,495.34,455.83
47.1614,496.48,459.47
47.182,497.78,464.17
47.2025,501.22,472.14
47.2229,501.98,479.51
47.2434,503.58,488.21
47.2639,504.07,496.77
47.2885,504.05,504.01
47.3089,504.24,510.41
47.3295,505.99,520.93
47.35,509.4,545.74
47.3705,514.12,576.19
47.3949,521.89,604.96
47.4155,529.31,620.56
47.4359,533.85,623.65
47.4564,536.08,618.52
47.477,533.87,607.22
47.4976,532.69,595.57
47.522,531.15,584.26
47.5426,530.32,574.41
47.5631,528.26,566.73
47.5836,524.61,561.58
47.604,522.69,557.66
47.6285,520.15,554.33
47.649,519.12,554.07
47.6695,517.29,551.65
47.6901,515.04,550.12
47.7105,514.43,548.3
47.731,514.54,544.84
47.7555,514.03,541.27
47.776,513.23,536.02
47.7966,513.78,530.41
47.817,512.43,526.73
47.8373,510.54,523.18
47.862,510.43,519.15
47.8825,511.35,516.52
47.903,513.08,515.01
47.9234,512.26,516.01
47.944,510.41,518.21
47.9645,509.93,520.77
47.989,508.74,524.81
48.0095,508.79,528.05
48.03,510.23,530.84
48.0503,511.19,531.67
48.0708,510.15,532.54
48.0953,508.32,532.03
48.1159,510.66,530.02
48.1363,509.52,527.02
48.1568,509.22,525.62
48.1774,507.98,522.49
48.1978,507.38,519.59
48.2223,506.1,516.48
48.2428,506.28,515.18
48.2634,506.63,514.54
48.2839,507.5,516.04
48.3042,506.6,519.63
48.3247,507.08,523.1
48.3493,507.66,526.08
48.3699,508.33,529.47
48.3903,510.07,532.57
48.4108,508.85,533.46
48.4314,508.68,534.77
48.4557,508.55,533.81
48.4763,508.84,531.85
48.4968,508.67,528.88
48.5173,508.54,525.3
48.5377,509.23,521.24
48.5582,508.78,518.79
48.5827,508.63,516.24
48.6033,507.5,514.39
48.6238,507.8,514.11
48.6444,509.24,515.69
48.6647,509.19,518.35
48.6892,508.15,522.28
48.7097,507.52,525.62
48.7302,509.02,528.5
48.7507,508.01,530.8
48.7712,507.01,532.24
48.7916,508.61,531.99
48.8161,508.69,531.19
48.8368,506.55,530.55
48.8573,507.44,529.04
48.8777,507.35,522.04
48.8981,503.28,508.83
48.9226,496.63,491.46
48.9431,493.1,475.37
48.9637,488.68,459.3
48.9841,486.14,445.04
49.0046,484.12,434.63
49.0251,484.09,431.7
49.0497,484.07,434.56
49.0701,484.26,441.05
49.0907,487.21,449.04
49.1111,488.97,457.83
49.1317,490.97,465.47
49.1522,492.78,472.77
49.1767,493.62,478.02
49.1972,497.3,482.61
49.2176,497.64,485.29
49.2381,498.71,487.63
49.2587,499.17,488.71
49.2831,500.93,489.17
49.3036,502.35,489.53
49.3241,503.88,492.63
49.3446,503.5,499.3
49.365,506.2,519.04
49.3857,513.76,551.23
49.4101,521.81,580.99
49.4307,529.65,604.59
49.4511,536.72,616.27
49.4716,536.17,619.22
49.4921,535.54,617.57
49.5165,535.63,611.46
49.537,533.31,603.77
49.5576,530.84,594.01
49.5782,526.08,583.81
49.5985,523.46,572.05
49.619,520.97,561.44
49.6435,519.57,552.35
49.6641,523.26,545.88
49.6845,523.01,541.7
49.705,523.01,537.76
49.7255,522.8,535.41
49.75,521.44,535.13
49.7705,520.36,535.7
49.791,518.68,536.76
49.8115,517.35,537.81
49.832,517.08,538.05
49.8524,515.46,538.04
49.8771,514.77,537.43
49.8976,515.02,535.94
49.918,514.61,532.56
49.9386,511.89,528.64
49.9591,511.71,525.72
49.9834,510.97,522.77
50.004,510.18,521.02
50.0245,509.54,517.81
50.0451,509.23,516.45
50.0654,509.79,515.56
50.0862,510.03,517.25
50.1104,510.22,519.2
50.1311,509.98,523.16
50.1515,511.38,527.73
50.1719,510.91,531.98
50.1924,510.12,533.59
50.2168,509.5,534.87
50.2374,508.6,535.49
50.2579,507.48,536.2
50.2784,506.78,533.96
50.299,506.23,530.17
50.3195,505.98,525.93
50.3439,506.59,522.35
50.3644,508.07,519.28
50.3849,507.85,515.02
50.4055,507.28,515.02
50.4258,506.03,514.81
50.4464,506.42,516.85
50.4709,508.34,519.68
50.4914,508.47,521.94
50.5119,507.58,524.96
50.5323,508.46,527.96
50.5529,507.97,530.77
50.5775,505.77,532.62
50.5979,506.62,533.09
50.6184,508.9,532.28
50.6389,508.92,530.42
50.6593,508.93,526.74
50.6798,508.95,522.79
50.7043,508.76,519.83
50.7249,507.01,516.26
50.7454,507.4,513.41
50.7659,506.92,512.53
50.7863,506.74,512.82
50.8108,507.19,514.26
50.8313,507.35,518.81
50.8518,504.68,524.85
50.8723,504.35,528.68
50.893,502.88,528.34
50.9133,498.9,520.07
50.938,492.12,506.26
50.9583,487.3,489.41
50.9789,484.84,472.53
50.9993,483.47,458.22
51.0199,482.58,448.98
51.0443,483.86,445.58
51.0648,485.49,444.06
51.0854,486.39,444.45
51.1058,487.11,446.16
51.1263,489.49,449.53
51.1468,493.19,456.42
51.1713,493.35,463.34
51.1918,495.08,472.07
51.2124,496.27,480.26
51.2328,500.01,489.41
51.2535,501.81,498.32
51.2737,502.65,516.06
51.2983,510.92,550.05
51.3188,519.73,580.04
51.3393,527.39,596.63
51.3597,530.31,600.9
51.3802,532.25,599.32
51.4048,532.6,592.66
51.4253,532.28,583.73
51.4457,532.02,573.58
51.4663,529.22,564.47
51.4868,528.37,557.57
51.5074,526.9,551.66
51.5317,524.12,547.73
51.5523,523.3,546.78
51.5727,522.44,546.22
51.5933,522.55,548.18
51.6137,521.44,549.14
51.6382,520.75,548.72
51.6587,519.6,547.17
51.6792,516.68,545.94
51.6998,515.94,543.35
51.7202,515.16,538.88
51.7407,514.52,533.9
51.7652,514.22,529.12
51.7858,512.98,524.9
51.8062,512.98,520.52
51.8267,511.38,517.62
51.8472,509.71,516.49
51.8716,509.57,514.39
51.8922,509.85,515.51
51.9127,509.88,519.21
51.9332,510.11,523.57
51.9537,509.08,526.66
51.9742,508.67,530.72
51.9987,507.93,533.38
52.0192,507.55,534.9
52.0396,506.64,534.12
52.0601,505.91,533.3
52.0806,506.53,531.64
52.1051,507.02,528.51
52.1256,505.82,524.81
52.1461,505.25,521.25
52.1666,507.4,517.8
52.1871,505.52,512.04
52.2075,496.62,504.83
52.232,491.89,498.66
52.2526,488.52,497.53
52.2731,485.81,499.43
52.2935,484.65,501.34
52.314,485.92,505.87
52.3385,486.74,509.3
52.3591,488.39,513.04
52.3795,490.71,514.43
52.4001,492.37,518.34
52.4205,489.5,529.28
52.441,485.6,538.62
52.4655,481.28,540.5
52.4861,480.82,540.8
52.5065,479.86,536.44
52.5271,479.89,531.95
52.5475,481.71,527.36
52.568,483.97,525.09
52.5925,484.97,523.07
52.6131,487.58,522.86
52.6335,489.66,524.29
52.654,489.73,527.03
52.6744,501.58,525.22
52.699,518.27,520.58
52.7195,528.41,518.86
52.74,534.53,518.29
52.7605,536.42,517.03
52.7809,536.74,516.63
52.8015,535.19,514.9
52.826,534.55,513.72
52.8466,533.64,512.38
52.867,532.31,510.7
52.8876,530.45,508.56
52.9079,529.56,508.05
52.9325,527.45,509.24
52.953,525.56,511.19
52.9735,524.45,514.55
52.9957,528.16,520.24
53.0144,529.13,524.79
53.0349,528.7,530.04
53.0594,528.76,533.83
53.08,528.41,536.66
53.1005,526.33,537.33
53.1211,525.66,536.26
53.1414,525.73,535.41
53.166,525.58,532.33
53.1864,523.07,529.86
53.207,520.65,525.89
53.2275,518.92,522.91
53.2479,518.14,518.73
53.2684,517.91,515.98
53.2929,515.93,515.79
53.3135,515.74,516.23
53.3339,513.99,517.78
53.3545,512.2,520.83
53.3749,509.56,525.26
53.3995,508.85,529.21
53.4199,510.88,534.37
53.4405,510.9,540.29
53.4609,508.52,540.44
53.4815,502.22,533.15
53.502,498.97,521.52
53.5264,493.58,504.81
53.5469,488.26,485.65
53.5674,483.01,465.72
53.5879,480.01,447.78
53.6083,477.41,434.22
53.6328,473.93,426.98
53.6534,473.74,427.38
53.6739,475.19,433.31
53.6944,477.15,439.84
53.7149,479.52,449.88
53.7353,481.42,461.5
53.7598,483.13,474.6
53.7804,485.51,501.48
53.8009,484.81,543.78
53.8214,484.84,584.63
53.8418,485.48,608.9
53.8622,487.38,617.92
53.8868,487.7,616.34
53.9073,489.36,607.87
53.9278,490.49,596.9
53.9483,492.79,584.32
53.9688,492.63,573.25
53.9932,494.31,563
54.0138,495.05,555.2
54.0344,496.44,549.56
54.0548,498.55,545.25
54.0752,499.64,543.2
54.0957,502.11,542.16
54.1203,502.49,541.93
54.1408,506.99,540.74
54.1612,507.79,538.79
54.1817,508.23,536.83
54.2023,509.39,534.27
54.2267,509.51,531.01
54.2473,509.41,527.41
54.2678,510.13,524.33
54.2883,510.1,520.06
54.3087,508.88,516.45
54.3292,509.7,514.36
54.3538,511.76,512.29
54.3743,512.01,512.43
54.3947,512.61,513.74
54.4152,510.29,515.6
54.4357,508.63,519.28
54.4602,510.1,522.82
54.4808,510.08,525.66
54.5013,508.67,528.53
54.5217,510.33,531.62
54.5422,508.47,531.5
54.5628,508.77,530.6
54.5872,508.42,529.68
54.6077,506.93,527.34
54.6282,508.55,524.27
54.6487,508.04,521.62
54.6691,507.63,517.1
54.6937,506.7,515.28
54.7142,504.96,514.62
54.7347,503.37,512.5
54.7551,503.1,513.6
54.7756,504.68,516.08
54.7961,506.14,519.46
54.8206,506.51,522.37
54.8412,507.21,525.7
54.8617,507.57,527.76
54.8824,507.65,530.61
54.9026,506.72,530.08
54.9231,505.98,529.87
54.9476,503.98,527.89
54.9682,503.39,525.52
54.9886,503.51,522.41
55.0091,504.61,519.73
55.0296,504.69,516.18
55.0541,504.15,513.35
55.0746,516.32,508.48
55.0951,535.06,505.58
55.1156,549.24,504.47
55.136,557.8,506.57
55.1566,562.44,509.46
55.1811,562.75,512.77
55.2016,559.6,518.61
55.2221,557.08,523.49
55.2425,552.66,525.99
55.2631,547.93,528.39
55.2875,543.54,528.72
55.3081,539.64,527.37
55.3288,534.11,525.5
55.3491,529.89,522.6
55.3696,526.91,518.28
55.39,522.13,514.82
55.4145,515.7,512.26
55.435,509.96,510.61
55.4555,508.37,510.09
55.476,509.7,510.07
55.4965,511.96,512.85
55.5211,510.97,515.68
55.5415,508.17,520.55
55.5621,508.94,524.84
55.5825,506.95,526.67
55.603,506.36,528.74
55.6236,505.89,529.79
55.6481,507.31,527.83
55.6686,505.45,525.46
55.6891,505.36,520.37
55.7095,503.69,516.3
55.73,501.75,512.24
55.7545,503,506.79
55.775,504.8,503.23
55.7955,502.84,502.39
55.816,502.87,500.31
55.8366,503.9,500.65
55.857,503.12,502.32
55.8814,506.29,504.85
55.902,508.24,508.88
55.9226,510.39,512.51
55.9431,510.71,514.41
55.9635,508.77,516.12
55.9879,509.61,516.9
56.0084,508.29,517.52
56.029,507.43,517.42
56.0495,508.35,514.73
56.07,509.88,512.39
56.0904,507.7,508.31
56.115,509.16,505.85
56.1356,509.73,503.28
56.1561,509.38,501.42
56.1766,510.31,502.14
56.1969,510.25,503.51
56.2174,508.2,507.61
56.2419,507.16,512.69
56.2625,506.13,517.15
56.283,507.9,520.52
56.3034,508.52,524.22
56.3239,508.42,525.97
56.3484,508.13,526.58
56.3689,509.11,525.46
56.3895,510.69,523.37
56.41,512.75,521.7
56.4304,512.6,517.96
56.4509,509.48,513.77
56.4754,503.38,508.81
56.496,499.51,504.45
56.5165,496.01,502.96
56.5369,492.6,504.37
56.5574,492.88,506.09
