Program Time [s],data 0,data 1
3.47729,507.87,471.05
3.4773,513.7,481.04
3.47731,502.96,470.03
3.47732,517.57,476.23
3.47733,512.05,474.58
4.99442,511.6,514
5.01492,515.28,517
5.03544,514.62,521.6
5.05587,513.3,523.28
5.08035,514.04,528.02
5.1009,514.63,531.42
5.12141,513.71,530.34
5.14193,512.96,532.67
5.16236,511.97,528.73
5.18288,510.58,525.19
5.20738,511.46,522.95
5.22786,512.37,520.76
5.24836,512.9,515.61
5.26892,514.12,511.49
5.28938,516.69,511.79
5.3138,516.75,511.43
5.33447,517.6,513.95
5.35506,516.68,515.76
5.37539,516.55,518.2
5.39586,514.04,524.56
5.41639,514.43,528.65
5.44089,512.14,529.72
5.46132,509.51,530.58
5.48197,509.01,531.46
5.50235,507.21,531.37
5.52278,504.77,528.9
5.54329,505.41,523.12
5.56778,507.53,518.69
5.58831,507.43,514.55
5.60878,508.14,507.84
5.62928,511.31,505.87
5.64993,512.05,504.9
5.67425,514.84,506.12
5.69482,512.67,507.9
5.71528,510.74,512.12
5.7358,506.79,516.29
5.75624,513.43,518.83
5.77673,517.95,521.67
5.80128,521.56,522.73
5.82183,523.05,526.39
5.84226,522.44,529.11
5.86274,518.35,530.69
5.88322,518.48,529.55
5.90773,518.98,526.24
5.92833,521.39,524.39
5.94877,522.51,523.71
5.96932,520.61,520.57
5.9898,518.29,517.86
6.01023,517.83,516.89
6.03477,517.86,518.71
6.05528,516.69,517.37
6.07575,515.95,508.29
6.09622,514.76,494.03
6.11671,511.41,479.43
6.14118,504.13,462.34
6.16171,497.9,452.27
6.18223,493.72,441.62
6.20273,490.38,432.1
6.22327,495.3,430.48
6.24378,495.24,428.18
6.26821,495.59,429.54
6.28875,496.07,433.64
6.30924,497.66,441.11
6.32968,499.93,446.49
6.35015,496.74,466.79
6.37464,486.99,516.43
6.39527,473.4,587.55
6.41572,460.92,657.64
6.43621,448.93,719.91
6.45663,442.75,770.53
6.4771,439.4,798.62
6.50162,446.32,803.1
6.52215,460.65,786.88
6.54268,481.32,742.3
6.56313,508.06,679.44
6.5836,532.05,609.55
6.60807,549.84,548.64
6.62867,561.07,502.71
6.64921,566.66,470.77
6.66967,565.52,449.82
6.69018,563.62,435.25
6.71059,563.7,428.8
6.73508,559.76,425.84
6.75572,557.81,429.07
6.77624,554.04,436.06
6.79664,544.44,442.45
6.81712,539.15,454.76
6.83772,533.52,466.61
6.86206,531.61,476.49
6.88265,526.09,484.79
6.90337,522.67,491.23
6.92367,520.14,497.78
6.94408,519.71,501.83
6.96861,516.77,503.46
6.98908,515.02,504.37
7.00957,512.01,504.7
7.03007,511.21,503.36
7.05059,514.97,500.69
7.07104,512.97,498.15
7.09552,511.18,496.12
7.11611,511.54,498.49
7.13657,512.03,502.2
7.15705,510.03,504.56
7.17763,512.02,509.85
7.20202,511.82,515.08
7.22257,511.65,521.06
7.24303,511.72,525.25
7.26356,510.78,529.6
7.28402,512.62,530.68
7.30453,510.9,530.74
7.329,508.32,527.79
7.34966,506.86,525.84
7.36999,502.28,522.07
7.39068,504.63,518.85
7.41101,507.9,515.88
7.43555,512.92,517.71
7.45603,514.74,516.97
7.47652,514.79,515.77
7.497,519.83,516.82
7.51745,524.07,518.85
7.53802,526.05,521.68
7.56246,519.04,523.95
7.58301,516.83,529.36
7.60357,514.87,532.09
7.62408,513.69,536.67
7.64444,512.15,536.14
7.66908,510.72,534.91
7.68955,507.98,532.73
7.71,511.18,531.38
7.73042,512.35,528.3
7.75116,511.08,523.04
7.77138,512.26,516.64
7.79603,512.41,513.51
7.81652,511.13,510.21
7.83719,508.9,507.77
7.85742,510.52,508.61
7.87795,513.22,512.29
7.89836,512.17,516.63
7.92298,509.94,519.51
7.9434,508.75,524
7.964,506.2,527.4
7.98438,504.76,530.12
8.00495,505.01,531.1
8.02935,508.81,531.08
8.04988,512.05,531.26
8.07039,511.04,527.41
8.09086,508.63,523.13
8.1114,506.5,519.1
8.13183,506.4,514.48
8.15635,511.32,511.79
8.17693,505.46,509.03
8.19741,498.17,508.02
8.21802,492.13,509.22
8.2383,489.71,510.37
8.2628,490.17,517.1
8.28337,487.93,521.68
8.30387,485.95,525.54
8.32446,483.36,529.44
8.34493,483.89,531.35
8.36539,485.51,533.48
8.38985,490.21,532.58
8.41033,493.57,532.07
8.43117,496.85,530.45
8.45131,501.68,527.56
8.47197,502.35,523.25
8.49627,503.48,518
8.5168,503.38,514
8.53742,506.5,510.8
8.55779,502.6,509.04
8.57835,505.88,510.63
8.59884,508.11,511.91
8.62327,509.29,516.92
8.64386,508.23,521.14
8.6643,507.78,524.71
8.68494,504.63,527.97
8.70523,505.7,530.58
8.72972,507.76,534.06
8.75025,510.41,536.05
8.77078,512.13,535.64
8.79133,510.5,533.91
8.81179,508.4,534.73
8.83221,513.12,528.58
8.85686,514.1,518.07
8.87728,516.48,497.25
8.89777,520.98,477
8.91834,525.79,458.2
8.93875,528.03,442.36
8.95941,527.82,429.89
8.98389,522.46,423.31
9.00435,519.97,421.05
9.0249,518.57,421.84
9.0453,519.26,426.47
9.06582,517.21,430.78
9.09029,514.37,436.82
9.11071,513.69,444.26
9.13126,515.55,451.41
9.1517,511.64,460.12
9.1722,509.31,471.3
9.19265,508.05,504.84
9.21726,504.24,566.67
9.23772,496.79,638.34
9.25818,493.03,705.67
9.2787,493.03,749.74
9.2993,495.42,766.19
9.32367,502.14,754.55
9.34431,514.51,719.64
9.3647,530.81,670.51
9.3852,538.25,624.61
9.40563,541.2,586.69
9.42612,543.56,554.75
9.45066,542.25,531.8
9.4712,541.2,517.84
9.49169,536.16,504.87
9.51215,532.93,494.3
9.53266,530.54,485.04
9.55708,525.83,476.83
9.57782,527.47,472.46
9.59837,526.97,472.97
9.61863,525.18,474.58
9.63913,524.74,477.06
9.65961,527.79,478.05
9.68412,525.84,479.24
9.70465,525.47,487.79
9.72516,522.97,492.03
9.7456,519.98,497.63
9.76607,519.38,505.1
9.79055,518.91,510.68
9.81111,515.13,513.54
9.83159,513.5,517.24
9.85214,513.6,516.99
9.87261,511.68,514.59
9.89308,511.94,511.67
9.91757,512.96,508.74
9.93813,509.76,503.19
9.95866,512.41,500.55
9.97908,513.33,500.24
9.99959,512.66,500.59
10.0201,508.73,503.67
10.0445,508.98,514.94
10.0651,509.19,517.75
10.0857,507.35,522.2
10.1061,500.28,525.16
10.1265,498.42,523.13
10.151,496.74,526.9
10.1716,491.99,531.52
10.1921,494.79,531.82
10.2126,495.83,527.05
10.2332,494.27,516.64
10.2536,495.41,512.31
10.278,496.13,510.05
10.2986,503.31,515.04
10.3191,503.04,509.43
10.3395,508.24,510.55
10.36,506.99,510.64
10.3845,514.79,512.31
10.4051,525.83,517.85
10.4255,519.07,520.08
10.4461,524.05,523.26
10.4666,527.44,537.81
10.487,524.75,544.45
10.5115,518.8,542.76
10.532,515.04,541.41
10.5525,520.03,546.93
10.573,516.83,547.94
10.5934,519.26,543.35
10.618,514.41,538.68
10.6385,518.73,534.55
10.659,524.18,533.84
10.6794,525.35,532.67
10.7,520.68,525.34
10.7204,515.14,524.27
10.745,515.71,521.01
10.7654,517.37,522.41
10.786,522.5,526.13
10.8064,524,529.3
10.8269,525.8,531.84
10.8514,523.84,535.67
10.872,527.47,536.94
10.8924,517.58,536.15
10.9129,513.66,535.32
10.9334,510.33,531.86
10.9539,508.26,528.49
10.9783,510.41,525.39
10.999,510.13,520.31
11.0194,510.5,515.25
11.0399,515.4,510.4
11.0603,515.92,508.72
11.0848,516.74,505.78
11.1054,520.59,513.42
11.1259,517.47,516.54
11.1464,520.38,517.83
11.1669,528.9,526.46
11.1873,521.72,531.97
11.2119,523.18,533.18
11.2324,520.34,539.94
11.2529,520.07,544.35
11.2734,513.26,537.28
11.2938,514.01,534.03
11.3143,516.01,532.22
11.3388,515.8,529.58
11.3593,514.04,523.26
11.3798,512.43,519.41
11.4003,510.75,514.33
11.4208,513.8,514.26
11.4453,515.44,510.01
11.4658,513.35,509.41
11.4863,509.28,512.13
11.5068,508.42,515.9
11.5273,509.94,519.12
11.5478,508.55,523.3
11.5724,507.24,527.04
11.593,505.19,531.63
11.6133,504.75,532.1
11.6338,503.8,530.88
11.6542,502.44,529.91
11.6789,503.35,526.93
11.6992,502.88,524.14
11.7198,504.31,520.31
11.7403,506.45,516.85
11.7607,505.36,512.68
11.7812,505.49,508.34
11.8058,506.39,506.28
11.8263,504.31,505.62
11.8468,504.85,509.3
11.8673,504.48,512.04
11.8878,506.38,515.83
11.9124,503.51,519.86
11.9328,504.21,522.49
11.9533,505.76,525.19
11.9739,503.81,526.75
11.9943,500.85,528.4
12.0147,502.08,528.72
12.0393,504.66,523.98
12.0599,508.33,520.78
12.0803,507.86,518.43
12.1009,507.29,513.74
12.1213,507.83,510.19
12.1457,509.47,506.75
12.1662,510.17,504.6
12.1867,508.34,504.48
12.2072,509.27,506.99
12.2277,510.42,510.59
12.2483,509.33,514.07
12.2727,507.67,518.66
12.2933,509.13,523.33
12.3137,509.91,527.46
12.3342,510.93,533.17
12.3548,507.94,532.13
12.3753,505.95,520.51
12.3997,504.36,500.21
12.4202,502.69,478.17
12.4407,503.75,456.33
12.4611,503.6,435.67
12.4817,505.08,419.33
12.5061,504.66,409.67
12.5266,500.53,406.53
12.5472,498.23,405.83
12.5678,498.98,412.06
12.5881,496.78,421.45
12.6086,496.23,433.36
12.6332,494.18,462.69
12.6537,498.35,514.15
12.6741,502.48,586.92
12.6947,509.78,666.14
12.7153,520.62,734.31
12.7396,535.1,781.05
12.7601,552.08,803.64
12.7806,565.86,802.91
12.8011,572.09,778.53
12.8216,570.87,738.62
12.8421,566.1,680.1
12.8667,557.08,611.28
12.8871,547.66,541.02
12.9076,536.73,486.62
12.9281,531.18,454.09
12.9485,523.55,435.48
12.973,519.44,428.38
12.9936,513.95,427.7
13.0142,510.16,432.96
13.0346,506.13,439.17
13.0551,504.9,446.74
13.0755,502.12,455.39
13.1001,502.5,462.91
13.1206,504,468.73
13.141,505,471.58
13.1615,505.6,474.47
13.1822,504.48,475.77
13.2066,503.98,476.82
13.2271,505.79,478.05
13.2476,503.23,480.44
13.268,502.78,482.36
13.2885,503.23,487.88
13.309,503.18,494.91
13.3335,502.55,501.73
13.354,503.84,508.58
13.3745,504.67,514.66
13.3951,505.54,518.53
13.4156,507.43,523.43
13.436,507.14,527.14
13.4606,507.91,527.11
13.4811,508.93,525.09
13.5016,506.54,522.07
13.522,506.44,519.66
13.5424,505.95,517.33
13.567,505.96,512.26
13.5875,508.97,509.01
13.608,507.37,508.41
13.6286,508.9,507.53
13.649,511.12,510.42
13.6694,510.5,515.54
13.694,510.4,522.63
13.7144,510.72,525.7
13.735,510.77,529.56
13.7554,509.62,531.85
13.776,508.1,534.48
13.8004,508.28,534.58
13.821,509.02,533.67
13.8414,511.82,532.33
13.8621,510.85,529.47
13.8825,510.88,527.37
13.903,509.91,522.3
13.9275,510.32,517.24
13.9479,509.26,514.79
13.9684,510.41,513.63
13.9889,509.13,513.51
14.0094,509.9,514.21
14.0338,508.32,518.16
14.0544,507.06,522.93
14.0749,506.25,528.95
14.0953,506.2,533.76
14.1159,506.96,538.8
14.1364,504.77,540.84
14.1608,505.81,541.08
14.1814,505.65,540.46
14.2019,505.92,535.97
14.2224,505.34,531.17
14.2428,507.87,527.94
14.2673,509.5,524.55
14.2879,510.4,520.04
14.3085,511.32,520.03
14.3288,512.25,516.23
14.3494,512.6,514.58
14.3698,512.28,514.86
14.3943,511.03,516.89
14.4149,512.22,520.91
14.4354,509.58,525.93
14.4558,507.86,530.54
14.4764,507.29,531.64
14.4969,504.63,533.11
14.5213,503.51,533.09
14.5419,503.4,531.67
14.5624,503.92,529.94
14.5828,504.74,526.95
14.6034,503.19,523.96
14.6278,506.95,519.77
14.6483,507.76,515.21
14.6688,509.61,514.37
14.6892,509.09,511.5
14.7098,506.67,511.2
14.7303,509.34,509.76
14.7548,509.47,510.61
14.7753,508.98,512.49
14.7958,507.98,514.19
14.8162,506.58,516.75
14.8368,506.07,520.4
14.8612,506.45,522.52
14.8817,503.96,524.22
14.9023,504.57,525.97
14.9227,508.06,524.98
14.9432,508.25,521.98
14.9637,508,518.99
14.9882,510.6,515.19
15.0088,510.28,511.35
15.0295,510.02,509.88
15.0497,514.22,507.9
15.0702,512.57,508.32
15.0947,513.06,511.86
15.1153,511.45,514.69
15.1357,512.16,519.15
15.1563,511.73,523.92
15.1768,511.38,528.34
15.1972,509.5,530.27
15.2217,509.6,532.61
15.2422,508.08,532.09
15.2628,508.67,532.27
15.2831,506.73,529.82
15.3037,509.39,526.66
15.3282,510.51,523.52
15.3487,514.21,520.42
15.3692,518.77,518.74
15.3897,521.41,517.79
15.4102,521.33,516.63
15.4307,519.26,515.7
15.4552,519.81,518.16
15.4757,518.85,521.33
15.4962,519.08,523.86
15.5167,517.86,529.29
15.5372,514.49,533.83
15.5616,511.39,535.67
15.5822,510.71,536.93
15.6027,509.77,537.15
15.6232,510.82,536.72
15.6437,509.45,529.37
15.6642,508.16,512.3
15.6886,505.93,490.64
15.7092,500.74,464.51
15.7297,497,439.21
15.7502,489.8,418.77
15.7706,487.04,403.61
15.7911,481.23,394.89
15.8156,479.58,393.71
15.8362,477.67,398.17
15.8566,473.33,407.54
15.8771,475.07,418.43
15.8976,479.25,429.34
15.9221,477,444.27
15.9427,477.4,453.42
15.9632,478.12,467.74
15.9837,477.3,499.19
16.0041,474.44,555.95
16.0245,467.35,628.16
16.0491,462.28,694.53
16.0696,457.02,746.62
16.0901,460.62,771.3
16.1106,469.5,769.24
16.1311,487,743.99
16.1556,509.4,701.99
16.1761,532.52,645.39
16.1966,549.21,596.72
16.2171,557.17,558.17
16.2375,560.14,530.34
16.2581,561.91,510.47
16.2825,556.13,497.98
16.3032,553.1,489.38
16.3235,551.08,486.7
16.344,547.87,482.76
16.3646,543.09,479.01
16.3891,540.47,477.21
16.4096,537.58,479.37
16.4301,534.66,478.09
16.4505,535.13,478.27
16.471,533.1,476.42
16.4914,530.28,479.94
16.5161,525.83,483.95
16.5367,523.26,486.96
16.557,523.41,492.17
16.5774,520.33,497.93
16.5981,518.06,505.95
16.6185,518.05,509.96
16.643,515.24,515.97
16.6635,514.79,519.17
16.684,517.43,520.14
16.7045,517.15,521.11
16.725,515.12,523.49
16.7494,518.69,522.99
16.77,515.96,519.99
16.7904,513.16,516.59
16.811,513.13,513.28
16.8315,511.51,511.22
16.8519,513.2,509.58
16.8765,515.36,510.66
16.897,514.09,511.93
16.9175,513.87,514.74
16.938,511.5,517.59
16.9585,507.2,523.48
16.9828,506.76,527.18
17.0035,506.81,529.74
17.0239,504.45,529.2
17.0444,506.36,531.16
17.0648,507.69,531.33
17.0853,509.75,528.66
17.1098,509.2,524.73
17.1304,507.16,519.38
17.1509,506.93,513.91
17.1714,508.74,511.52
17.1919,511.19,507.62
17.2164,511.95,503.5
17.237,513.56,502.6
17.2575,511.85,503.68
17.2779,510.48,506.14
17.2983,511.38,511.11
17.3188,513.51,516.49
17.3433,511.81,519.39
17.364,510.84,524.71
17.3844,509.28,525.57
17.4048,508.02,525.66
17.4253,506.22,525.13
17.4498,502.97,521.9
17.4705,501.78,519.72
17.4908,503.62,514.38
17.5113,503.7,510.3
17.5319,504.96,506.24
17.5524,506.17,503.19
17.5768,505.93,502.75
17.5974,505.35,502.6
17.6179,504.08,504.08
17.6383,504.26,507.87
17.6587,502.61,511.69
17.6834,501.49,515.95
17.7038,500.39,520.36
17.7243,498.31,526.49
17.745,500.25,529.79
17.7653,501.4,532.03
17.7857,501.72,532.03
17.8103,501.38,531.02
17.8308,502.9,530.62
17.8513,505.52,527.69
17.8718,508.22,524.76
17.8923,509.17,521
17.9127,511.14,520
17.9373,511.71,515.2
17.9578,513.37,507.76
17.9782,509.09,496.01
17.9988,503.28,483.81
18.0193,499.02,474.05
18.0439,496.82,470.04
18.0642,496.85,472.03
18.0848,495.08,476.22
18.1054,494.47,481.78
18.1257,493.77,484.82
18.1463,495.02,488.66
18.1708,495.41,481.53
18.1913,492.13,467.42
18.2117,492.11,454.94
18.2321,494.08,442.95
18.2527,493.87,434.16
18.2771,494.69,431.13
18.2978,493.96,431.1
18.3183,494.56,434.48
18.3388,496.25,438.19
18.3592,499,446.55
18.3797,500.8,454.04
18.4041,501.64,463.43
18.4247,504.11,470.74
18.4451,506.09,480
18.4657,507.87,487.4
18.4863,510.7,492.52
18.5067,510.76,496.61
18.5311,510.81,497.69
18.5516,513.45,497.75
18.5722,513.36,498.2
18.5927,515.28,512.36
18.6131,520.43,547.09
18.6376,527.54,600.47
18.6581,541.63,656.18
18.6787,551.91,706.74
18.6992,557.93,741.99
18.7196,552.94,753.19
18.7402,543.75,740.36
18.7647,536.6,712.08
18.7852,527.88,675.27
18.8057,520.11,641.81
18.8262,517.48,607.25
18.8466,512.59,578.6
18.8711,509.27,553.68
18.8918,508.42,533.54
18.9121,505.53,515.44
18.9326,504.23,502.95
18.953,503.38,493.16
18.9736,502.9,485.93
18.9981,502.72,480.94
19.0186,503.98,477.55
19.0391,505.78,478.64
19.0595,509.03,481.71
19.08,510.02,487.97
19.1045,510.42,494.58
19.125,512.93,500.26
19.1457,514.75,506.21
19.166,516,512.57
19.1866,515.8,517.85
19.207,517.44,519.28
19.2315,517.35,520.43
19.2521,516.08,519.14
19.2725,516.66,518.11
19.2931,516.53,516.09
19.3135,514.03,513.87
19.338,512.02,511.1
19.3585,513.02,508.28
19.379,511.21,505.62
19.3995,511.37,505.7
19.4201,510.5,509.16
19.4405,511.6,513.93
19.465,512.28,519.34
19.4855,512.62,522.87
19.5062,513.3,527.3
19.5266,511.04,532.44
19.547,510.63,536.15
19.5675,508.9,536.52
19.592,508.92,538.62
19.6126,508.14,536.09
19.633,508.51,533.87
19.6535,507.81,527.9
19.674,507.25,522.12
19.6984,507.2,516.5
19.719,508.96,513.6
19.7395,505.57,510.88
19.7599,506.85,510.7
19.7804,506.28,510.36
19.8008,509.03,513.69
19.8254,510.02,515.75
19.8459,511.42,521.4
19.8664,509.93,523.72
19.8868,507.75,528.18
19.9073,505.6,531.14
19.9319,507.48,531.31
19.9524,506.78,531.45
19.9729,507.43,529.56
19.9935,506.74,526.85
20.014,505.99,523.68
20.0344,510.59,519.94
20.0588,505.88,516.35
20.0794,506.3,514.48
20.0999,507.24,514.19
20.1203,506.99,512.75
20.1409,508.19,513.6
20.1653,508.76,515.08
20.1858,508.6,519.46
20.2064,507.48,522.77
20.2269,509.79,526.82
20.2473,510.63,530.45
20.2678,509.1,531.96
20.2923,506.48,533.17
20.3129,506.79,532.74
20.3334,506.83,532.79
20.3538,506.66,530.03
20.3744,506.33,528.62
20.3988,508.46,525.5
20.4194,507.37,521.6
20.4398,505.9,518.08
20.4603,504.52,517.26
20.4808,505.81,516.81
20.5014,506.25,518.25
20.5258,506.2,518.6
20.5463,507.56,522.68
20.5669,507.45,527.14
20.5873,508.96,529.31
20.6078,508.37,531.65
20.6282,509.09,534.12
20.6528,510.68,535.3
20.6734,507.74,534.04
20.6938,507.39,532.63
20.7143,507.71,529.1
20.7348,506.17,525.28
20.7593,506.94,520.83
20.7798,507.75,516.26
20.8003,507.2,511.81
20.8208,504.76,510.25
20.8413,503.81,508.6
20.8617,505.85,509.08
20.8862,505.88,510.46
20.9067,507.3,514.17
20.9272,509.04,519.54
20.9477,507.43,524.43
20.9682,506.15,527.34
20.9928,506.92,530.47
21.0133,507.13,530.98
21.0339,508.71,529.98
21.0542,508.77,528.79
21.0747,506.41,526.03
21.0953,506.13,523.42
21.1197,507.5,519.34
21.1403,508,516.07
21.1608,504.6,513.66
21.1813,505.48,513.33
21.2017,509.19,513.46
21.2263,509.15,514.37
21.2467,509.12,518.49
21.2672,508.3,521.8
21.2876,510.44,524.84
21.3082,516.15,530.27
21.3286,518.72,533.82
21.3531,521.38,536.25
21.3737,522.1,537.6
21.3942,520.68,536.08
21.4147,520.34,533.67
21.4352,517.28,529.73
21.4596,518.42,526.59
21.4801,515.74,522.87
21.5007,514.99,519.09
21.5211,514.39,515.48
21.5416,514.31,514.58
21.5621,515.85,515.66
21.5867,517.08,514.93
21.6072,516.86,517.55
21.6277,517.09,519.84
21.6481,516.87,523.67
21.6686,516.5,526.74
21.6931,516.2,529.59
21.7137,513.56,529.47
21.7343,511.85,530.58
21.7546,513.88,530.66
21.7752,513.3,530.53
21.7955,513.44,528.82
21.82,511.15,525.46
21.8406,510.32,522.17
21.8611,509.86,510.93
21.8815,508.09,493.95
21.902,508.87,475.76
21.9225,506.1,458.81
21.9472,504.28,443.04
21.9676,503.42,430.04
21.988,501.54,419.83
22.0085,499.23,413.66
22.029,495.18,410.93
22.0536,495.55,412.34
22.074,493.84,415.08
22.0946,491.27,418.46
22.1152,491.02,424.57
22.1356,491.81,429.05
22.156,492.45,435.84
22.1806,495.16,440.27
22.2011,493.53,446.22
22.2216,492.42,454.58
22.242,489.34,470.66
22.2625,485.07,509.13
22.287,474.66,571.3
22.3075,464.13,641.04
22.328,455.7,702.83
22.3486,450.56,745.47
22.369,456.05,766.57
22.3895,471.44,761.46
22.4139,490.35,735.97
22.4346,514.68,692.37
22.455,536.14,644.9
22.4755,547.52,603.92
22.4959,553.21,567.94
22.5205,557.17,539.55
22.541,556.74,519.44
22.5615,552.79,502.15
22.582,549.43,489.12
22.6024,545.94,480.9
22.6229,542.36,476.72
22.6475,539.88,475.37
22.6681,538.71,476.3
22.6885,539.37,481.84
22.7089,537.49,487.87
22.7295,535.79,496.1
22.7539,533.44,501.08
22.7744,531.35,507.26
22.795,531.08,512.21
22.8154,525.66,515.37
22.8361,524.53,516.49
22.8564,522.62,516
22.881,517.7,515.4
22.9014,516.36,511.52
22.922,517.09,509.01
22.9425,516.07,504.81
22.9629,516.26,502.45
22.9833,515,501.76
23.0079,514,505.41
23.0284,517.2,507.73
23.049,517.36,511.18
23.0694,518.29,516.14
23.0899,518.83,520.12
23.1144,518.67,525.09
23.1349,519.53,528.47
23.1553,517.03,532.18
23.1758,515.42,532.54
23.1964,514.94,530.83
23.2169,512.55,528.07
23.2414,510.44,524.65
23.262,511.15,521.52
23.2824,508.92,518.42
23.3029,508.34,514.73
23.3233,504.87,512.19
23.3478,506.1,511.55
23.3683,504.48,512.64
23.3888,502.78,514.91
23.4093,501.03,515.93
23.4298,504.62,520.94
23.4504,503.7,526.76
23.4748,501.16,529.4
23.4953,503.33,531.72
23.5159,502.06,531.98
23.5363,504.85,531.98
23.5568,505.68,532.19
23.5812,506.34,528.95
23.6018,508.07,526.56
23.6224,506.86,524.65
23.6428,508.69,520.92
23.6633,508.75,516.13
23.6837,510,512.51
23.7082,508.6,510.41
23.7289,509.68,509.32
23.7493,510.94,510.46
23.7698,510.96,512.17
23.7903,511.16,516.13
23.8147,511.13,519.51
23.8352,511.91,524.21
23.8558,511.92,527.16
23.8764,511.94,530.33
23.8969,511.55,531.07
23.9173,509.84,530.65
23.9417,508.87,528.12
23.9623,506.9,527.7
23.9827,506.72,524.16
24.0032,506.17,520.13
24.0236,508.34,518.7
24.0441,502.87,514.76
24.0686,496.1,512.41
24.0892,492.68,513.33
24.1097,491.94,515.46
24.1303,492.15,519.37
24.1507,491.52,523.3
24.1752,493.22,526.44
24.1957,491.17,529.75
24.2163,491.54,534.2
24.2367,493.23,535.36
24.2572,493.59,534.69
24.2777,495.07,532.55
24.3022,500.25,532.64
24.3228,509.8,530.11
24.3432,518.04,525.69
24.3636,521.23,520.15
24.3841,524.19,517.12
24.4087,523.55,514.5
24.4292,524.44,512.4
24.4498,524.95,510.72
24.4702,522.56,510.97
24.4907,521.45,513.98
24.5112,519.16,517.98
24.5356,519.93,521.59
24.5563,519.74,526.27
24.5767,515.59,528.42
24.5971,516.87,530.33
24.6177,517.7,532.67
24.6422,516.96,530.93
24.6627,517.57,528.15
24.6832,513.45,525.12
24.7036,510.16,523.89
24.7241,509.73,520.71
24.7449,508.98,516.37
24.7691,507.39,513.7
24.7896,508.51,510.96
24.8101,507.81,510.57
24.8307,511.05,513.25
24.8511,508.44,514.8
24.8757,510.15,518.64
24.8961,511.52,522.71
24.9166,515.62,524.97
24.9371,520.29,527.18
24.9575,521.43,529.34
24.9781,523.55,531.47
25.0025,521.24,530.78
25.0231,519.99,528.62
25.0435,518.99,524.9
25.0642,517.79,520.32
25.0846,515.64,516.05
25.109,514.91,513.24
25.1296,515.73,511.2
25.1501,512.58,512.16
25.1706,513.06,515.92
25.191,513.85,510.54
25.2115,513.68,499.43
25.2361,516.55,485.75
25.2566,514.84,470.8
25.2771,510.27,457.84
25.2977,507.42,444.07
25.318,501.93,432.86
25.3385,499.35,424.08
25.363,495.28,419.87
25.3837,492.42,420.09
25.404,490.14,423.68
25.4245,490.31,427.34
25.445,492.05,433.07
25.4695,497.04,440.66
25.49,499.63,446.13
25.5104,499.9,453.1
25.531,500.12,461.08
25.5515,503.3,469.06
25.5719,502.24,478.85
25.5964,503.39,504.08
25.617,509.11,545.07
25.6375,513.49,600.65
25.6581,522.79,667.92
25.6785,541.03,726.74
25.7028,554.63,772.19
25.7234,572.9,801.35
25.7441,585.52,816.28
25.7645,596.22,820.03
25.7849,597.77,815.82
25.8056,594.62,799.46
25.8299,588.1,775.16
25.8505,578.68,739.53
25.8709,567.94,697.43
25.8913,552.95,650.54
25.912,534.36,594.03
25.9364,516.29,531.83
25.9568,499.43,474.46
25.9775,488.55,431.17
25.998,481.24,406.93
26.0184,475.99,397.55
26.0389,474.79,396.24
26.0634,476.03,398.79
26.084,476.03,403.83
26.1044,478.22,410.67
26.1249,480.98,416.13
26.1454,482.58,422.91
26.1699,482.47,429.33
26.1903,485.17,434.86
26.2109,487.94,440.69
26.2313,491.35,448.15
26.252,497.48,456.12
26.2723,500.38,463.9
26.2968,501.91,471.12
26.3173,502.93,479.49
26.338,504.54,487.39
26.3584,506.63,494.92
26.3789,508.91,502.33
26.3992,505.12,507.67
26.4237,505.3,511.33
26.4444,505.04,514.47
26.4648,505.43,514.77
26.4853,505.15,512.62
26.5058,507.72,512.29
26.5303,509.57,509.84
26.5508,510.26,507.87
26.5713,511.61,507.49
26.5918,509.29,506.2
26.6123,508.83,505.56
26.6327,510.06,507.05
26.6573,510.65,509.04
26.6779,512.92,514.83
26.6984,512.14,518.86
26.7187,511.51,523.89
26.7393,508.61,528.51
26.7637,508.89,531.81
26.7842,508.71,533.45
26.8047,507.97,533.16
26.8253,508.57,530.13
26.8458,508.66,525.9
26.8662,510.33,522.52
26.8907,511.26,519.22
26.9112,510.01,514.37
26.9317,508.01,510.5
26.9524,508.41,510.2
26.9728,510.92,509.16
26.9972,510.14,510.93
27.0177,509.51,514.14
27.0382,510.21,518.51
27.0588,509.77,523.01
27.0793,512.21,527.21
27.0997,511.37,529.57
27.1242,511.3,531.05
27.1448,509.44,531.84
27.1652,509.35,531.67
27.1857,512.68,530.34
27.2062,510.74,528.27
27.2306,510.4,524.82
27.2511,508.52,520.45
27.2717,508.41,515.36
27.2923,510.33,512.09
27.3127,513.66,510.47
27.3332,511.13,509.58
27.3578,512.11,511.66
27.3781,511.08,515.93
27.3987,514.47,519.74
27.4191,514.97,523.8
27.4396,513.38,527.24
27.4641,512.5,530.99
27.4846,511.6,533.39
27.5051,511.68,533.71
27.5257,509.15,532.97
27.5462,506.92,530.98
27.5666,507.13,529.98
27.5912,506.11,525.38
27.6116,506.49,520.91
27.6321,507.79,518.53
27.6526,508.03,514.62
27.6731,509.42,514.5
27.6936,510.34,513
27.7181,512.87,516.4
27.7387,514.7,519.92
27.7591,516.56,522.33
27.7795,515.65,525.87
27.8,514.32,529.49
27.8246,515.05,532.4
27.8452,514.84,534.12
27.8657,514.47,536.49
27.8862,510.78,535.39
27.9066,507.62,532.52
27.927,508.5,528.01
27.9516,508.4,521.41
27.9721,506.92,516.53
27.9926,509.34,514.42
28.0131,509.67,510.74
28.0336,510.33,508.79
28.058,512.27,510.23
28.0786,511.81,511.79
28.099,511.65,514.23
28.1196,511.72,519.58
28.14,511.78,521.87
28.1605,511.62,525.89
28.1851,509.9,527.51
28.2055,510.72,528.61
28.226,512.57,529.49
28.2466,511.06,530.99
28.2671,513.45,528.39
28.2915,511.56,526.51
28.3121,513.05,523.21
28.3326,512.84,519.17
28.3531,513.67,515.94
28.3736,514.54,512.35
28.3941,513.43,509.48
28.4184,514.74,509.58
28.4391,513.79,509.67
28.4595,513.84,512.53
28.4801,515.27,517.03
28.5005,514.61,523.62
28.525,517.29,528.3
28.5454,512.43,528.64
28.5661,506.75,519.31
28.5865,500,505.45
28.6069,494,489.36
28.6275,491.2,472.09
28.652,487.36,456.87
28.6724,481.29,439.7
28.693,480.63,426.56
28.7135,478.5,417.45
28.7339,475.2,412.76
28.7544,475.96,415.8
28.7789,477.97,428.04
28.7995,477.38,452.44
28.8199,473.7,507.15
28.8405,469.76,584.12
28.8609,466.61,665.69
28.8854,469.49,729.56
28.9059,476.99,764.84
28.9264,487.99,767.08
28.947,506.59,744.26
28.9674,522.27,697.81
28.9878,531.02,646.45
29.0123,541.62,600.76
29.033,544.49,560.81
29.0535,543.99,529.84
29.074,542.2,505.88
29.0944,540.56,488.7
29.1189,538.85,478.56
29.1394,536.88,471.25
29.1599,534.7,469.4
29.1804,532.36,472.32
29.2009,528.29,477.86
29.2214,526.43,484.68
29.2458,524.94,491.95
29.2664,522.16,499.76
29.2869,519.12,504.61
29.3073,515.9,506.89
29.3278,517.32,508.71
29.3523,516.66,507.77
29.3729,515.92,507.81
29.3934,515.54,506.25
29.4139,513.23,504.4
29.4345,512.79,501.12
29.4549,511.03,501.3
29.4793,511.82,502.04
29.4999,512.66,500.03
29.5203,516.93,498.62
29.5407,518.14,500.3
29.5613,519.91,503.04
29.5857,521.13,507.43
29.6063,520.7,512.15
29.6269,518.76,516.92
29.6473,518.01,520.13
29.6677,517.61,523.51
29.6883,515.49,524.21
29.7128,514.79,524.96
29.7333,514.03,522.57
29.7539,515.43,519.26
29.7743,513.74,516.01
29.7947,512.59,514.8
29.8192,512.87,510.84
29.8397,514.7,509.47
29.8603,515.96,508.98
29.8808,517.37,509.18
29.9013,514.69,515.55
29.9217,513.56,521.84
29.9462,512.64,527.47
29.9668,513.32,533.78
29.9872,510.45,536.82
30.0078,509.96,538.26
30.0283,512.37,538.01
30.0486,513.9,536.6
30.0733,511.72,534.28
30.0938,508.57,529.83
30.1142,508.46,526.46
30.1347,508.17,523.17
30.1551,506.33,518.34
30.1797,508.27,512.47
30.2002,509.21,510.57
30.2208,508.97,509.86
30.2413,507.58,509.69
30.2618,507.46,512.95
30.2821,507.97,515.96
30.3066,510.18,521.77
30.3274,508.54,526.01
30.3476,511.23,530.01
30.3682,512.39,534.81
30.3886,511.91,535.05
30.413,511.93,535.84
30.4336,512.74,532.27
30.4541,510.79,528.62
30.4746,507.83,523.89
30.4951,506.27,518.71
30.5156,507.21,515.17
30.5402,506.77,510.34
30.5608,505.82,509.07
30.5812,505.25,508.66
30.6016,507.2,509.52
30.6221,508.16,512.82
30.6465,506.93,516.66
30.667,507.34,521.72
30.6876,508.08,527.58
30.7082,511.46,531.46
30.7287,510.37,534.77
30.7492,510.89,534.42
30.7738,510.92,534.13
30.7941,511.33,532.51
30.8146,509.67,529.81
30.8351,509.13,527.24
30.8556,508.11,523
30.8801,507.69,518.2
30.9007,509.15,514.36
30.9213,511.72,510.89
30.9417,512.97,507.11
30.9621,514.18,507.69
30.9826,515.14,510.35
31.007,515.92,515.08
31.0275,517.93,519.26
31.0481,516.75,524.41
31.0685,514.4,528.73
31.089,515.52,529.78
31.1095,514.01,530.43
31.134,509.21,529.74
31.1546,510.57,528.99
31.175,510.26,527.19
31.1955,510,524.36
31.2162,508.6,519.48
31.2405,507.48,516.79
31.261,511.79,514.03
31.2816,513.43,512.02
31.302,513.54,512.02
31.3225,512.23,512.62
31.343,511.19,516.49
31.3674,511.95,521.19
31.388,512.96,526.36
31.4085,514.17,531.88
31.4289,513.93,536.31
31.4495,515.15,539.05
31.474,514.12,539.24
31.4945,512.49,537.79
31.5151,512.2,536.03
31.5356,510.96,532.63
31.556,509.77,529.3
31.5765,510.21,525.64
31.6009,510.17,520.71
31.6215,508.94,516.57
31.6419,509.55,513.86
31.6625,511.84,512.68
31.6829,514.07,513.35
31.7074,514.26,515.48
31.7279,514.21,518.98
31.7484,512.16,523.59
31.7689,511.93,527.47
31.7894,509.35,530.98
31.81,508.28,532.98
31.8345,509.02,532.98
31.855,509.22,532.39
31.8754,508.57,530.31
31.8959,508.46,527.05
31.9164,509.57,523.24
31.9408,509.25,520.99
31.9615,508.4,518.39
31.9819,510.72,515.91
32.0024,510.78,513.13
32.0228,512.22,512.51
32.0434,511.98,514.4
32.0678,512.78,520.12
32.0884,514.63,527.5
32.109,513.9,527.6
32.1295,509.32,520.88
32.15,506.26,508.3
32.1743,502.01,490.04
32.1949,496.2,469.83
32.2153,490.56,448.87
32.2359,486.25,430.89
32.2563,483.2,417.72
32.2769,477.56,407.17
32.3013,477.85,402.14
32.3218,478.08,400.51
32.3423,478.66,403.41
32.3628,481.73,412.93
32.3833,485.18,424.94
32.4037,481.95,463.95
32.4283,472.16,535.76
32.449,460.53,620.41
32.4695,449.42,698.93
32.4898,441.54,762.54
32.5103,439.63,807.83
32.5348,441.5,835.27
32.5554,446.2,842.01
32.5759,457.76,828.41
32.5963,471.61,797.13
32.6167,487.69,748.1
32.6372,506.15,683.48
32.6619,527.32,605.19
32.6823,547.26,528.55
32.7028,560.01,462.84
32.7232,566.2,419.87
32.7437,569.56,397.9
32.7682,572.65,387.52
32.7887,570.52,386.21
32.8092,566.82,392.57
32.8297,560.65,403.46
32.8502,556.92,416.37
32.8707,553.34,431.29
32.8952,548.07,443.63
32.9157,542.86,455.91
32.9362,539.89,465.33
32.9567,537.51,471.86
32.9772,537.01,476.69
33.0017,531.21,479.35
33.0222,529.56,482.08
33.0427,526.85,484.66
33.0632,524.08,486.73
33.0837,522.66,488.79
33.1042,520.33,492.63
33.1287,519.87,496.1
33.1492,520.09,502.28
33.1697,516.47,508.83
33.1901,515.18,515.06
33.2106,515.34,519.45
33.2351,516.87,523.76
33.2557,516.5,526.01
33.2763,515.6,526.21
33.2967,514.88,526.76
33.3172,514.9,526.61
33.3377,513.72,527.09
33.3623,510.38,523.47
33.3827,511.3,520.78
33.4032,511.44,516.22
33.4237,511.55,513.38
33.4442,510.84,510.3
33.4646,511.67,509.04
33.4893,512.94,510.03
33.5098,511.95,513.23
33.5301,512.76,518.18
33.5506,512.21,521.15
33.5711,512.37,524.92
33.5956,512.69,528.53
33.6162,513.36,531.83
33.6366,514.48,533.26
33.6571,514.99,534.61
33.6776,513.59,531.89
33.6981,511.47,527.51
33.7225,511.38,523.01
33.7431,508.7,519.41
33.7636,507.16,515.12
33.784,505.53,512.7
33.8045,503.62,510.36
33.8291,505.5,510.29
33.8496,508,510.43
33.8701,509,512.14
33.8905,510.6,514.32
33.911,510.48,517.65
33.9316,511.98,520.12
33.956,512.99,520.7
33.9766,514.39,522.36
33.9971,511.91,523.69
34.0176,510.53,522.75
34.0381,505.02,522
34.0625,504.62,518.8
34.0831,506.1,516.04
34.1035,506.68,511.83
34.1241,504.34,510.87
34.1445,504.67,507.49
34.1651,508.54,508.99
34.1894,513.03,509.2
34.21,514.42,510.76
34.2305,511.54,514
34.251,511.63,517.2
34.2715,513.11,522.36
34.296,512.08,526.09
34.3165,508.67,529.47
34.337,510.73,531.38
34.3575,512.59,533.3
34.3779,513.07,537.04
34.3984,511.86,538.23
34.4229,512.08,537.19
34.4435,511.67,533.35
34.4641,510.33,530.48
34.4847,508.27,526.78
34.5049,509.81,525.03
34.5294,511.45,522.22
34.55,509.36,519.38
34.5705,511.89,519.7
34.591,511.71,520.56
34.6115,511.57,523.65
34.632,510.46,527.52
34.6563,510.56,531.82
34.677,512.65,534.85
34.6975,510.12,538.48
34.7181,508.5,538.39
34.7384,508.6,538.31
34.7588,507.88,537.65
34.7834,507.1,533.32
34.8039,506.88,530.25
34.8245,507.31,526
34.8449,507.44,521.2
34.8653,506.96,517.76
34.8899,506.16,515.01
34.9103,509.93,514.81
34.9309,510.95,515.45
34.9514,512.96,518.36
34.9718,515.77,521.69
34.9924,514.61,524.55
35.0168,515.49,527.64
35.0373,515.39,530.91
35.0579,512.91,531.93
35.0785,513.13,532.34
35.0989,513.3,531.67
35.1234,513.04,531.54
35.1438,509.83,528.83
35.1643,509.27,525.47
35.1848,509.41,521.57
35.2054,507.73,518.06
35.2259,508.39,513.65
35.2504,507.31,510.72
35.2708,508.45,509.97
35.2914,510.16,510.18
35.3119,512.93,513.74
35.3325,512.34,516.99
35.3568,513.07,522.4
35.3773,514.86,526.72
35.3979,515.09,529.17
35.4185,515.67,532.74
35.4389,516.54,532.59
35.4593,514.23,532.07
35.4839,512.38,531.06
35.5043,511.71,527.05
35.5248,511.76,523.84
35.5453,514.21,520.07
35.5658,514.17,515.66
35.5903,511.54,513.32
35.6108,511.83,513.66
35.6313,514.26,514.93
35.6518,516.21,516.94
35.6723,515.77,518.35
35.6928,514.21,520.08
35.7173,514.97,523.47
35.7379,514.58,527.77
35.7582,512.06,532.82
35.7787,511.65,536.05
35.7991,511.12,536.44
35.8197,511.7,537.56
35.8442,511.36,534.84
35.8647,509.09,532.08
35.8853,505.87,529.26
35.9058,503.69,525.21
35.9262,505.16,520.37
35.9506,504.92,518.69
35.9713,502.14,515.75
35.9917,500.91,515.8
36.0122,504.93,517.24
36.0327,507.54,520.19
36.0531,510.43,524.16
36.0777,509.95,527.32
36.0982,511.36,531.46
36.1187,512.09,535.37
36.1391,512.27,537.29
36.1596,511.02,537.44
36.1841,509.41,536.95
36.2046,506.13,535.36
36.2252,508.3,529.29
36.2456,509.24,521.03
36.2661,504.59,508.42
36.2866,498.48,490.74
36.3111,491.78,471.79
36.3317,487.22,451.03
36.3521,482.38,434.03
36.3727,477.9,420.22
36.3931,476.92,411.58
36.4175,478.54,408.26
36.4381,479.63,410.01
36.4586,482.5,414.41
36.4792,484.4,420.73
36.4997,488.52,429.18
36.52,491.82,437.94
36.5445,490.45,451.56
36.5651,487.16,473.04
36.5856,473.33,511.64
36.6061,457.86,571.51
36.6265,445.29,638.01
36.651,434.83,695.01
36.6716,428.87,738.8
36.6921,427.29,769.04
36.7126,431.83,782.43
36.7331,443.07,780.95
36.7535,457.05,766.36
36.7781,476.04,737.29
36.7986,499.43,693.43
36.819,524.75,637.54
36.8395,549.8,576.43
36.86,572.64,521.15
36.8806,584.71,483.12
36.905,589.37,459.29
36.9255,590.5,445.44
36.9461,588.6,437.55
36.9665,584.48,432.64
36.987,577.78,431.71
37.0115,568.03,432.17
37.032,560.82,434.94
37.0525,552.86,439.55
37.073,548.48,447.04
37.0934,545.59,456.63
37.114,542.47,466.5
37.1384,541.78,475.8
37.159,539.02,485.84
37.1795,537.02,493.27
37.2,537.21,502.82
37.2204,533.77,509.06
37.2449,530.42,512.44
37.2654,529.53,514.76
37.286,526.83,515.4
37.3065,524.66,515.92
37.327,522.93,513.74
37.3474,524.94,513.19
37.3719,521.15,510.95
37.3926,518.52,509.36
37.413,519.42,508.89
37.4334,517.94,508.11
37.454,518.15,508.49
37.4784,518.32,511.79
37.4989,516.25,516.43
37.5195,511.2,520.95
37.5399,511.56,525.76
37.5604,513.05,531.21
37.5809,514.04,534.96
37.6054,513.43,536.17
37.6259,512.15,535.94
37.6464,510.92,535.35
37.6669,508.53,533.08
37.6873,507.83,528.66
37.7118,507.46,524.33
37.7323,508.17,522.46
37.7529,508.34,520.17
37.7734,509.87,517.14
37.7938,511.49,515.31
37.8143,511.8,517.05
37.839,511.44,517.64
37.8594,510.55,520.51
37.88,513.04,525.61
37.9004,512.83,529.29
37.9208,515.87,532.83
37.9414,515.29,534.26
37.9658,514.43,534.41
37.9864,514.95,533.93
38.0069,516.16,534.34
38.0274,513.53,531.07
38.0479,512.02,527.86
38.0723,508.02,524.09
38.0928,508.41,520.47
38.1134,508.33,516.38
38.1338,509.86,514.3
38.1543,510.89,512.44
38.1748,509.11,513.55
38.1994,508.49,515.44
38.2199,506.59,517.95
38.2404,509.27,522.36
38.2609,510.02,524.69
38.2813,508.02,529.95
38.3058,507.81,530.96
38.3264,507.05,531.37
38.3469,505.64,530.9
38.3674,508.31,531.12
38.3878,506.65,529.89
38.4084,503.52,526.31
38.4328,506.62,522.45
38.4533,508.49,516.76
38.4738,507.79,513.81
38.4943,509.84,512.85
38.5148,510.27,513.28
38.5393,507.81,511.02
38.5598,512.05,513.82
38.5802,511.84,517.85
38.6008,512.87,521.28
38.6213,512.9,524.03
38.6419,511.72,527.22
38.6662,509.78,528.38
38.6868,511.02,531.5
38.7073,508.02,532.6
38.7277,506.01,531.68
38.7482,505.81,529.14
38.7727,504.05,527.12
38.7932,503.04,522.89
38.814,502.03,518.11
38.8342,502.02,513.29
38.8547,503.22,510.83
38.8753,505.58,510.47
38.8996,506.06,511.17
38.9202,506.85,513.74
38.9408,507.68,518.79
38.9613,506.34,521.63
38.9818,507.07,525.51
39.0022,513.06,528
39.0266,518.05,531.2
39.0473,515.64,532.56
39.0678,517.51,531.85
39.0881,517.41,530.48
39.1087,516.33,529.58
39.1331,516.66,525.07
39.1538,513.73,522.65
39.1743,510.58,517.52
39.1947,513.27,515.22
39.2152,513.01,513.17
39.2356,515.21,512.34
39.2601,512.37,512.07
39.2807,513.49,512.86
39.3012,515,516.89
39.3216,515,520.31
39.3421,514.2,525.45
39.3666,513.16,527.76
39.3872,510.13,531.61
39.4077,511.3,534.28
39.4282,511.24,533.63
39.4486,510.39,532.1
39.4691,509.71,530.48
39.4936,510.17,529.19
39.5141,508.74,525.35
39.5347,508.99,522.08
39.5552,506.79,519.26
39.5757,509.23,516.61
39.6001,508.79,517.69
39.6205,510.03,518.55
39.6411,509.22,516.24
39.6617,511.78,510.19
39.6821,510.42,499.55
39.7026,510.14,488.84
39.7271,507.51,478.07
39.7476,503.41,468.06
39.7682,503.53,459.05
39.7886,502.42,452.04
39.809,500.74,447.63
39.8336,498.99,447.5
39.8541,498.59,448
39.8745,501.27,451.2
39.8951,501.02,477.36
39.9156,497.02,528.49
39.9361,488.81,597.59
39.9605,478.45,663.27
39.9812,470.76,718.82
40.0015,465.41,761.46
40.022,455.53,791.36
40.0425,448.82,811.09
40.0631,442.06,817.87
40.0874,439.65,815.1
40.108,442.32,810.88
40.1286,449.05,802.3
40.149,461.04,789.24
40.1694,476.63,772.99
40.194,492.11,742.8
40.2145,505.09,704.04
40.235,515.27,658.03
40.2555,526.41,604.82
40.2759,534.53,542.26
40.2964,544.83,470.81
40.3209,553.66,399.45
40.3415,560.33,334.56
40.362,563.06,289.85
40.3825,562.85,271.08
40.403,563.08,270.46
40.4275,561.86,279.97
40.4479,558.29,297.37
40.4684,553.43,316.5
40.4889,547.75,337.6
40.5094,545,357.88
40.5299,542,375.3
40.5544,537,390.04
40.575,536.6,403.03
40.5955,536.68,416.43
40.616,536.74,427.74
40.6363,534.99,437.39
40.6609,531.8,447.12
40.6814,529.84,454.69
40.702,527.87,464.35
40.7224,525.5,472.28
40.7429,526,481.63
40.7634,523,490.5
40.7879,523.4,498.8
40.8084,523.32,507.64
40.8289,523.25,517.11
40.8494,522,521.09
40.8701,522.4,524.67
40.8903,516.72,526.94
40.9148,513.38,524.95
40.9354,511.5,522.36
40.9559,509.8,518.69
40.9764,508.44,515.95
40.9968,508.15,511.96
41.0213,509.72,508.97
41.0419,508.38,508.37
41.0623,510.1,508.3
41.0828,511.28,510.24
41.1033,511.83,514.19
41.1238,510.86,518.95
41.1483,511.09,523.76
41.1689,511.47,528.21
41.1893,512.38,530.97
41.2098,513.1,531.57
41.2303,512.88,531.26
41.2548,512.1,530.41
41.2754,510.88,529.53
41.2958,506.51,526.62
41.3164,505.21,523.3
41.3368,505.56,525.84
41.3573,503.85,528.67
41.3818,503.68,528.94
41.4023,501.55,530.75
41.4228,502.84,530.4
41.4433,503.47,532.12
41.4638,504.78,534.3
41.4883,507.22,537.44
41.5088,508.78,539.55
41.5294,509.82,540.84
41.5497,509.46,542.87
41.5704,508.97,543.5
41.5908,508.77,543.6
41.6152,509.62,541.08
41.6357,507.89,537.46
41.6563,509.32,532.37
41.6767,509.25,527.9
41.6973,507.2,523.12
41.7216,507.96,518.89
41.7422,507.57,516.51
41.7627,509.26,513.01
41.7833,511,512.01
41.8038,510.4,513.01
41.8243,509.52,517.81
41.8487,512.62,518.64
41.8693,516.29,514.12
41.8898,517.44,513.69
41.9102,518.15,515.55
41.9307,518.72,517.04
41.9512,517.58,517.43
41.9757,517.06,517.15
41.9962,517.05,514.72
42.0168,517.24,512.17
42.0372,516.59,509.14
42.0576,516.07,505.71
42.0821,515.46,503.37
42.1027,511.57,502.9
42.1233,512.05,502.92
42.1437,512.44,504.13
42.1643,514.55,507.31
42.1846,515.24,510.05
42.2091,515.59,514.44
42.2297,517.68,518.95
42.2501,516.54,523.96
42.2706,515.03,526.57
42.2912,514.03,529.45
42.3157,512.42,531.36
42.3361,510.34,531.09
42.3566,507.67,528.87
42.3771,506.74,525.7
42.3977,505.79,522.36
42.418,506.03,520.29
42.4427,507.42,516.83
42.4632,506.34,513.46
42.4837,507.67,511.97
42.5041,507.14,512.18
42.5247,507.31,513.74
42.5491,505.05,514.99
42.5696,506.04,518.39
42.5901,507.23,522.92
42.6105,510.18,527.93
42.631,510.55,531.55
42.6517,508.64,534.04
42.6762,510.51,534.63
42.6968,508.41,533.1
42.7171,510.53,531.48
42.7375,509.42,526.39
42.758,510.34,523.11
42.7825,511.27,519.09
42.803,510.62,514.67
42.8235,512.29,511.94
42.8441,512.03,510.35
42.8646,511.63,510.48
42.885,513.1,510.98
42.9096,511.88,513.79
42.9301,512.91,518.23
42.9506,513.72,521.98
42.9711,512.58,525.99
42.9916,512.26,530.79
43.016,512.81,533.83
43.0367,510.45,534.27
43.057,509.96,532.81
43.0775,508.37,532.05
43.0981,507.69,528.64
43.1185,506.35,525.91
43.143,505.68,520.13
43.1635,505.55,516.3
43.184,506.64,512.84
43.2045,510.71,511.27
43.225,512.77,511.62
43.2454,515.81,512.3
43.2701,517.45,515.44
43.2906,519.96,518.75
43.3111,521.17,522.4
43.3316,522.14,526.12
43.352,523.31,530.9
43.3765,523.85,533.52
43.3969,524.88,534.01
43.4176,521.3,532.41
43.4379,520.44,528.73
43.4585,516.55,527.78
43.4789,516.24,524.23
43.5035,515.39,519.78
43.5241,511.32,516.02
43.5445,512.25,513.02
43.565,512.8,512.02
43.5854,510.84,512.01
43.61,510.87,511.81
43.6305,511.9,514.85
43.651,510.72,518.28
43.6715,510.18,522.42
43.6918,510.14,528.14
43.7125,511.71,534.11
43.7369,512.77,537.69
43.7575,509.22,537.35
43.778,505.57,530.48
43.7983,501.46,514.78
43.8188,497.37,492.43
43.8435,492.69,470.14
43.864,488.15,448.11
43.8845,484.92,429.49
43.905,484.14,417.19
43.9254,482.11,410.75
43.946,481.29,408.8
43.9704,484.03,413.64
43.991,483.02,429.31
44.0115,476.42,459.05
44.0318,466.54,510.44
44.0524,454.63,579.75
44.0769,440.5,654.6
44.0974,429,716.08
44.1178,424,761.07
44.1383,425.8,789.85
44.159,428.64,802.08
44.1793,436.51,795.27
44.2038,448.21,773.41
44.2243,462.77,739.93
44.2448,481.41,694.34
44.2653,504.73,637.88
44.2857,528.39,575.1
44.3062,552.31,514.88
44.3307,571.05,470.9
44.3514,577.44,443.32
44.3718,580.55,427.46
44.3922,579.44,422.17
44.4128,577.95,423.53
44.4373,575.76,428.63
44.4578,569.81,434.1
44.4783,565.25,445.88
44.4989,560.2,452.51
44.5193,551.96,457.2
44.5398,550.17,461.76
44.5642,545.93,464.81
44.5847,541.35,465.85
44.6054,538.08,468.48
44.6258,533.86,472.58
44.6463,530.69,474.87
44.6708,527.75,477.89
44.6913,527.2,482.31
44.7117,526.76,488.65
44.7322,525.81,495.72
44.7528,524.65,503.98
44.7732,520.72,508.98
44.7977,520.17,514.59
44.8184,518.94,519.27
44.8389,517.55,520.61
44.8593,516.84,521.29
44.8798,513.07,519.83
44.9042,512.66,517.67
44.9247,511.13,514.93
44.9453,511.7,512.95
44.9658,511.16,509.16
44.9863,509.53,506.33
45.0068,510.02,505.06
45.0313,512.02,505.05
45.0517,514.41,507.04
45.0722,514.53,511.83
45.0926,514.43,516.86
45.1131,513.74,520.89
45.1376,512.79,524.71
45.1583,512.63,529.17
45.1787,512.71,530.94
45.1992,508.97,531.55
45.2197,505.97,531.44
45.2401,509.38,530.15
45.2647,510.3,527.32
45.2852,509.04,524.66
45.3057,509.03,520.93
45.3262,508.83,517.14
45.3466,509.46,514.11
45.3671,508.37,512.09
45.3916,507.7,512.07
45.4122,509.36,513.26
45.4326,510.49,515.81
45.4531,511.99,518.84
45.4736,509.19,522.08
45.4982,510.35,526.26
45.5187,510.68,531.21
45.5392,509.55,532.97
45.5596,510.44,534.17
45.5802,509.15,534.94
45.6005,511.32,533.15
45.6251,508.66,529.72
45.6457,509.12,525.98
45.6661,509.7,522.98
45.6867,510.16,519.99
45.7071,510.73,516.19
45.7315,508.78,514.35
45.752,509.83,514.68
45.7726,511.66,515.14
45.793,515.73,516.72
45.8136,514.18,521.97
45.8341,511.75,526.98
45.8585,510.2,530.98
45.8792,507.36,534.39
45.8996,507.09,536.31
45.92,506.27,536.65
45.9406,507.22,536.12
45.9651,506.97,534.09
45.9856,506.38,531.08
46.0061,508.7,526.86
46.0266,506.36,523.89
46.0471,504.69,519.11
46.0676,505.95,515.29
46.092,506.16,513.23
46.1127,508.13,513.98
46.1331,507.7,514.99
46.1535,510.16,517.39
46.1741,510.53,521.71
46.1984,513.22,526.97
46.2191,512.78,529.98
46.2395,512.62,532.58
46.2602,512.3,534.46
46.2804,512.84,535.17
46.3009,511.67,535.54
46.3255,510.54,532.03
46.3459,515.03,526.62
46.3666,515.62,521.7
46.387,516.3,518.36
46.4075,516.64,513.29
46.4319,519.11,509.23
46.4525,515.89,506.98
46.473,512.51,507.59
46.4935,516.01,508.07
46.514,513.21,512.06
46.5343,511.97,517.64
46.5588,511.57,521.12
46.5794,511.66,522.89
46.5999,512.93,525.91
46.6204,515.34,527.93
46.6408,515.87,528.75
46.6614,518.1,529.6
46.6859,518.08,530.28
46.7065,513.26,526.82
46.727,511.01,523.06
46.7474,510.61,517.65
46.768,511.69,512.72
46.7924,512.95,508.77
46.813,512.56,506.22
46.8334,511.45,506.37
46.8539,511.96,508.1
46.8744,513.97,511.08
46.8949,513.77,513.46
46.9194,512.62,516.57
46.94,512.29,521.46
46.9604,513.24,526.57
46.9808,513.59,531.25
47.0014,511.47,532.6
47.0258,510.98,533.08
47.0465,510.18,531.47
47.0669,510.75,528.37
47.0875,509.4,518.7
47.1078,509.72,503.76
47.1283,507.17,485.61
47.1529,502.34,464.69
47.1733,498.87,446.35
47.1938,494.1,428.88
47.2144,492.68,418.1
47.2348,489.74,414.08
47.2592,489.59,412.87
47.2799,488.27,416.49
47.3003,489.42,422.99
47.3207,488.94,429.6
47.3413,488.35,437.28
47.3617,486.68,444.42
47.3863,486.74,450.54
47.4068,488.39,456.03
47.4273,488.72,460.42
47.4477,487.97,464.14
47.4682,489.18,467.51
47.4927,490.94,469.61
47.5132,492.75,472.09
47.5338,495.8,476.47
47.5543,499.04,480.78
47.5747,501.03,486.82
47.5954,503.43,506.46
47.6196,505.34,552.17
47.6403,506.87,615.53
47.6608,508.5,675.43
47.6813,512.8,713.94
47.7017,522.64,730.15
47.7221,533.11,724.32
47.7467,542.29,703.86
47.7672,547.83,678.09
47.7878,548.47,649.47
47.8082,547.77,622.18
47.8287,545.62,596.74
47.8532,543.29,571.39
47.8737,539.44,551.71
47.8944,536.95,536.97
47.9147,536.36,525.58
47.9352,530.69,517.66
47.9557,528.15,513.93
47.9802,526.52,512.74
48.0006,524.42,516.19
48.0211,519.53,520.56
48.0417,516.83,523.84
48.0622,513.86,526.68
48.0867,512.29,526.94
48.1072,513.83,526.15
48.1277,511.06,524.32
48.1481,510.05,521.26
48.1686,511.24,520.01
48.1891,508.99,516.2
48.2138,507.39,511.16
48.2343,507.52,508.53
48.2547,506.21,506.82
48.2753,508.37,506.06
48.2956,510.1,507.65
48.3201,511.28,511.32
48.3406,513.22,516.65
48.3611,512.78,521.12
48.3817,514.22,525.5
48.402,512.18,530.6
48.4225,508.94,531.48
48.447,507.75,532.58
48.4676,509.8,533.47
48.488,512.44,531.97
48.5088,509.55,528.18
48.5291,507.44,523.54
48.5535,508.35,520.43
48.5741,508.08,516.35
48.5947,511.27,513.08
48.6151,511.41,511.26
48.6356,510.13,510.61
48.656,512.7,510.49
48.6806,515.56,512.99
48.701,517.05,515.99
48.7215,516.04,519.79
48.7421,513.43,524.24
48.7625,512.15,527.39
48.7831,510.32,529.31
48.8075,509.25,529.45
48.8282,509.6,528.36
48.8487,507.48,526.89
48.869,506.79,524.71
48.8895,507.63,522.17
48.914,506.5,517.93
48.9346,506,513.95
48.9551,506.8,511.56
48.9756,508.04,510.05
48.9961,508.43,511.04
49.0165,508.35,511.43
49.041,509.28,513.94
49.0615,510.02,517.56
49.0821,510.62,521.84
49.1026,509.49,525.68
49.123,509.6,530.34
49.1475,511.48,532.07
49.1681,510.98,533.06
49.1887,509.58,532.65
49.209,509.27,530.52
49.2296,507.81,527.41
49.2499,510.05,524.13
49.2745,510.84,520.3
49.2949,510.87,516.64
49.3155,511.5,513.32
49.3359,512,510.85
49.3565,512,509.48
49.3809,514.2,509.59
49.4014,517.16,512.27
49.422,515.93,516.01
49.4424,514.34,519.21
49.463,513.07,523.77
49.4835,513.26,528.42
49.5079,514.01,530.33
49.5285,513.41,531.67
49.5489,514.32,531.93
49.5695,512.46,530.55
49.5898,511.37,527.64
49.6144,511.29,524.91
49.6349,510.24,520.33
49.6553,510.19,515.86
49.6758,510.55,513.69
49.6964,511.44,512.15
49.7168,511.95,513.12
49.7413,509.76,517.3
49.7619,510.41,516.04
49.7824,512.33,509.83
49.8028,514.46,502.86
49.8233,513.17,492.29
49.8438,507.34,480.63
49.8683,504.07,466.71
49.8888,500.85,455.37
49.9093,497.88,444.49
49.9298,492.51,438.19
49.9503,488.01,431.35
49.9748,485.4,428.68
49.9953,483.32,428.35
50.0159,484.46,425.48
50.0364,482.77,426.78
50.0569,481.81,431.43
50.0773,486.25,438.34
50.1018,488.4,445.67
50.1224,490.92,454.14
50.1429,494.14,463.51
50.1634,496.91,475.01
50.1838,500.13,486.41
50.2083,499.1,498.13
50.2289,504.08,507.9
50.2494,499.07,531.52
50.2698,486.45,581.62
50.2903,468.16,648.49
50.3109,451.33,713.39
50.3352,439.26,765.52
50.3559,433.81,801.41
50.3763,431.65,818.73
50.3969,436.92,815.98
50.4174,449.94,797.79
50.4419,472.55,762.03
50.4624,501.44,713.42
50.4828,527.75,652.54
50.5034,547.8,592.03
50.5238,561.44,544.83
50.5442,567.75,512.86
50.5688,570.4,491.29
50.5893,570.12,479.43
50.6098,565.9,470.74
50.6304,562.72,466
50.6509,557.97,464
50.6752,554.58,461.2
50.6959,549.66,460.16
50.7164,548.13,459.13
50.7369,541.9,457.9
50.7572,540.72,457.92
50.7777,538.78,461.34
50.8023,534.62,464.67
50.8227,532.3,469.14
50.8433,531.44,475.71
50.8638,529.55,481.57
50.8842,529.64,491.65
50.9046,528.11,501.32
50.9292,527.09,507.06
50.9498,523.87,512.05
50.9703,522.5,515.44
50.9907,520.2,518.55
51.0113,516.76,518.64
51.0358,514.61,520.31
51.0562,514.89,518.65
51.0768,516.11,516.12
51.0972,515.69,514.9
51.1177,513.35,511.72
51.1382,511.28,510.17
51.1626,510.82,510.74
51.1831,511.46,512.19
51.2036,511.37,514.55
51.2241,511.89,518.44
51.2447,511.72,521.75
51.2692,513.37,527
51.2896,514.1,530.2
51.3103,513.88,532.96
51.3307,511.9,533.97
51.3512,510.12,533.78
51.3716,509.9,531.82
51.3962,509.52,529.46
51.4167,510.61,525.17
51.4372,508.49,520.93
51.4576,506.39,516.95
51.4781,506.31,513.56
51.5027,504.85,511.85
51.523,505.08,511.68
51.5436,508.27,513.34
51.5641,507.41,515.47
51.5846,507.33,519.18
51.6051,509.26,522.54
51.6295,510.81,526.43
51.6502,508.05,530.35
51.6705,508.64,533.48
51.6911,507.71,535.18
51.7115,507.37,534.55
51.7362,506.9,534.44
51.7565,504.92,531.35
51.7772,506.53,527.48
51.7976,505.43,524.78
51.8181,505.14,520.23
51.8385,507.51,517.58
51.863,506.21,515.47
51.8838,507.77,513.97
51.9042,510.81,514.38
51.9245,513.25,514.9
51.9452,513.8,518.52
51.9695,512.24,521.22
51.9901,513.99,525.57
52.0105,513.79,528.66
52.0312,514.64,531.73
52.0516,515.11,531.58
52.0719,513.69,530.87
52.0965,514.35,526.69
52.1172,514.28,524.15
52.1376,513.02,520.12
52.1581,510.82,517.1
52.1785,510.26,513.68
52.2031,511.4,507.74
52.2235,512.52,503.59
52.244,512.22,503.48
52.2644,513.17,503.78
52.285,514.34,505.82
52.3054,513.67,511.06
52.3299,512.74,516.45
52.3504,510.39,520.36
52.371,509.91,523.89
52.3914,509.93,528.71
52.4119,508.34,529.77
52.4324,506.08,531.21
52.457,507.46,530.17
52.4776,509.17,527.34
52.4981,506.53,523.87
52.5185,506.63,520.7
52.539,508.3,520.76
52.5634,510.04,521.21
52.584,510.43,519.96
52.6045,512.35,520.37
52.625,513.08,522.1
52.6454,513.86,521.68
52.6659,517.29,515.14
52.6904,519.03,503.11
52.7109,517.83,487.89
52.7313,514.26,472.11
52.7519,513.01,456.49
52.7724,507.61,443.19
52.7969,504.29,432.55
52.8175,499.63,424.84
52.838,495.1,419.07
52.8585,492.28,418.26
52.8789,489.83,419.21
52.8992,486.46,420.97
52.924,488.57,425.77
52.9445,487.45,432.22
52.965,490.16,438.57
52.9853,486.13,447.26
53.0058,486.3,456.01
53.0303,487.84,464.61
53.0508,490.88,473.89
53.0713,496.5,482.71
53.092,498.4,491.17
53.1123,500.32,498.13
53.1329,504.06,502.31
53.1573,505.84,504.45
53.1779,509.68,505.56
53.1984,508.54,507.45
53.2188,507.83,506.56
53.2393,507.87,504.64
53.2639,508.69,518.52
53.2843,505.75,554.81
53.3048,494.4,615.45
53.3252,483.12,686.56
53.3458,468.7,750.45
53.3663,461.56,797.76
53.3907,462.45,820.01
53.4112,473.76,812.21
53.4317,491.21,782.16
53.4523,513.76,730.73
53.4728,534.01,672.19
53.4932,548.01,622.75
53.5178,551.41,580.2
53.5382,552.93,546.56
53.5587,554.14,520.25
53.5792,553.71,500.2
53.5996,550.57,486.56
53.6242,545.86,475.85
53.6447,540.88,470.48
53.6652,537.11,465.38
53.6857,536.89,465.31
53.7063,532.51,467.04
53.7268,531.01,471.64
53.7513,529.21,477.71
53.7719,526.56,484.37
53.7923,524.25,492.89
53.8127,520.4,499.91
53.8332,520.52,505.33
53.8578,520.62,508.07
53.8782,519.89,510.25
53.8987,520.91,511.2
53.9191,520.33,510.36
53.9396,517.87,507.29
53.96,513.29,505.03
53.9846,513.43,505.03
54.0051,512.15,502.22
54.0257,513.12,500.38
54.0461,515.89,500.5
54.0666,514.52,501.2
54.091,514.41,504.96
54.1116,514.73,509.37
54.1321,517.18,512.89
54.1526,518.95,517.52
54.1732,515.76,521.41
54.1935,519.01,523.93
54.2181,521.2,524.34
54.2386,522.56,524.68
54.259,523.85,523.34
54.2796,517.88,524.47
54.3,501.5,524.38
54.3246,492,520.9
54.3451,485.2,515.32
54.3656,483.96,511.66
54.3861,483.37,509.33
54.4065,485.1,507.66
54.427,488.28,506.73
54.4516,490.62,510.98
54.472,496.1,513.59
54.4925,496.48,518.87
54.513,499.58,524.5
54.5335,502.27,528.6
54.558,502.41,530.48
54.5786,500.73,530.78
54.5992,502.98,530.43
54.6196,502.39,528.14
54.64,504.31,526.71
54.6605,506.25,521.97
54.685,505.4,517.38
54.7056,505.92,513.7
54.7261,506.13,509.56
54.7465,506.51,507.45
54.7671,508.01,505.76
54.7874,509.01,506.01
54.8122,510.4,509.01
54.8327,511.72,512.6
54.853,512.98,515.88
54.8736,512.78,521.51
54.8939,512.63,526.21
54.9185,512.3,529.76
54.939,511.04,531.61
54.9595,511.03,531.29
54.98,510.83,529.23
55.0006,509.66,526.59
55.021,509.73,522.87
55.0455,508.18,519.49
55.066,508.95,516
55.0864,508.96,513
55.1069,510.97,510.6
55.1274,511.37,508.68
55.1519,509.3,509.34
55.1724,508.04,511.67
55.193,507.43,516.54
55.2135,509.74,521.83
55.2341,510.2,525.46
55.2545,508.76,528.77
55.2789,509.21,531.62
55.2994,508.76,531.49
55.32,505.41,531.4
55.3403,507.13,528.32
55.3608,508.1,527.05
55.3853,508.28,524.44
55.406,506.63,521.35
55.4264,509.3,518.08
55.4469,510.64,515.07
55.4673,512.51,513.65
55.4878,512.01,511.92
55.5125,512.41,511.94
55.533,512.33,517.55
55.5535,512.06,520.84
55.5739,513.65,523.87
55.5943,514.32,528.3
55.6189,516.26,532.04
55.6393,515.8,534.83
55.6599,513.64,536.26
55.6803,511.71,534.81
55.7008,511.57,534.05
55.7213,512.66,529.64
55.7459,511.53,527.31
55.7663,511.42,523.65
55.7869,512.94,520.72
55.8074,514.35,516.58
55.828,514.28,512.66
55.8484,514.02,511.73
