Program Time [s],data 0,data 1
5.61819,514.44,505.92
5.63864,514.75,504.34
5.65913,514,504.67
5.68376,515.2,507.34
5.70412,515.36,513.47
5.72466,514.89,522.37
5.7452,513.11,535.9
5.76571,510.49,554.52
5.79023,502.19,567.82
5.81074,489.55,567.65
5.83124,482.64,560.12
5.85176,479.71,549.9
5.87223,479.17,537.52
5.89269,479.94,525.01
5.91724,481.55,514.41
5.93778,486.84,505.13
5.95826,489.07,497.7
5.97865,489.86,493.36
5.99914,493.09,492.09
6.01956,495.27,492.67
6.04412,499.42,495.94
6.06476,500.93,499.55
6.08509,501.35,504.44
6.10558,503.48,508.15
6.12616,504.78,511.92
6.15068,505.42,516.14
6.17115,505.14,517.71
6.19163,505.31,518.77
6.21209,506.45,518.01
6.23249,508.56,515.81
6.25296,509.25,513.25
6.27751,509.8,510
6.29805,509.24,506.4
6.31853,512.39,501.52
6.33896,515.91,498.22
6.3595,517.73,497.97
6.38395,517.58,499.78
6.40453,518.67,503.02
6.42498,525.33,503.42
6.44549,531.47,505.93
6.46595,535.97,509.55
6.48649,535.78,513.64
6.51103,534.02,515.91
6.53152,532.62,517.33
6.55215,530.49,518.06
6.57249,529.8,517.05
6.59296,527.04,513.84
6.61748,525.43,511.67
6.63801,523.94,509.34
6.65852,524.75,505.47
6.679,523.8,502.98
6.69954,521.84,502.78
6.72005,519.67,504.22
6.74451,518.94,506.38
6.765,516.75,509.7
6.78549,515.6,513.56
6.80607,515.88,519.25
6.8265,515.3,525.4
6.85097,513.84,532.72
6.87158,512.28,537.78
6.89212,512.82,535.62
6.91253,510.66,525.1
6.93293,509.72,509.48
6.95337,509.78,488.58
6.97801,509.02,468.27
6.99838,508.22,449.01
7.01898,506.78,432.21
7.03944,506.42,419.57
7.05994,507.14,412.25
7.08433,506.51,409.2
7.10524,504.01,412.36
7.12569,504.61,419.29
7.1459,504.08,428.43
7.16658,506.27,440.55
7.187,507.81,449.64
7.21149,509.25,459.71
7.23202,507.8,466.77
7.25254,506.64,473.21
7.27298,507.31,478.17
7.29346,508.05,482.14
7.3141,510.04,484.71
7.33854,510.63,484.97
7.35887,509.71,485.17
7.37945,508.76,485.54
7.40003,509.01,486.63
7.42052,508.81,487.51
7.44489,507.05,490.2
7.46547,508.04,505.56
7.48592,510.63,537.05
7.50638,513.5,580.04
7.52685,516.4,621.03
7.54735,515.52,644.43
7.57176,514.42,656.74
7.59244,511.33,656.79
7.613,511.47,650.03
7.63333,511.17,637.83
7.65386,513.54,623.06
7.67845,511.63,606.65
7.69887,511.51,590.32
7.71932,511.4,573.86
7.73989,514.32,559.48
7.76023,513.46,546.99
7.78082,511.57,536.79
7.80534,510.05,530.63
7.82588,509.04,529.51
7.84626,509.43,529
7.86688,508.75,530
7.88738,508.4,531.4
7.91183,506.12,532.72
7.93225,506.29,534.18
7.95294,507.04,535.34
7.97355,507.63,534.47
7.99385,509.3,531.38
8.01437,508.44,527.5
8.0387,508.35,525
8.05922,508.08,521.6
8.07979,508.27,518.08
8.1002,508.81,513.67
8.12071,508.85,510.33
8.14128,509.08,508.87
8.16583,509.06,509.29
8.18649,509.05,509.43
8.20683,509.44,512.35
8.22732,507.95,517.08
8.24771,509.16,521.46
8.27229,511.33,525.97
8.29276,511.66,529.18
8.31323,512.13,531.34
8.3337,512.5,531.67
8.35419,513,531.54
8.37465,512,529.03
8.39912,509.8,525.82
8.41981,509.04,521.86
8.44031,509.63,518.49
8.46065,509.51,514.19
8.48121,509.81,510.95
8.50574,509.84,509.96
8.52632,509.68,510.17
8.54694,510.34,512.94
8.56736,508.87,516.95
8.58783,508.1,519.76
8.60832,508.08,524.21
8.6328,509.06,527.97
8.65334,507.85,531.57
8.67375,506.48,533.46
8.6942,505.98,533.77
8.71474,506.99,535.61
8.7392,507.99,538.69
8.75974,506.99,535.55
8.78022,508.99,526.64
8.80079,510.99,513.31
8.82129,512.8,494.65
8.84175,512.84,476.32
8.86621,511.87,459.46
8.8868,513.1,442.37
8.90732,511.48,430.69
8.92771,510.98,423.55
8.94825,509.58,419.04
8.96856,509.07,416.83
8.99327,507.45,419.07
9.01372,506.56,423.85
9.03423,506.45,430.28
9.05453,505.76,435.83
9.0753,507.41,441.26
9.09949,504.33,446.61
9.12014,506.66,451.29
9.14062,508.73,454.23
9.16115,506.98,456.98
9.18153,504.99,461.39
9.20205,504.99,464.91
9.2266,505.79,468.73
9.24723,506.23,475.78
9.26768,505.99,482.43
9.2881,506.99,492.54
9.30853,510.39,517.43
9.33298,513.91,563.15
9.35354,515.53,619.32
9.37402,516.02,670.25
9.3945,517.02,706.4
9.415,516.42,721.32
9.4354,517.33,718.46
9.46007,516.07,700.97
9.48061,516.25,676.57
9.50103,514,650.46
9.52144,514.6,621.77
9.54195,513.88,597.21
9.56641,514.31,574.77
9.5871,514.64,555.62
9.60782,512.72,541.09
9.6282,512.37,530.67
9.64861,510.9,523.94
9.66905,511.92,521.55
9.69339,511.53,520.04
9.71431,511.03,520.63
9.73453,511.42,522.31
9.75512,511.34,521.45
9.77551,510.87,519.56
9.80002,509.1,517.84
9.82055,508.68,516.28
9.8411,508.74,512.42
9.86152,509.99,509.14
9.88199,510.79,505.31
9.90246,511.44,502.45
9.92708,512.35,500.76
9.94756,512.08,500.01
9.96831,513.06,499.61
9.98844,513.85,501.48
10.009,513.88,506.79
10.0295,513.3,512.43
10.054,512.04,517.74
10.0745,509.63,522.6
10.095,510.51,525.88
10.1155,509.61,528.1
10.136,509.09,527.88
10.1605,508.67,527.3
10.181,509.33,525.84
10.2016,510.67,522.68
10.2219,510.33,519.74
10.2424,510.47,515.19
10.263,509.77,511.15
10.2875,510.02,509.32
10.308,512.22,508.06
10.3284,510.77,508.65
10.349,510.22,510.52
10.3694,509.57,513.01
10.3939,509.86,516.81
10.4145,510.09,521.45
10.435,508.67,525.36
10.4555,508.14,529.09
10.4759,507.71,530.47
10.4964,510.57,532.98
10.521,511.45,533.38
10.5414,512.56,532.1
10.562,511.65,528.28
10.5824,510.52,523.63
10.6029,510.02,519.1
10.6274,509.81,515.28
10.6479,511.45,511.63
10.6683,511.76,509.7
10.689,511.81,510.56
10.7095,514.25,512.65
10.7299,516,515.92
10.7544,515.4,520.73
10.775,513.72,523.99
10.7953,514.17,527.19
10.8158,515.34,529.15
10.8363,515.67,530.52
10.8608,513.74,531.22
10.8814,513.59,529.57
10.9019,512.07,526.26
10.9224,513.26,523.41
10.9429,511.81,519.93
10.9633,511.04,515.74
10.9879,513.64,511.99
11.0083,515.71,510.39
11.0289,516.97,510.12
11.0493,514.97,510.69
11.0699,514.18,513.15
11.0943,512.74,515.92
11.1149,512.59,519.34
11.1353,511.28,523.47
11.1559,511.02,526.38
11.1763,511.42,527.1
11.1967,515.53,525.68
11.2212,518.83,524.34
11.2418,519.66,522.48
11.2622,519.33,520.58
11.2827,518.66,516.66
11.3032,517.93,513.13
11.3277,516.94,508.71
11.3482,515.56,505.56
11.3688,515.64,504.45
11.3892,518.12,502.56
11.4098,521.29,503.85
11.4302,525.03,507.28
11.4548,524.43,510.42
11.4753,523.54,514.34
11.4958,522.83,518.87
11.5162,522.27,523.1
11.5369,523.01,526.08
11.5573,522.21,528.06
11.5818,518.57,528.25
11.6023,517.25,527
11.6227,515.6,524.4
11.6433,514.88,520.32
11.6636,514.11,515.86
11.6883,512.49,512.08
11.7087,512.99,508.67
11.7293,512.99,506.33
11.7499,512.19,504.47
11.7704,512.15,504.97
11.7907,512.32,508.18
11.8152,510.46,513.34
11.8358,508.77,517.07
11.8564,508.21,519.86
11.8767,508.17,523.09
11.8972,506.94,525.47
11.9218,507.35,526.38
11.9422,506.48,525.7
11.9627,506.58,523.36
11.9832,504.87,520.69
12.0038,504.69,517.75
12.0243,504.55,515
12.0487,504.24,510.8
12.0693,506.4,505.64
12.0897,508.12,503.31
12.1102,507.69,502.85
12.1308,507.15,503.28
12.1551,507.72,505.82
12.1756,507.58,509.46
12.196,508.46,513.77
12.2166,507.77,519.21
12.2372,508.02,524.77
12.2576,510.21,528.02
12.2821,511.97,529.41
12.3027,512.98,529.93
12.3232,513.78,529.54
12.3436,512.82,525.64
12.3641,512.26,522.11
12.3886,512.01,517.49
12.4092,511.61,512.99
12.4297,512.29,510.79
12.4501,511.03,509.63
12.4705,512.22,510.11
12.491,513.38,511.09
12.5154,512.5,512.87
12.536,510.6,516.69
12.5565,510.68,521.16
12.5771,509.55,525.32
12.5975,509.44,529.46
12.618,508.95,531.77
12.6425,509.16,532.01
12.663,508.13,531.61
12.6836,507.9,529.69
12.7041,513.52,525.95
12.7246,514.82,521.36
12.749,514.05,517.29
12.7695,513.84,512.23
12.7901,513.87,508.38
12.8106,515.7,506.11
12.831,515.56,505.09
12.8514,515.85,506.07
12.8759,515.48,508.66
12.8965,513.38,512.12
12.917,513.31,516.1
12.9375,513.04,520.88
12.9579,511.64,524.7
12.9825,510.91,527.96
13.003,509.93,528.97
13.0234,509.74,527.78
13.0439,509.59,526.22
13.0645,510.07,523.38
13.085,510.26,520.3
13.1095,511.01,515.64
13.13,511.61,512.51
13.1506,511.49,509.21
13.1709,510.79,508.37
13.1915,510.43,509.29
13.216,509.54,512.24
13.2366,510.24,519.79
13.2571,509.79,520.83
13.2774,508.43,516.46
13.298,504.94,509.37
13.3184,502.16,499.3
13.3429,499.32,485.44
13.3634,496.06,470.15
13.3839,493.85,453.92
13.4045,490.68,438.54
13.425,491.14,426.03
13.4495,491.11,415.02
13.4698,490.09,407.62
13.4906,489.27,402.29
13.5109,489.82,400.64
13.5314,489.05,402.91
13.552,491.64,408.53
13.5763,492.72,416.62
13.5969,491.97,426.3
13.6175,493.18,437.84
13.6379,495.34,448.47
13.6585,495.47,460.78
13.679,491.98,470.62
13.7035,490.78,477.9
13.724,490.63,485.72
13.7444,489.5,489.97
13.7648,491.4,494.18
13.7854,494.32,495.34
13.8097,493.66,496.87
13.8303,496.53,497.1
13.8509,497.22,495.68
13.8712,500.58,509.54
13.8919,508.06,542.24
13.9122,520.45,587.79
13.9368,533.16,632.03
13.9573,542.13,660.82
13.9777,547.1,674.06
13.9983,548.08,673.85
14.0188,546.07,667.68
14.0433,544.45,656.34
14.0641,539.56,640.87
14.0844,535.25,624.1
14.1049,532.4,606.48
14.1253,529.92,588.78
14.1458,529.14,572.23
14.1704,525.51,558.78
14.1908,522.61,544.43
14.2114,520.49,533.74
14.2318,518.79,526.79
14.2522,518.43,520.43
14.2767,518.14,515.55
14.2973,516.72,513.04
14.3178,515.77,513.23
14.3383,515.62,514.98
14.3588,512.89,517.79
14.3793,511.92,520.43
14.4037,510.13,522.14
14.4242,507.71,524.32
14.4448,507.36,523.65
14.4653,508.69,522.52
14.4858,508.75,520.22
14.5101,509,516.37
14.5307,510,512.9
14.5513,510.4,508.92
14.5718,511.52,506.54
14.5923,511.62,504.43
14.6126,510.29,503.94
14.6373,510.63,504.95
14.6578,511.91,507.16
14.6783,512.13,511.73
14.6988,511.7,515.98
14.7193,509.96,520.99
14.7397,510.37,525.79
14.7642,510.3,530.23
14.7846,511.44,531.39
14.8053,513.35,530.51
14.8256,514.68,529.81
14.8463,514.34,527.05
14.8707,512.67,524.04
14.8913,513.14,521.03
14.9117,512.51,516.62
14.9324,513.01,512.9
14.9527,515.21,510.72
14.9732,516.77,510.38
14.9976,517.41,510.9
15.0182,518.93,513.12
15.0387,521.54,516.5
15.0593,520.64,520.4
15.0795,519.91,524.12
15.104,517.93,528.29
15.1246,516.54,530.44
15.1452,515.23,531.75
15.1657,516.59,532
15.1862,514.27,530.2
15.2067,514.82,527.16
15.2313,515.05,524.33
15.2517,516.04,519.26
15.2722,514.23,515.01
15.2927,505.59,508.21
15.3131,498.87,504.77
15.3375,495.5,503.01
15.3582,495.2,503.61
15.3787,494.16,505.29
15.3991,493.93,508.83
15.4195,493.74,513.46
15.4401,495.19,518.17
15.4646,497.55,522.54
15.4851,497.44,526.03
15.5057,498.35,527.42
15.5261,498.68,527.94
15.5466,499.75,527.15
15.571,501,525.52
15.5916,502.4,522.02
15.612,502.92,518.21
15.6327,503.53,514.57
15.653,504.83,510.46
15.6736,507.46,507.17
15.6981,507.37,506.13
15.7186,507.7,506.51
15.7391,506.36,508.2
15.7594,502.49,511.56
15.78,506.39,515.65
15.8045,507.31,519.72
15.8251,508.65,523.58
15.8456,507.12,526.66
15.8661,505.7,527.53
15.8866,505.76,527.62
15.9071,505.2,526.7
15.9316,505.96,524.56
15.9521,506.37,520.85
15.9725,505.9,517.48
15.9929,506.12,513.38
16.0134,512.69,509.91
16.0339,517.76,508.32
16.0584,522.4,508.06
16.0789,526.12,508.25
16.0994,526.7,511
16.1199,527.16,513.8
16.1405,526.33,517.44
16.165,526.26,521.75
16.1855,524.21,525.6
16.2061,521.97,527.48
16.2264,520.37,528.98
16.247,518.3,528.79
16.2675,517.84,526.43
16.292,517.47,522.94
16.3125,517.58,519.56
16.333,514.86,515.24
16.3535,513.09,511.8
16.3741,512.07,508.04
16.3984,515.06,506.03
16.419,516.45,506.22
16.4395,516.36,506.98
16.4599,515.69,509.78
16.4806,513.95,513.63
16.5009,513.16,518.3
16.5255,513.93,523.04
16.546,513.74,526.83
16.5665,511.79,529.67
16.5869,511.83,530.53
16.6075,512.27,529.83
16.6319,512.61,527.46
16.6525,512.09,524.37
16.673,511.07,520.3
16.6935,510.26,516.84
16.714,512.81,513.47
16.7345,513.85,510.38
16.759,513.08,508.1
16.7795,512.46,506.88
16.8001,512.57,509.5
16.8204,513.26,511.6
16.8409,514.8,514.48
16.8654,515.24,518.39
16.8859,514.19,522.71
16.9066,513.56,526.37
16.9269,512.64,529.69
16.9473,512.32,531.35
16.9679,513.05,531.08
16.9923,512.84,529.07
17.0129,512.07,525.45
17.0334,510.86,523.16
17.0539,510.89,520.33
17.0744,510.11,518.06
17.0988,510.89,517.45
17.1194,511.11,518.96
17.1397,508.09,514.97
17.1604,505.07,507.58
17.1809,500.46,496.86
17.2013,495.57,483.69
17.2258,490.25,469.95
17.2464,483.8,456.56
17.2668,482.84,444.25
17.2873,480.87,433.6
17.3078,481.1,426.48
17.3284,482.48,422.18
17.3527,482.98,419.75
17.3734,485.99,416.8
17.3939,487.79,415.84
17.4144,489.83,417.07
17.4346,491.47,419.06
17.4593,493.17,421.44
17.4798,497.94,425.96
17.5003,501.75,432.76
17.5208,504.2,439.41
17.5413,507.96,447.93
17.5617,509.97,457.34
17.5862,513.77,467.87
17.6068,514.02,476.5
17.6273,515.82,485.8
17.6477,516.05,492.64
17.6683,517.04,498.31
17.6928,518.43,502.85
17.7132,517.15,505.08
17.7338,517.32,505.46
17.7543,517.65,504.37
17.7747,516.12,502.7
17.7953,516.7,500.96
17.8197,514.76,499.17
17.8403,514.41,497.53
17.8607,514.53,498.43
17.8812,515.62,510.94
17.9018,517.1,543.95
17.9261,519.08,589.56
17.9468,523.66,636.45
17.9673,529.13,675.76
17.9877,535.7,698.41
18.0082,536.76,703.13
18.0287,536.41,693.7
18.0532,537.13,675.76
18.0737,535.3,655.01
18.0942,536.64,633.21
18.1147,535.51,611.17
18.1353,532.41,588.53
18.1596,529.93,568.43
18.1802,528.14,552.54
18.2006,526.71,539.43
18.2212,523.37,530.35
18.2417,520.9,523.88
18.2622,517.92,521.3
18.2866,519.33,520.04
18.3071,517.67,520.63
18.3276,515.93,522.11
18.3482,514.95,522.69
18.3686,514.36,523.95
18.393,512.29,524.56
18.4135,512.23,524.45
18.4341,510.78,521.96
18.4545,511.43,520.17
18.4752,511.74,515.73
18.4954,511.59,512.59
18.52,512.27,509.67
18.5407,511.82,506.54
18.5611,513.06,506.43
18.5816,514.04,506.34
18.6021,513.04,507.47
18.6226,511.83,510.18
18.6471,511.86,514.94
18.6677,511.09,519.35
18.6881,510.47,523.08
18.7085,508.58,526.27
18.7291,507.66,527.61
18.7535,504.93,527.09
18.774,495.74,525.87
18.7946,489.4,522.9
18.8151,486.52,518.92
18.8355,483.41,515.53
18.8561,483.33,510.83
18.8805,486.26,507.26
18.9011,487.21,504.21
18.9219,488.97,502.97
18.9423,491.38,501.77
18.9626,491.9,503.22
18.987,494.72,506.98
19.0075,497.38,511.18
19.0281,498.3,515.94
19.0485,502.24,519.76
19.069,512.39,524.4
19.0894,519.31,527.12
19.114,522.85,526.9
19.1345,524.88,525.92
19.155,526.3,522.54
19.1755,526.24,519.83
19.1959,526.6,516.66
19.2205,527.88,513.73
19.2409,525.3,509.58
19.2616,523.44,506.07
19.282,522.15,504.65
19.3024,520.12,504.92
19.323,519.3,506.54
19.3475,517.04,509.83
19.368,514.43,514.06
19.3885,513.54,519.25
19.409,512.04,521.6
19.4296,510.23,524.48
19.4539,510.98,525.98
19.4745,510.79,526.19
19.495,510.63,525.75
19.5154,509.9,523.4
19.5361,510.12,520.52
19.5564,508.3,516.02
19.581,511.24,511.61
19.6015,512.19,506.89
19.622,513.15,504.51
19.6424,514.52,502.81
19.6629,515.02,503.45
19.6833,514.61,505.96
19.7079,515.29,509.57
19.7284,515.03,513.25
19.7489,513.83,517.6
19.7694,512.86,522.08
19.7899,512.49,525.47
19.8144,512.39,526.57
19.835,512.71,527.66
19.8555,511.97,526.53
19.8759,512.58,524.42
19.8964,511.46,520.74
19.9169,509.77,516.79
19.9414,509.42,513.23
19.962,508.93,510.39
19.9824,508.55,507.91
20.0028,508.84,506.13
20.0233,511.07,505.7
20.0478,511.26,506.56
20.0684,510.6,509.85
20.0888,509.48,513.68
20.1094,509.19,518.34
20.1298,509.15,522.87
20.1504,510.32,526.5
20.1749,511.06,528.8
20.1953,509.64,528.44
20.2159,508.32,526.95
20.2364,507.85,524.56
20.2568,509.08,522.45
20.2811,508.87,518.56
20.3018,509.09,513.85
20.3223,510.47,509.88
20.3429,511.38,507.3
20.3633,512.1,506.24
20.3838,512.08,506.19
20.4083,511.27,507.95
20.4288,511.01,510.96
20.4493,511.81,515.57
20.4698,511.65,520.06
20.4903,511.72,524.65
20.5148,511.57,526.72
20.5352,511.86,527.97
20.5558,511.29,529.18
20.5763,512.23,526.14
20.5968,511.78,522.91
20.6174,510.63,519.33
20.6417,510.3,516.07
20.6623,510.04,513.05
20.6829,510.63,510.44
20.7033,510.51,507.35
20.7239,509.61,505.88
20.7443,509.28,506.31
20.7686,509.83,508.84
20.7892,509.26,512.08
20.8098,508.81,516.26
20.8302,509.25,520.81
20.8507,509.4,524.25
20.8752,507.92,526
20.8957,508.53,527.2
20.9162,509.03,527.36
20.9368,509.22,526.69
20.9572,509.38,525.15
20.9777,510.1,521.72
21.0023,510.48,517.98
21.0228,509.59,513.58
21.0434,509.67,510.26
21.0637,509.13,507.61
21.0841,508.91,507.09
21.1087,511.93,507.87
21.1291,513.34,510.5
21.1497,515.07,513.8
21.1702,516.06,518.04
21.1907,514.85,522.03
21.2111,514.48,525.42
21.2357,513.18,528.14
21.2561,512.15,529.31
21.2767,512.92,529.05
21.2972,512.73,528.04
21.3177,512.59,525.83
21.3421,513.47,523.27
21.3626,512.58,521.41
21.3831,510.86,519.73
21.4037,510.89,519.58
21.4241,511.51,521.67
21.4446,510.81,519.33
21.4691,509.85,516.27
21.4895,507.48,510.41
21.5101,503.58,500.53
21.5306,501.07,487.02
21.5509,498.05,473.62
21.5755,496.64,460.1
21.5961,493.91,446.68
21.6167,493.13,434.34
21.6372,494.1,425.47
21.6576,494.28,418.38
21.6781,493.63,413.1
21.7025,494.3,409.88
21.7231,494.04,409.11
21.7435,494.03,408.48
21.7641,493.23,410.19
21.7845,494.38,414.95
21.8051,496.1,420.76
21.8294,498.28,429.21
21.85,500.83,439.17
21.8705,502.66,450.13
21.8909,502.93,461.31
21.9114,504.54,473.25
21.936,506.83,484.2
21.9565,506.47,493.96
21.9771,506.17,500.77
21.9975,505.94,506.01
22.0181,507.15,509.41
22.0385,507.32,510.73
22.063,508.86,509.98
22.0835,510.29,509.59
22.104,511.23,508.27
22.1246,512.98,505.42
22.1449,512.39,504.73
22.1694,511.51,504.79
22.19,510.21,505.03
22.2105,511.57,510.62
22.2309,510.65,531.1
22.2516,510.72,569.28
22.272,512.78,615.22
22.2965,518.42,654.18
22.317,523.54,678.14
22.3375,527.03,683.71
22.3579,529.82,679.37
22.3784,529.86,666.7
22.403,529.09,648.96
22.4235,528.27,628.57
22.444,527.62,608.85
22.4645,524.49,588.48
22.4849,524.19,569.99
22.5054,522.96,554.39
22.5298,522.36,542.71
22.5504,520.49,533.17
22.5709,518.99,529.54
22.5913,518.79,527.83
22.6118,517.64,527.06
22.6363,516.11,527.65
22.6568,517.29,529.32
22.6774,520.03,528.66
22.6978,520.62,527.92
22.7184,520.7,525.54
22.7388,519.76,523.23
22.7634,520.81,519.99
22.7839,520.65,516.19
22.8043,519.92,512.95
22.8249,517.33,509.36
22.8454,516.27,506.29
22.8657,516.01,504.83
22.8904,515.81,504.26
22.9109,515.65,505.21
22.9313,515.12,507.57
22.9518,513.3,512.06
22.9724,513.44,517.24
22.997,515.35,523
23.0174,515.48,528.8
23.0382,514.58,532.04
23.0583,515.07,533.43
23.0788,514.85,532.94
23.0993,515.08,532.16
23.1237,514.67,529.92
23.1444,514.13,525.14
23.1649,513.11,520.71
23.1854,513.09,516.17
23.2058,513.47,511.74
23.2304,512.77,508.99
23.2508,512.02,508.59
23.2714,511.02,509.87
23.2917,511.41,511.1
23.3123,510.53,513.88
23.3328,509.62,516.5
23.3573,511.1,520.8
23.3777,510.48,523.84
23.3983,509.78,527.07
23.4189,509.23,527.86
23.4393,509.18,527.89
23.4638,510.35,526.91
23.4843,509.48,524.53
23.5048,508.98,520.62
23.5253,508.58,517.1
23.5458,509.27,512.68
23.5664,509.21,509.54
23.5908,509.37,506.83
23.6113,508.7,507.27
23.6321,508.96,507.41
23.6523,508.37,509.53
23.6728,508.49,513.62
23.6971,509.59,517.9
23.7177,509.48,522.32
23.7383,510.78,526.06
23.7587,510.02,528.84
23.7793,510.22,530.48
23.7997,508.98,528.98
23.8243,508.18,528.18
23.8447,508.54,524.95
23.8653,508.64,520.56
23.8857,508.71,516.45
23.9061,510.17,513.56
23.9306,510.53,510.45
23.9511,509.83,507.76
23.9716,509.46,506.21
23.9923,508.77,507.16
24.0127,508.02,509.93
24.0332,506.21,513.95
24.0577,504.77,517.16
24.0782,506.02,520.72
24.0987,508.21,524.58
24.1191,507.17,527.86
24.1397,506.74,529.49
24.1602,507.59,529.39
24.1847,506.27,528.11
24.2052,507.02,526.09
24.2257,506.01,521.87
24.2462,502.61,517.1
24.2666,495.09,511.08
24.291,488.67,507.06
24.3116,486.74,504.85
24.3322,484.79,504.48
24.3526,483.63,504.18
24.3732,485.11,505.95
24.3936,486.08,509.16
24.4181,487.47,513.93
24.4387,488.57,518.74
24.4591,489.46,522.99
24.4796,491.17,526.39
24.5001,494.73,528.52
24.5247,496.19,529.01
24.5452,499.95,528.61
24.5656,499.36,525.69
24.5861,500.49,522.75
24.6066,500.59,519.6
24.6272,500.67,516.28
24.6515,502.94,514.82
24.6721,513.15,512.66
24.6927,521.92,512.33
24.7131,526.54,513.46
24.7335,528.83,515.77
24.7581,529.26,519.22
24.7786,531.01,522.37
24.7991,530.61,525.3
24.8196,528.69,528.84
24.8401,527.95,530.67
24.8606,526.96,530.94
24.885,524.97,529.95
24.9056,523.17,528.16
24.9261,525.34,523.93
24.9466,526.87,520.74
24.967,526.5,515.99
24.9915,527.2,511.59
25.0121,526.56,508.28
25.0325,525.65,505.62
25.0531,524.12,504.3
25.0735,523.89,504.44
25.094,522.32,506.95
25.1185,520.45,510.56
25.1391,519.36,514.45
25.1595,518.49,518.56
25.1799,517.59,521.85
25.2005,515.07,524.08
25.221,513.66,526.06
25.2455,512.73,526.85
25.2659,512.38,526.48
25.2866,512.31,523.98
25.307,514.24,520.19
25.3275,513.2,516.15
25.352,512.36,512.72
25.3723,512.29,509.98
25.3928,512.63,508.58
25.4134,512.7,509.46
25.4338,512.36,511.97
25.4544,512.69,516.38
25.4789,512.15,521.3
25.4994,509.52,522.04
25.52,505.62,519.83
25.5405,501.69,513.67
25.561,499.15,502.33
25.5855,494.92,486.07
25.6059,491.14,468.65
25.6265,485.51,450.12
25.6469,484.61,432.9
25.6674,486.89,417.52
25.6878,487.91,404.01
25.7123,488.73,394.61
25.7329,490.78,389.29
25.7535,492.83,388.43
25.7738,494.06,391.95
25.7943,497.65,399.16
25.8188,498.72,408.73
25.8393,501.18,419.38
25.8599,503.34,431.1
25.8803,504.27,443.28
25.9009,505.82,454.63
25.9214,505.05,464.3
25.9459,505.04,472.44
25.9664,505.23,478.55
25.987,504.99,482.84
26.0073,503.59,485.87
26.0278,502.27,489.1
26.0524,501.82,491.08
26.0729,500.85,492.46
26.0934,498.68,494.17
26.1138,499.35,499.74
26.1343,498.48,506.19
26.1547,499.18,514.35
26.1794,498.55,523.68
26.1999,499.64,531.74
26.2204,500.71,538.8
26.2408,501.17,543.64
26.2613,502.53,546.91
26.2818,503.83,547.73
26.3063,504.26,550.78
26.3269,504.81,565.63
26.3472,508.65,594.1
26.3678,513.32,627.88
26.3882,521.65,654.3
26.4127,530.12,668.44
26.4332,536.9,668.75
26.4538,541.32,658.4
26.4743,544.26,641.72
26.4948,544,623.38
26.5152,542.6,604.5
26.5397,541.88,590.6
26.5603,541.11,578.48
26.5808,535.08,567.59
26.6013,531.07,560.07
26.6216,528.45,553.05
26.6462,526.96,547.84
26.6667,524.17,541.88
26.6872,522.74,537.1
26.7077,520.79,532.08
26.7283,519.63,526.86
26.7488,516.71,520.49
26.7731,515.56,514.19
26.794,514.45,507.95
26.8142,513.76,504.16
26.8347,515.81,503.73
26.8551,516.65,504.38
26.8795,517.92,506.31
26.9002,518.33,509.25
26.9206,514.87,512.8
26.9413,512.89,516.44
26.9617,510.72,521.35
26.9821,511.57,526.08
27.0067,511.46,528.46
27.0272,510.37,529.97
27.0477,509.69,530.98
27.0682,509.15,529.98
27.0886,510.72,526.39
27.1132,510.78,521.51
27.1336,510.42,516.61
27.1541,511.14,512.49
27.1745,510.11,508.59
27.1951,510.89,507.27
27.2156,510.71,506.62
27.2402,511.17,506.89
27.2607,508.94,507.91
27.2811,508.35,511.73
27.3017,508.48,516.19
27.3221,508.38,519.35
27.3466,506.71,522.88
27.3672,506.57,525.9
27.3877,508.05,527.52
27.4082,507.04,526.62
27.4286,505.83,523.09
27.4489,505.87,520.68
27.4736,504.89,517.94
27.4941,507.51,514.95
27.5147,507.21,511.76
27.5351,505.97,508.41
27.5555,506.18,507.73
27.5761,507.54,507.78
27.6005,507.83,507.83
27.6211,508.47,509.66
27.6415,507.77,513.13
27.6622,509.42,516.5
27.6826,511.13,520.2
27.7071,512.11,522.96
27.7276,509.89,525.77
27.7481,508.11,526.42
27.7686,506.49,527.53
27.789,506.79,525.23
27.8095,508.03,523.38
27.8341,509.83,520.7
27.8545,508.46,519.36
27.8749,506.97,517.29
27.8955,504.97,514.03
27.9159,507.78,512.63
27.9403,507.42,514.3
27.961,508.74,516.84
27.9815,507.59,518.87
28.002,508.47,523.1
28.0224,510.78,529.08
28.043,511.42,534.46
28.0675,510.54,539.77
28.088,505.63,539.82
28.1085,504.7,538.05
28.1289,500.56,534.84
28.1494,498.05,530.87
28.1738,493.44,530.9
28.1944,498.95,522.72
28.215,496.36,510.58
28.2353,500.89,502.86
28.256,499.31,497.69
28.2764,495.25,492.75
28.301,503,489.6
28.3214,498.8,492.28
28.3421,502.44,492.22
28.3624,498.75,500.78
28.383,496.6,504.02
28.4074,487.68,508.82
28.4279,494.54,516.86
28.4485,490.64,524.68
28.4689,489.11,528.55
28.4894,485.29,530.04
28.5098,491.43,529.83
28.5343,493.74,527.46
28.555,495.79,526.37
28.5753,493.44,522.3
28.5959,494.15,517.24
28.6164,494.72,514.59
28.6368,496.58,506.47
28.6613,490.86,504.78
28.6818,490.09,502.02
28.7024,485.87,503.02
28.7227,481.9,504.21
28.7434,485.12,510.57
28.7678,487.09,516.06
28.7883,491.08,520.85
28.8088,491.46,525.48
28.8294,491.37,529.38
28.8498,487.09,532.9
28.8703,486.68,532.72
28.8948,489.74,534.78
28.9153,490.79,536.02
28.9358,493.23,536.42
28.9563,490.59,535.93
28.9769,492.27,535.95
29.0013,489.62,527.56
29.0219,490.29,513.25
29.0424,491.23,497.6
29.0629,494.39,480.48
29.0834,498.31,468.58
29.1038,502.65,459.27
29.1281,505.52,456.41
29.1487,503.21,450.73
29.1693,506.37,450.18
29.1898,507.9,449.15
29.2103,511.32,450.12
29.2347,508.65,455.09
29.2551,512.92,458.48
29.2758,512.14,463.18
29.2962,518.31,465.54
29.3166,518.25,468.24
29.3372,516.6,465.79
29.3617,520.28,461.23
29.3822,521.22,455.78
29.4027,518.18,454.23
29.4235,516.34,459.38
29.4438,516.47,465.51
29.4642,518.58,475.6
29.4886,519.06,486.48
29.5092,519.05,494.19
29.5297,514.84,501.35
29.5502,514.07,507.68
29.5706,513.26,510.94
29.5952,510.81,513.76
29.6157,509.45,514
29.6363,511.16,513
29.6565,512.12,510.8
29.677,514.1,508.44
29.6975,511.88,505.95
29.7222,510.9,504.56
29.7428,511.92,517.25
29.7633,511.34,551.4
29.7838,512.07,602.52
29.8041,514.86,653.22
29.8285,516.09,689.37
29.8491,518.87,708.3
29.8697,523.09,709.24
29.8902,526.08,699.19
29.9105,524.86,681.15
29.9311,523.69,660.12
29.9556,523.95,637.3
29.9762,521.36,613.44
29.9967,519.49,591.95
30.0172,516.39,571.56
30.0376,514.51,553.45
30.062,513.81,537.76
30.0827,514.65,526.61
30.1032,516.32,518.49
30.1237,514.25,512.79
30.1442,512.6,511.23
30.1646,512.68,511.38
30.189,514.15,513.31
30.2096,517.32,516.05
30.23,517.25,519.44
30.2506,514.6,522.35
30.271,514.08,523.88
30.2955,513.67,524.5
30.316,514.13,522.4
30.3365,512.31,520.52
30.357,509.84,518.22
30.3775,509.68,515.17
30.3979,508.74,512.74
30.4227,507.99,510.39
30.443,506.79,508.11
30.4635,506.04,508.09
30.484,507.83,510.07
30.5044,510.06,513.06
30.5249,509.45,517.65
30.5495,508.56,523.52
30.5699,506.85,528.01
30.5905,507.48,533.21
30.611,509.58,537.17
30.6314,511.07,541.94
30.6559,512.25,543.95
30.6765,513,543.96
30.6969,516.8,541.17
30.7175,518.84,538.13
30.7379,519.47,533.31
30.7584,519.18,527.85
30.7831,517.14,523.28
30.8035,516.51,519.02
30.824,516.61,516.82
30.8444,514.69,516.65
30.8649,514.15,518.72
30.8894,514.32,522.58
30.9099,512.66,526.86
30.9304,511.73,530.49
30.9509,511.98,535.19
30.9714,511.98,538.15
30.9919,508.59,540.12
31.0164,508.07,539.9
31.037,508.06,537.92
31.0574,505.84,535.93
31.0778,508.48,532.35
31.0984,509.18,528.88
31.1228,508.54,524.7
31.1433,508.04,519.76
31.1639,507.43,517.21
31.1844,510.14,515.37
31.2049,512.31,513.89
31.2252,510.45,515.52
31.2498,509.16,518.41
31.2704,510.93,523.73
31.2908,512.54,527.78
31.3113,513.03,532.43
31.3318,511.43,535.74
31.3562,509.54,537.19
31.3768,510.23,537.35
31.3974,511.59,536.08
31.4179,511.87,533.07
31.4384,512.5,529.85
31.4587,511.8,524.68
31.4833,512.84,521.95
31.5039,515.47,518.36
31.5244,515.38,515.69
31.5447,516.1,514.35
31.5652,515.08,515.88
31.5899,514.46,517.9
31.6103,514.17,521.92
31.6308,512.34,526.14
31.6512,509.27,530.11
31.6717,507.22,534.49
31.6923,505.17,536.79
31.7169,502.14,538.03
31.7373,500.51,535.63
31.7578,500.41,532.1
31.7782,499.93,528.68
31.7987,500.54,525.74
31.8233,502.23,522.2
31.8438,503.39,518.96
31.8642,504.11,515.97
31.8847,502.69,514.77
31.9052,502.95,514.42
31.9257,503.56,516.13
31.9502,504.85,520.71
31.9708,506.08,525.77
31.9913,504.86,533.01
32.0119,506.09,540.81
32.0324,505.67,539.25
32.0527,507.54,529
32.0772,507.23,515.8
32.0978,508.18,500.24
32.1182,508.55,483.39
32.1387,511.24,465.71
32.1592,514.19,449.97
32.1837,514.55,436.58
32.2043,513.84,425.86
32.2247,512.47,417.49
32.2452,513.98,413.39
32.2657,513.98,412.91
32.2862,513.79,416.13
32.3107,510.63,423.7
32.3312,508.3,433.36
32.3517,508.24,444.89
32.3722,508.19,457.31
32.3928,508.76,469.65
32.4172,504.8,480.92
32.4377,505.84,490.34
32.4582,506.87,491.87
32.4787,507.3,491.7
32.4992,510.04,490.76
32.5197,507.63,489.4
32.5441,508.51,488.72
32.5647,507.8,487.98
32.5852,507.44,488.98
32.6056,508.55,490.19
32.6262,508.64,492.35
32.6505,508.12,495.48
32.6711,509.29,500.38
32.6917,511.23,506.51
32.7122,512.59,512.81
32.7325,509.07,520.84
32.753,508.86,527.48
32.7775,508.68,531.78
32.7982,507.75,533.62
32.8186,507.8,534.9
32.839,506.04,535.52
32.8595,507.23,548.22
32.88,509.38,575.77
32.9045,511.91,614.42
32.9251,516.53,653.73
32.9455,517.42,683.59
32.9661,516.54,697.87
32.9866,518.43,699.3
33.0112,518.94,688.04
33.0316,520.15,671.23
33.052,519.12,653.78
33.0727,516.9,634.83
33.0931,514.72,618.26
33.1136,513.18,602.21
33.138,512.14,587.37
33.1585,511.71,573.09
33.179,509.37,561.28
33.1996,508.1,549.62
33.22,508.68,539.9
33.2445,510.54,530.52
33.265,511.23,523.01
33.2856,510.39,515.61
33.3061,513.71,508.89
33.3265,516.97,504.51
33.3469,519.17,502.61
33.3714,518.74,502.89
33.392,517.39,506.11
33.4125,517.51,510.29
33.4329,516.81,516.03
33.4534,514.85,521.02
33.478,514.68,525.62
33.4985,511.34,529.5
33.519,510.67,532.2
33.5395,510.94,532.96
33.5599,512.15,532.37
33.5804,512.32,529.69
33.605,511.06,525.95
33.6255,509.45,522.76
33.646,508.96,519.41
33.6665,510.77,515.93
33.687,510.01,513.14
33.7114,510.41,513.11
33.7319,509.93,514.29
33.7524,510.74,516.83
33.7729,510.59,521.67
33.7934,511.08,526.33
33.8143,509.46,531.47
33.8384,510.57,536.37
33.859,508.85,539.1
33.8794,509.48,540.08
33.8998,509.19,539.06
33.9204,509.35,537.65
33.9448,508.28,534.52
33.9654,507.82,532.22
33.986,508.46,526.57
34.0064,507.97,523.66
34.0269,508.37,519.73
34.0474,509.1,517.98
34.0718,512.28,517.39
34.0923,512.82,520.71
34.113,514.46,524.77
34.1335,511.77,527.21
34.1539,508.61,530.37
34.1743,507.29,533.7
34.1988,510.03,537.76
34.2194,510.83,540.01
34.2398,509.66,541.2
34.2603,509.13,539.76
34.2808,509.5,539.21
34.3052,511.2,535.37
34.3258,512.36,531.5
34.3464,512.49,527.6
34.3668,510.99,523.48
34.3873,510.59,519.18
34.4078,511.27,516.95
34.4322,511.62,515.56
34.4529,510.9,516.84
34.4734,509.72,519.08
34.4938,509.97,523.66
34.5143,509.18,526.93
34.5387,509.34,531.14
34.5593,509.87,536.11
34.5799,510.7,539.69
34.6003,508.56,541.35
34.6208,508.65,540.88
34.6413,508.32,538.51
34.6659,510.05,534.2
34.6864,510.04,529.76
34.707,510.23,524.81
34.7273,509.59,521.05
34.7479,510.27,517.24
34.7722,512.02,515.99
34.7928,511.01,515.39
34.8133,508.81,513.91
34.8338,507.25,515.73
34.8542,507.6,520.99
34.8748,508.28,524.59
34.8992,508.82,529.87
34.9198,507.66,533.3
34.9402,507.13,536.24
34.9608,507.7,538.39
34.9812,507.76,538.51
35.0058,508.41,537.81
35.0262,507.33,535.25
35.0468,509.86,532
35.0672,510.89,527.8
35.0877,510.11,522.64
35.1082,510.49,519.11
35.1327,509.79,516.89
35.1532,509.23,515.71
35.1738,510.99,516.77
35.1942,509.19,519.22
35.2146,508.95,523.57
35.2352,509.36,528.66
35.2596,508.89,533.53
35.2802,509.71,540.62
35.3007,510.37,546.5
35.3212,509.7,546.8
35.3417,512.16,542.04
35.3662,513.72,535.03
35.3867,516.98,521.82
35.4072,519.98,505.06
35.4277,523.19,486.65
35.4481,524.75,467.72
35.4687,524.6,450.17
35.4931,525.48,436.74
35.5138,525.58,427.79
35.5341,524.27,422.23
35.5547,521.41,420.59
35.5752,520.33,424.47
35.5997,517.86,428.58
35.6204,516.09,433.66
35.6407,513.27,439.93
35.6611,509.82,445.74
35.6815,509.06,451.39
35.7021,509.04,456.92
35.7266,506.84,460.93
35.7471,506.07,464.75
35.7676,507.25,467.4
35.7881,506.4,468.92
35.8086,503.92,469.73
35.8331,502.34,472.19
35.8535,503.87,475.95
35.8743,504.1,480.76
35.8946,504.28,486.41
35.9152,504.62,494.93
35.9355,504.9,501.34
35.96,504.52,509.27
35.9805,501.81,517.22
36.0011,500.65,522.57
36.0215,500.92,526.06
36.0421,502.74,528.65
36.0625,504.99,530.52
36.0872,505.19,531.61
36.1076,503.75,529.89
36.128,506.6,526.51
36.1485,507.48,523.21
36.169,509.59,520.77
36.1935,508.67,515.61
36.2142,508.53,512.09
36.2345,506.03,511.27
36.255,505.22,513.62
36.2756,505.78,516.3
36.2959,504.02,521.64
36.3205,506.42,527.11
36.341,506.73,532.29
36.3615,505.39,536.83
36.3819,506.71,540.26
36.4024,507.37,556.21
36.4271,508.09,591.57
36.4475,510.08,634.06
36.4679,513.46,666.84
36.4884,517.17,682.28
36.5089,517.93,682.42
36.5294,518.15,673.54
36.5539,519.92,658.03
36.5744,520.53,641.82
36.595,520.83,625.46
36.6155,519.06,610.37
36.6359,520.45,597.89
36.6604,520.36,587.51
36.681,519.29,580.61
36.7014,518.43,574.69
36.7219,516.74,569.15
36.7424,515.4,565.12
36.7632,517.52,559.7
36.7873,520.01,554.16
36.808,521.01,547.93
36.8284,520.61,541.74
36.8489,520.29,534.59
36.8694,521.43,529.47
36.8939,520.74,522.58
36.9145,519.59,519.46
36.935,518.88,516.77
36.9554,518.9,516.62
36.9759,517.52,517.69
36.9964,514.82,519.35
37.0208,512.85,523.28
37.0414,513.08,527.63
37.0619,514.07,535.7
37.0824,514.45,540.96
37.103,515.56,542.97
37.1273,516.65,543.98
37.1479,517.12,543.18
37.1683,516.3,540.54
37.1888,517.24,537.84
37.2093,515.99,532.87
37.2297,514.79,527.69
37.2542,517.23,523.96
37.2749,516.99,520.36
37.2953,516.59,517.89
37.3158,514.07,517.71
37.3362,514.86,519.97
37.3608,512.69,523.58
37.3813,512.75,527.26
37.4019,509.2,531.21
37.4223,510.36,534.57
37.4428,510.49,537.05
37.4632,509.39,538.84
37.4878,508.31,539.47
37.5083,504.85,539.98
37.5289,507.08,538.38
37.5493,509.66,534.71
37.5698,510.13,530.97
37.5902,508.9,527.97
37.6148,511.72,524.18
37.6353,512.38,521.34
37.6558,511.3,518.67
37.6763,509.64,517.14
37.6967,509.51,518.51
37.7214,509.41,521.01
37.7418,509.73,524.81
37.7624,511.38,527.65
37.7829,510.51,531.32
37.8032,511.41,535.65
37.8237,512.12,538.12
37.8482,513.5,539.3
37.8687,513.4,538.64
37.8893,511.32,536.91
37.9097,510.86,533.73
37.9303,511.48,530.78
37.9549,512.59,525.83
37.9752,513.27,522.06
37.9957,514.22,518.05
38.0162,512.97,516.44
38.0367,510.98,516.75
38.0572,510.78,517.8
38.0818,509.63,521.04
38.1022,510.3,525.83
38.1228,510.84,531.87
38.1433,505.47,536.49
38.1637,506.18,539.79
38.1882,506.94,541.04
38.2086,507.75,541.23
38.2292,507.4,540.18
38.2497,505.32,537.35
38.2702,505.66,533.08
38.2908,506.33,528.86
38.3151,508.46,524.29
38.3357,508.97,519.63
38.3562,509.38,517.31
38.3766,509.9,515.64
38.3972,509.92,515.12
38.4216,509.14,517.09
38.4424,510.11,519.87
38.4627,513.49,524.1
38.4833,512.19,528.08
38.5036,512.75,533.06
38.5242,512.2,536.85
38.5485,512.16,538.08
38.5692,512.33,537.86
38.5896,512.26,537.09
38.6103,511.81,534.87
38.6306,512.25,532.3
38.6512,513.8,528.64
38.6756,512.44,524.11
38.6962,513.55,520.09
38.7166,513.84,517.07
38.737,513.67,516.66
38.7576,513.74,515.73
38.7821,511.79,517.18
38.8027,511.03,520.74
38.8232,512.63,524.8
38.8436,513.3,529.24
38.864,511.24,533.79
38.8845,509.79,537.63
38.909,509.83,539.51
38.9296,509.47,540.2
38.9501,509.37,539.76
38.9706,508.5,538.21
38.9911,507.4,535.77
39.0157,508.72,533.21
39.0361,510.18,530.57
39.0566,510.34,528.26
39.077,509.87,523.61
39.0975,509.9,517.48
39.1179,510.12,508.19
39.1425,508.09,497.95
39.163,508.08,488.76
39.1835,511.46,480.81
39.2039,510.37,474.65
39.2245,511.09,468.72
39.2489,509.28,461.17
39.2695,509.62,453.54
39.29,508.1,445.23
39.3105,510.28,437.19
39.331,510.22,429.55
39.3515,510.18,422.64
39.376,511.34,418.11
39.3965,510.87,416.29
39.417,511.1,415.83
39.4376,511.48,418.06
39.4579,512.98,423.25
39.4824,512.59,430.8
39.5029,512.27,440.84
39.5234,511.42,453.27
39.5439,510.53,465.62
39.5645,508.83,477.29
39.5848,508.86,488.04
39.6094,507.09,497.83
39.6299,506.47,506.06
39.6504,507.98,512.05
39.6709,507.78,515.84
39.6913,509.43,518.07
39.7119,509.54,517.86
39.7364,511.03,515.69
39.7569,511.23,513.55
39.7774,511.58,510.64
39.7979,511.86,509.31
39.8184,511.29,509.65
39.8428,511.03,510.52
39.8637,510.83,512.62
39.884,511.26,517.09
39.9045,512.01,521.67
39.9249,510.61,527.34
39.9453,509.09,531.87
39.9698,509.67,535.1
39.9904,510.93,537.48
40.0108,510.15,538.98
40.0313,510.52,537.79
40.0518,510.81,537.23
40.0763,509.05,557.18
40.0969,507.04,591.75
40.1175,504.23,629.4
40.1379,507.99,657.52
40.1584,511.39,670.01
40.1789,514.51,670.21
40.2033,517.41,663.17
40.2239,517.73,653.54
40.2445,518.18,642.63
40.2649,516.55,631.5
40.2853,516.04,620.2
40.3098,515.63,610.96
40.3303,515.5,600.37
40.3508,513.8,590.5
40.3712,512.64,581.4
40.3918,513.31,572.72
40.4122,513.25,562.17
40.4369,514.8,553.34
40.4573,516.04,544.67
40.4778,517.43,535.54
40.4983,517.15,528.43
40.5187,515.92,523.54
40.5433,515.93,520.03
40.5637,515.55,518.23
40.5843,514.24,518.58
40.6048,514.79,521.07
40.6253,513.43,524.65
40.6457,511.75,528.92
40.6702,510,532.54
40.6907,509.2,535.23
40.7113,509.36,537.38
40.7317,507.89,536.91
40.7523,508.31,536.13
40.7727,508.85,533.5
40.7973,510.68,531.6
40.8177,512.74,530.28
40.8382,512.19,527.62
40.8587,510.75,524.3
40.8792,512,522.64
40.9036,512,521.11
40.9242,511.8,521.09
40.9447,510.84,522.07
40.9651,509.87,525.06
40.9857,508.9,528.45
41.0063,507.92,532.56
41.0306,508.14,536.85
41.0512,509.31,539.48
41.0718,507.85,540.38
41.0922,506.88,540.9
41.1127,506.9,539.12
41.1372,507.12,536.9
41.1576,506.1,533.32
41.1782,507.68,528.86
41.1988,509.14,523.88
41.2192,509.11,519.91
41.2396,508.09,517.53
41.2642,507.67,516.42
41.2846,507.14,516.54
41.3051,505.91,519.23
41.3257,508.33,520.78
41.346,510.86,524.43
41.3706,511.09,528.54
41.3911,511.67,532.23
41.4116,509.94,534.99
41.4321,508.75,537.39
41.4527,508.6,538.11
41.473,511.48,537.09
41.4976,512.18,534.07
41.5181,510.15,530.86
41.5386,510.32,526.89
41.5592,511.85,522.91
41.5795,512.48,519.73
41.604,510.19,517.18
41.6245,512.35,515.35
41.6451,512.08,515.68
41.6655,510.66,517.54
41.6861,509.13,521.63
41.7066,509.5,526.11
41.7311,509.8,531.68
41.7515,507.84,535.75
41.7721,507.07,538.4
41.7926,507.06,539.72
41.8131,507.45,539.78
41.8335,506.76,537.42
41.858,505.61,534.14
41.8786,506.69,529.51
41.899,507.15,525.61
41.9195,508.72,521.49
41.9401,510.77,517.39
41.9646,511.82,515.11
41.9851,509.06,514.29
42.0056,511.04,514.23
42.026,510.24,516.78
42.0465,508.59,519.63
42.0671,507.67,523.7
42.0914,507.14,528.76
42.112,508.71,533.61
42.1325,509.57,536.49
42.153,509.85,537.19
42.1735,510.28,537.75
42.1979,509.03,536.8
42.2185,509.62,534.84
42.2391,509.1,531.87
42.2595,508.88,527.3
42.2799,510.1,523.24
42.3005,509.28,518.59
42.3249,510.23,516.27
42.3455,510.78,516.42
42.3659,511.02,517.53
42.3864,510.22,519.63
42.4069,510.18,523.5
42.4314,509.74,527.6
42.452,509.79,532.48
42.4725,509.03,537.59
42.4929,508.83,541.67
42.5134,507.66,541.53
42.5339,506.73,540.43
42.5583,507.78,539.34
42.5789,507.43,536.87
42.5994,508.74,532.3
42.62,510.39,527.64
42.6404,510.11,521.91
42.665,509.29,517.73
42.6854,509.43,516.58
42.706,510.15,516.67
42.7264,511.12,517.33
42.7469,511.49,521.67
42.7673,511.6,528.33
42.7918,510.08,531.27
42.8124,508.86,532.01
42.8329,510.29,529.21
42.8534,510.43,521.57
42.8738,511.34,510.65
42.8983,514.88,498.12
42.9188,516.7,485.1
42.9394,519.76,469.68
42.9599,522.61,456.54
42.9804,523.89,443.63
43.0008,524.31,432.51
43.0253,525.25,422.61
43.0459,523.2,416.89
43.0664,522.96,413.11
43.0869,521.17,413.69
43.1074,517.33,417.15
43.128,514.27,421.72
43.1523,512.41,429.78
43.1728,509.33,438.02
43.1934,506.26,447.22
43.2139,507.81,455.77
43.2343,507.45,463.62
43.2587,508.36,470.89
43.2793,506.09,475.72
43.2999,504.07,478.77
43.3202,506.46,480.62
43.3408,506.16,482.69
43.3612,505.73,484.16
43.3858,505.59,484.52
43.4064,507.27,485.62
43.4267,509.41,487.5
43.4472,509.33,491.2
43.4677,508.27,495.36
43.4923,506.41,500.69
43.5127,507.53,506.75
43.5335,507.82,514.4
43.5538,508.06,520.92
43.5743,507.45,525.74
43.5948,507.96,529.19
43.6193,510.37,531.35
43.6397,509.89,531.48
43.6602,509.91,528.78
43.6808,510.93,525.63
43.7013,510.95,522.3
43.7258,510.96,519.64
43.7462,509.97,517.11
43.7667,509.77,522.49
43.7874,510.22,547.19
43.8077,511.37,588.35
43.8281,508.9,636.68
43.8527,508.72,678.95
43.8732,507.98,705.56
43.8937,507.38,714.25
43.9143,509.3,712.2
43.9347,509.84,701.76
43.9592,508.87,684.41
43.9797,508.1,663.12
44.0002,509.08,640.9
44.0207,510.66,619.32
44.0412,511.13,598.06
44.0618,511.5,579.04
44.0862,511,561.64
44.1068,511,547.71
44.1271,511,537.17
44.1477,511.2,530.13
44.1682,511.96,525.71
44.1887,510.97,523.97
44.2132,514.18,527.37
44.2338,514.54,531.9
44.2541,513.63,535.32
44.2746,514.71,538.45
44.2951,514.56,540.16
44.3196,513.25,539.93
44.3402,513.2,539.94
44.3606,512.76,537.76
44.3812,511.41,534.4
44.4018,509.73,529.92
44.4221,511.98,526.34
44.4466,511.59,522.67
44.4672,510.87,519.14
44.4876,512.89,516.11
44.5081,513.92,514.89
44.5285,513.53,515.11
44.553,513.43,517.49
44.5735,513.34,521.59
44.5941,513.47,526.27
44.6147,513.38,531.22
44.635,511.1,535.57
44.6556,511.48,537.46
44.68,511.39,538.97
44.7007,510.11,538.97
44.7212,509.69,537.38
44.7417,510.95,534.3
44.762,511.76,530.44
44.7865,512.01,526.75
44.8071,512.61,522.2
44.8276,512.68,517.76
44.8481,511.75,515.61
44.8685,513.4,514.69
44.8891,512.92,514.95
44.9135,513.33,517.36
44.9341,511.67,521.29
44.9545,510.93,525.63
44.9751,510.95,531.1
44.9955,510.96,534.68
45.02,510.37,537.95
45.0407,510.29,538.36
45.0612,509.63,539.09
45.0817,508.71,538.67
45.102,509.77,535.14
45.1226,509.81,531.71
45.147,511.45,527.17
45.1675,512.36,522.53
45.188,514.49,517.63
45.2085,514.19,514.7
45.2289,513.55,513.56
45.2534,513.64,513.65
45.2739,513.71,515.52
45.2944,511.77,519.02
45.3149,512.22,523.81
45.3355,513.37,528.05
45.356,513.1,532.84
45.3805,511.68,535.47
45.4009,510.94,536.78
45.4215,510.75,536.62
45.442,510.8,536.1
45.4625,510.64,533.88
45.4829,511.71,530.5
45.5074,511.77,526.8
45.528,510.62,523.24
45.5484,511.69,519.39
45.5689,512.36,516.71
45.5893,512.68,515.17
45.6138,513.35,515.14
45.6344,512.88,517.31
45.655,511.9,520.85
45.6755,511.72,525.88
45.6959,510.78,530.5
45.7164,509.42,535.2
45.7409,508.14,540.16
45.7614,505.91,542.53
45.7819,505.13,543.82
45.8023,505.3,542.06
45.8229,505.64,539.45
45.8474,507.11,535.56
45.8678,507.29,530.85
45.8883,508.43,526.28
45.9089,509.35,521.62
45.9294,510.28,518.9
45.9499,510.02,517.72
45.9744,509.82,517.37
45.9949,508.85,519.5
46.0154,507.88,523
46.0358,507.71,527.6
46.0564,507.57,531.28
46.0808,507.45,535.22
46.1013,508.96,537.98
46.1218,510.97,537.98
46.1423,514.38,536.59
46.1628,514.5,535.67
46.1832,514.8,533.34
46.2078,515.44,528.87
46.2283,513.95,525.29
46.2488,512.56,520.64
46.2693,513.05,516.11
46.2897,512.64,513.49
46.3144,514.91,513.59
46.3347,515.33,513.27
46.3554,515.66,515.62
46.3758,513.93,519.49
46.3963,512.94,524
46.4167,512.16,528.4
46.4413,511.12,533.32
46.4618,508.3,536.65
46.4822,507.84,538.12
46.5027,509.07,538.9
46.5233,508.46,537.72
46.5477,509.97,535.97
46.5682,508.97,531.98
46.5888,509.18,527.98
46.6093,508.34,523.99
46.6297,508.47,519.59
46.6502,509.38,519.07
46.6747,510.7,520.66
46.6969,508.96,524.33
46.7157,508.77,526.06
46.7362,510.22,525.65
46.7567,507.77,522.32
46.7772,505.42,518.46
46.8016,505.93,513.16
46.8223,505.15,505.73
46.8428,505.32,497.19
46.8631,505.05,487.35
46.8836,504.64,477.08
46.9084,504.91,466.66
46.9288,505.13,456.73
46.9493,504.31,447.18
46.9697,505.04,438.95
46.9902,507.44,436.76
47.0106,506.15,438.21
47.0352,506.72,443.17
47.0558,506.98,450.13
47.0763,505.78,459.51
47.0967,506.82,470.6
47.1172,506.86,479.88
47.1416,505.29,482.71
47.1622,506.63,481.97
47.1826,505.7,479.97
47.2034,506.16,477.18
47.2236,505.93,476.74
47.2441,506.14,475.79
47.2686,506.52,473.84
47.2891,506.81,472.87
47.3096,507.85,472.09
47.33,508.68,470.08
47.3505,510.74,470.26
47.375,513,471.01
47.3956,511.4,473.61
47.4162,512.12,476.09
47.4366,510.89,481.27
47.4571,510.31,487.81
47.4776,508.65,493.85
47.502,508.92,500.88
47.5226,508.14,507.71
47.5431,507.51,513.96
47.5636,508.01,518.37
47.5841,507.01,521.5
47.6086,506.41,522.4
47.6291,507.72,521.92
47.6497,509.58,519.93
47.6701,510.26,525.75
47.6905,509.61,548
47.711,510.29,582.8
47.7355,512.83,623.24
47.756,514.86,660.79
47.7767,515.89,690.43
47.7971,516.31,706.35
47.8176,516.85,710.88
47.8381,517.28,705.7
47.8625,518.42,693.96
47.883,517.14,678.17
47.9035,518.11,658.74
47.9241,517.49,638.59
47.9444,515.79,617.27
47.9689,516.23,598.82
47.9895,514.79,580.45
48.01,514.23,564.76
48.0307,514.78,550.21
48.051,514.43,536.97
48.0715,511.94,526.57
48.096,513.75,520.26
48.1166,511.4,515.41
48.1371,512.92,513.93
48.1575,511.54,514.34
48.178,511.83,516.67
48.2025,510.06,520.34
48.223,512.45,526.67
48.2435,515.76,530.74
48.264,517.01,534.59
48.2844,517.81,537.27
48.3049,515.85,537.42
48.3294,514.48,537.13
48.3499,515.18,535.71
48.3705,513.34,532.57
48.3909,513.28,528.85
48.4115,513.02,524.68
48.4359,514.02,520.35
48.4565,513.41,518.68
48.4769,514.73,516.94
48.4974,513.98,516.75
48.5179,512.99,519
48.5384,511.99,521.4
48.5628,510.19,525.72
48.5834,510.15,530.18
48.6039,508.52,534.14
48.6244,509.42,537.31
48.6449,508.93,539.05
48.6693,505.35,539.24
48.6899,505.28,538.99
48.7104,505.22,536.39
48.7309,506.18,532.72
48.7513,508.94,529.17
48.7719,508.35,525.34
48.7963,508.28,520.47
48.8171,509.23,517.78
48.8374,509.78,517.22
48.8579,509.03,516.18
48.8784,510.02,518.94
48.9028,510.02,521.35
48.9234,510.01,525.48
48.944,508.81,529.19
48.9645,508.05,533.95
48.985,507.24,537.36
49.0054,507.59,539.29
49.03,508.27,541.83
49.0504,506.22,540.06
49.071,509.17,536.85
49.0914,508.74,533.68
49.1119,509.99,529.14
49.1323,511.39,525.72
49.1569,513.71,520.97
49.1775,515.17,517.58
49.1979,512.94,515.86
49.2183,512.75,515.89
49.2388,512,517.11
49.2634,510,520.29
49.2839,509.4,523.63
49.3045,508.32,528.91
49.325,508.26,533.52
49.3454,508.8,537.82
49.3658,509.24,539.66
49.3904,508.8,540.52
49.4109,508.44,541.02
49.4313,508.95,537.82
49.4518,509.96,534.65
49.4723,511.57,530.52
49.497,511.85,526.42
49.5172,511.68,522.93
49.5378,513.15,520.15
49.5584,512.52,518.52
49.579,511.21,518.01
49.5994,510.77,518.61
49.6239,510.02,522.29
49.6444,510.81,526.63
49.6649,508.85,531.11
49.6854,507.68,535.08
49.7059,506.74,538.67
49.7303,507.4,540.73
49.7508,507.12,540.99
49.7713,509.29,540.59
49.7917,509.83,538.07
49.8122,508.27,534.66
49.8328,508.81,531.33
49.8572,508.65,527.06
49.8777,509.12,522.45
49.8983,508.9,519.16
49.9187,508.52,517.33
49.9393,508.61,516.86
49.9636,510.69,517.69
49.9841,510.95,519.95
50.0047,509.96,523.96
50.0253,510.17,528.17
50.0456,509.94,532.14
50.0663,508.75,536.11
50.0907,508.8,538.69
50.1113,507.44,538.95
50.1318,508.15,538.36
50.1522,508.92,537.29
50.1728,508.74,534.03
50.1933,507.99,530.82
50.2177,508.79,526.46
50.2382,510.83,522.57
50.2589,514.27,518.45
50.2793,517.21,516.16
50.2997,516.77,515.53
50.3242,517.62,515.22
50.3447,517.49,518.18
50.3651,516.79,522.34
50.3856,515.84,527.47
50.4062,514.27,531.98
50.4266,515.21,534.98
50.4512,516.37,538.19
50.4717,515.9,539.35
50.4922,513.72,540.08
50.5127,513.37,540.06
50.5331,513.5,540.05
50.5576,511.6,538.24
50.5782,510.28,533.79
50.5986,508.82,525.03
50.6191,507.86,516.63
50.6396,508.69,508.7
50.66,507.95,501.36
50.6846,506.16,495.49
50.7051,502.73,490.79
50.7255,498.98,487.63
50.746,500.19,484.91
50.7665,499.55,480.53
50.7911,499.24,475.42
50.8115,497.99,469.54
50.8321,497.59,462.23
50.8525,498.87,452.78
50.873,500.7,444.03
50.8934,503.76,435.22
50.918,505.21,427.38
50.9399,505.77,421.9
50.9591,506.61,419.32
50.9795,506.29,418.26
51.0001,505.83,420.61
51.0245,507.07,426.68
51.045,508.45,433.55
51.0655,508.76,443.24
51.0859,508.01,452.99
51.1065,508.41,463.39
51.127,505.93,474.71
51.1514,504.74,483.97
51.172,505.59,493.18
51.1925,505.67,500.14
51.2129,504.54,505.31
51.2334,504.43,509.05
51.2539,507.75,511.24
51.2785,508.8,511.19
51.2989,508.64,510.95
51.3194,506.91,509.56
51.3399,506.73,507.85
51.3605,506.98,522.88
51.385,505.99,558.7
51.4054,506.39,606.36
51.4259,503.91,648.49
51.4464,501.93,673.59
51.467,500.74,683.07
51.4874,499.59,681.86
51.5119,501.08,674.09
51.5325,501.86,662.07
51.5529,502.89,645.66
51.5733,503.91,629.12
51.5938,504.73,612.1
51.6183,505.38,595.68
51.6388,508.11,579.14
51.6595,508.29,565.12
51.6799,501.83,553.69
51.7003,500.26,543.95
51.7209,500.21,536.16
51.7455,500.17,530.53
51.7659,499.13,527.02
51.7864,496.91,525.62
51.8069,496.93,526.3
51.8274,498.14,528.04
51.8518,500.31,530.43
51.8723,499.65,534.34
51.8928,498.92,538.47
51.9134,500.14,540.18
51.9338,500.11,539.54
51.9544,500.69,538.44
51.9788,502.55,536.15
51.9995,502.84,533.32
52.0198,504.27,529.85
52.0403,503.82,525.08
52.0608,504.85,521.27
52.0853,506.28,519.61
52.1059,519.63,517.89
52.1263,528.5,518.71
52.1467,535.8,519.97
52.1673,541.04,522.78
52.1877,544.03,527.22
52.2122,544.63,531.78
52.2327,541.5,536.62
52.2533,535.6,539.5
52.2738,533.08,541.4
52.2943,532.26,543.12
52.3147,528.41,541.09
52.3392,525.33,536.08
52.3598,522.66,533.26
52.3802,520.33,528.61
52.4007,521.26,525.29
52.4212,519.81,522.23
52.4457,516.65,520.58
52.4662,515.12,518.67
52.4867,514.7,518.73
52.5072,512.96,521.59
52.5277,513.57,524.27
52.5481,512.85,529.02
52.5727,511.48,533.21
52.5932,510.19,536.57
52.6137,508.95,538.86
52.6342,508.36,539.68
52.6547,508.49,540.35
52.6792,512.39,539.88
52.6997,514.31,537.9
52.7202,517.65,534.52
52.7407,519.12,530.62
52.7613,517.5,526.49
52.7817,516.8,522.4
52.8063,516.04,518.52
52.8268,517.63,517.41
52.8472,517.1,517.33
52.8677,515.88,520.66
52.8882,515.31,523.33
52.9127,516.85,527.67
52.9332,516.48,532.13
52.9536,512.98,536.11
52.9741,510.78,539.68
52.9946,509.03,541.75
53.0151,508.42,543
53.0396,508.14,541.4
53.0601,510.31,538.92
53.0806,511.65,534.94
53.1012,511.52,530.15
53.1216,511.61,523.72
53.1461,511.09,519.57
53.1667,509.07,517.26
53.1873,511.46,516.61
53.2078,511.97,517.09
53.2283,513.37,519.07
53.2486,512.7,522.86
53.2732,512.96,526.88
53.2936,512.17,532.11
53.3142,511.53,536.09
53.3345,511.63,538.67
53.3551,511.3,540.53
53.3795,510.84,541.63
53.4001,512.07,541.1
53.4209,512.66,538.68
53.441,514.33,533.95
53.4615,513.46,530.16
53.482,510.57,525.53
53.5065,507.26,520.82
53.5272,508.4,518.46
53.5476,509.92,517.36
53.568,510.54,517.89
53.5885,508.83,519.91
53.6129,508.86,523.73
53.6335,512.29,528.78
53.654,514.03,532.83
53.6745,514.63,536.26
53.6951,514.9,539.21
53.7155,514.72,541.37
53.74,515.18,541.49
53.7606,514.94,541.6
53.7811,516.55,539.48
53.8015,514.64,535.18
53.822,513.91,530.54
53.8425,514.13,524.84
53.867,513.51,520.47
53.8875,513.4,517.17
53.908,512.32,516.34
53.9285,510.66,517.07
53.9491,511.93,520.06
53.9735,510.94,523.05
53.9941,511.35,527.64
54.0147,513.08,531.71
54.035,511.07,535.57
54.0556,510.25,539.45
54.0761,511,541.36
54.1004,509.4,542.09
54.121,509.32,541.87
54.1414,508.86,539.1
54.162,509.29,536.28
54.1825,509.63,531.62
54.2069,510.3,527.1
54.2274,510.24,524.28
54.2479,508.59,521.22
54.2684,506.88,519.78
54.2888,507.1,519.62
54.3094,507.88,521.3
54.334,509.9,524.24
54.3545,509.32,528.99
54.375,508.66,533.19
54.3955,508.33,536.55
54.4161,508.26,539.84
54.4403,509.01,542.87
54.461,507.61,544.1
54.4815,506.09,543.08
54.5019,506.87,540.46
54.5225,507.1,538.17
54.5429,506.08,531.34
54.5674,503.46,524.07
54.5879,502.37,518.86
54.6083,502.49,514.48
54.6289,502.6,512.59
54.6494,501.88,512.07
54.6738,501.9,513.86
54.6944,502.12,516.88
54.7149,502.1,520.71
54.7353,502.88,524.97
54.7559,504.3,529.97
54.7764,504.24,533.98
54.8008,502.39,535.18
54.8214,503.91,536.55
54.8419,504.93,535.64
54.8624,504.55,533.51
54.8828,502.24,531.01
54.9032,502.59,526.41
54.9278,504.27,522.92
54.9483,504.42,518.34
54.9688,503.73,515.07
54.9892,503.59,513.66
55.0097,504.87,513.53
55.0342,507.3,514.02
55.0548,509.44,517.22
55.0752,509.55,518.77
55.0958,508.64,522.02
55.1162,506.71,523.21
55.1367,510.17,526.77
55.1613,511.54,526.22
55.1818,512.83,523.77
55.2023,514.26,521.22
55.2227,512.81,521.98
55.2432,502.05,528.58
55.2677,496.84,530.86
55.2882,492.67,529.09
55.3087,493.94,523.07
55.3292,496.35,518.26
55.3497,497.88,514.81
55.3702,500.7,513.65
55.3947,502.36,513.52
55.4152,504.69,515.21
55.4357,506.55,518.77
55.4562,508.04,522.42
55.4767,510.63,526.93
55.5011,510.91,530.75
55.5217,511.73,532.6
55.5422,510.78,533.48
55.5627,510.42,533.98
55.5832,509.14,532.19
55.6037,509.71,529.15
55.6281,512.57,525.52
55.6487,512.86,521.22
55.6692,515.88,518.37
55.6897,517.91,515.9
55.7101,518.93,514.72
55.7347,517.14,513.97
55.7552,517.71,516.78
55.7759,515.57,519.62
55.7963,515.66,523.9
55.8166,515.92,528.52
55.8371,515.54,534.42
55.8616,514.83,540.33
55.8822,515.07,542.47
55.9026,514.65,543.77
55.9231,511.12,543.82
55.9436,509.3,542.65
55.9682,510.84,538.72
55.9886,510.07,534.58
56.0091,511.66,531.06
56.0296,511.73,525.65
56.0501,509.58,520.72
56.0707,508.06,520.58
56.0951,511.85,519.26
56.1157,522.48,515.61
56.1362,533.18,515.09
56.1565,538.35,517.67
56.1772,539.68,522.94
56.1975,538.74,525.35
56.2221,537.99,517.88
56.2427,535.2,504.7
56.2632,528.36,487.76
56.2836,524.49,470.01
56.3041,518.99,453.81
56.3287,513.59,440.45
56.3492,510.47,431.56
56.3697,504.98,424.45
56.3901,501.18,421.36
56.4105,499.95,421.49
56.431,499.56,425.19
56.4556,499.85,431.55
56.4761,499.88,439.84
56.4965,498.7,450.47
56.517,498.56,460.78
56.5376,500.25,472.02
56.562,501.2,483.22
56.5826,500.76,494.17
56.603,500.21,503.34
56.6235,501.17,511.07
56.6441,502.53,517.86
56.6645,502.03,539.09
56.6891,500.82,579.47
56.7097,494.86,628.17
56.7301,492.49,667.74
56.7506,491.79,683.19
56.771,491.03,681.95
56.7955,491.22,671.76
56.8162,494.38,658.21
56.8366,497.5,639.17
56.8572,502.2,623.13
56.8775,505.76,609.51
56.898,505.41,598.01
56.9226,505.33,587.4
56.943,506.26,579.92
56.9634,509.81,572.74
56.9839,510.45,565.39
57.0045,512.56,557.71
57.0289,512.25,549.97
57.0494,511.8,540.98
57.07,513.64,532.78
57.0904,514.91,526.62
57.1109,514.93,520.7
57.1314,514.54,514.36
57.1559,514.03,510.49
57.1765,514.03,508.99
57.1969,513.22,509.39
57.2174,512.38,511.51
57.238,510.5,516.01
57.2584,509,521.81
57.283,509.2,527.45
57.3034,510.76,531.56
57.3239,510.81,534.65
57.3443,511.65,535.92
57.3648,512.32,536.73
57.3893,512.05,536.79
57.41,513.64,534.63
57.4305,513.31,530.9
57.4509,513.05,525.72
57.4714,514.04,520.58
57.4919,512.83,516.86
57.5172,512.07,513.69
57.5369,510.05,514.35
57.5575,510.84,515.88
57.5778,509.27,518.91
57.5983,511.22,523.32
57.6228,511.98,529.66
57.6433,512.78,533.13
57.6639,528.62,530.5
57.6844,543.9,527
57.7048,555.52,526
57.7253,562.22,525.4
57.7498,562.57,524.12
57.7703,561.26,521.3
57.7909,558.81,517.64
57.8114,556.85,514.31
57.8319,553.88,510.65
57.8563,547.5,508.72
57.8769,541.4,506.57
57.8974,538.12,505.86
57.9179,535.3,507.89
57.9385,529.44,510.91
57.9589,525.15,516.73
57.9835,521.72,522.18
58.0039,520.98,528.55
58.0243,519.98,533.64
58.0448,517.38,538.11
58.0653,516.51,539.89
58.0897,514.01,538.51
58.1103,513.6,538.21
58.1308,513.88,535.97
58.1514,511.71,531.57
58.1719,510.57,527.06
58.1922,512.05,522.65
58.2168,515.44,518.52
58.2373,517.55,516.41
58.258,516.24,515.93
58.2782,516.39,516.75
58.2987,515.72,520.2
58.3234,516.77,523.96
58.3437,516.42,529.77
58.3642,516.73,535.01
58.3847,515.79,539.81
58.4052,516.43,543.65
58.4259,513.94,544.72
58.4503,510.16,544.77
58.4707,509.32,544.02
58.4912,507.66,541.02
58.5117,509.13,535.61
58.5322,511.1,532.29
58.5526,510.68,527.03
58.5771,510.95,521.43
58.5977,510.16,517.34
58.6182,511.92,516.07
58.6387,513.54,517.06
58.6592,514.03,519.05
58.6837,513.43,522.44
58.7042,513.54,526.15
58.7247,512.63,530.32
58.7453,511.31,535.06
58.7658,508.44,538.24
58.7862,510.76,541.2
58.8107,511.4,541.96
58.8312,513.52,540.77
58.8518,511.02,537.61
58.8721,511.22,533.89
58.8927,510.77,529.31
58.9172,511.42,525.65
58.9376,510.53,521.32
58.9582,510.43,518.26
58.9786,510.34,516.4
58.9991,509.87,516.12
59.0196,507.9,518.3
59.0441,508.32,520.84
59.0646,508.06,526.07
59.0852,508.24,530.26
59.1056,507.8,535.81
59.1261,508.24,538.64
59.1507,509.19,540.52
59.1712,509.95,540.61
59.1916,511.56,540.09
59.2121,511.05,538.67
59.2326,511.44,535.34
59.253,512.55,531.27
59.2776,512.24,526.62
59.298,511.59,522.49
59.3186,512.27,519.59
59.3392,513.02,518.48
59.3596,510.82,517.78
59.3841,513.05,519.62
59.4046,509.64,524.1
59.4251,508.91,528.88
59.4456,508.13,534.3
59.4661,507.7,540.24
59.4865,505.16,543.79
59.511,504.13,547.24
59.5316,502.7,547.39
59.5521,501.36,545.31
59.5726,503.09,542.25
59.593,502.47,539.8
59.6135,498.78,540.44
59.638,487.62,540.75
59.6585,476.9,538.6
59.679,471.72,534.88
59.6995,469.77,532.5
59.7199,469.22,530.6
59.7444,470.38,529.88
59.765,475.1,531.11
59.7855,478.48,534.89
59.806,480.98,538.11
59.8265,484.39,542.09
59.847,487.11,545.07
59.8714,491.49,546.26
59.8919,494.99,547.4
59.9124,496.19,546.52
59.933,498.95,543.42
59.9535,498.36,539.94
59.9779,502.89,536.35
59.9985,505.51,532.48
60.019,506.21,528.58
60.0396,506.17,524.47
60.0599,506.33,523.17
60.0804,507.67,522.34
60.1049,509.73,524.47
60.1254,516.59,524.38
