Program Time [s],data 0,data 1
3.46793,509.33,526.46
3.46795,509.06,530.37
3.46795,506.9,504.72
3.46797,510.22,505.18
3.46798,510.78,506.54
3.46799,510.42,510.83
3.468,510.94,515.47
3.46801,509.95,520.57
3.46802,509.16,526.46
3.46803,509.33,530.37
3.46804,509.06,511
4.98523,513.4,509.2
5.00581,513.72,506.56
5.02626,513.58,504.85
5.04674,515.06,505.08
5.0672,513.45,507.06
5.09173,511.96,509.45
5.11227,512.57,514.56
5.13281,511.65,519.65
5.15329,512.32,524.52
5.17375,510.66,529.81
5.19422,507.53,534.05
5.2187,506.22,535.04
5.23923,507.38,536.63
5.25974,508.5,534.71
5.28021,508.8,529.97
5.30069,508.24,526.57
5.32121,507.39,522.46
5.34572,508.51,516.97
5.36626,510.21,513.17
5.38683,510.57,510.94
5.40727,510.46,509.15
5.42778,509.96,510.72
5.45219,509.97,515.98
5.47273,509.38,521.18
5.49324,507.9,521.14
5.51371,507.72,515.92
5.53435,504.58,505.93
5.55469,504.06,491.75
5.57915,502.05,477
5.59985,501.24,463.4
5.62021,500.99,451.72
5.64069,501.79,443.77
5.6612,501.23,439.82
5.68563,502.19,438.86
5.70616,500.75,439.88
5.7267,501.2,441.31
5.74713,500.16,445.65
5.76765,502.13,451.52
5.78807,504.3,464.41
5.81261,505.44,493.73
5.83314,508.55,532.98
5.85362,512.44,570.19
5.87426,516.35,593.35
5.89464,518.88,605.08
5.91914,517.91,608.66
5.93967,517.73,606.53
5.96021,518.18,600.43
5.98064,518.34,592.34
6.00116,518.48,581.87
6.02157,518.98,570.5
6.04609,515.58,559
6.06661,515.47,549.2
6.0872,515.17,540.36
6.10761,515.14,532.69
6.12808,514.71,528.15
6.15253,515.77,525.32
6.1731,516.62,524.46
6.19361,516.29,525.16
6.21409,514.23,525.93
6.23462,515.39,529.55
6.25506,514.71,532.24
6.27959,513.17,532.99
6.30011,512.53,534.19
6.32063,510.83,533.75
6.34112,510.46,532.6
6.36155,509.77,529.48
6.38635,509.62,525.39
6.40654,510.89,521.11
6.42708,512.31,516.29
6.44767,512.05,512.23
6.46806,511.84,508.18
6.48854,512.87,507.15
6.51303,511.1,507.72
6.53354,511.88,509.97
6.55405,511.9,513.78
6.57458,512.92,518.42
6.59514,510.54,523.54
6.61559,510.23,527.63
6.64007,509.78,531.1
6.66077,508.03,532.08
6.68108,507.22,530.07
6.70155,507.18,529.65
6.72196,507.34,527.52
6.74646,508.07,522.42
6.76707,508.46,517.53
6.78749,506.77,512.63
6.8082,508.01,509.3
6.82852,508.41,507.64
6.84901,510.13,506.71
6.87346,511.9,505.97
6.89405,511.12,509.18
6.91447,512.3,513.34
6.93503,513.84,518.07
6.95548,510.47,521.66
6.97993,509.38,524.93
7.00047,510.9,526.94
7.02103,513.12,527.95
7.04153,512.3,529.96
7.06193,511.24,528.17
7.08241,510.79,524.74
7.10691,510.83,521.59
7.12752,509.67,517.27
7.14796,509.93,513.22
7.16849,507.75,508.37
7.18896,508.6,506.5
7.21344,508.88,505.8
7.23391,509.9,505.84
7.25445,508.52,509.07
7.27492,509.02,512.26
7.29538,508.81,517.21
7.31589,509.05,523.16
7.34044,508.04,527.73
7.36096,508.03,529.79
7.3814,507.43,531.43
7.40199,504.94,531.14
7.42237,503.75,530.71
7.44283,505,527.37
7.46752,506.4,523.5
7.48794,506.92,519.4
7.50837,507.54,515.52
7.52892,507.83,512.21
7.54936,509.06,509.57
7.57388,510.05,508.06
7.5944,509.24,508.65
7.61499,510.19,511.52
7.63535,509.15,515.01
7.65587,508.92,520.21
7.67647,508.54,524.17
7.70095,507.63,528.53
7.72135,506.1,532.63
7.74189,503.48,534.7
7.76229,497.79,534.76
7.7828,494.03,533.81
7.80736,490.42,529.45
7.82789,491.94,525.56
7.8484,492.75,520.65
7.86884,494.6,516.32
7.88927,494.48,511.05
7.90995,499.18,507.84
7.93427,501.55,505.87
7.95482,502.64,507.1
7.97529,503.91,510.28
7.99588,504.33,514.82
8.01624,504.06,520.06
8.04074,505.85,524.25
8.06127,505.28,528
8.0818,505.42,530.6
8.10226,505.94,533.08
8.12279,507.35,532.46
8.14321,508.28,530.37
8.1678,508.62,528.7
8.18826,508.7,524.76
8.20877,507.56,519.81
8.22924,507.45,516.64
8.24976,507.36,512.52
8.2702,507.69,510.81
8.29472,509.15,509.05
8.31525,509.52,509.04
8.33583,509.02,510.63
8.35624,508.61,514.91
8.37674,507.29,520.12
8.40117,506.63,525.7
8.42172,505.91,530.96
8.44226,506.32,535.57
8.46273,506.66,539.45
8.48329,507.33,543.56
8.50387,505.06,538.25
8.52824,504.85,521.8
8.54877,507.68,499.44
8.56921,509.74,473.55
8.58973,512,450.24
8.61016,513.8,432.79
8.63465,514.84,419.83
8.65519,516.07,413.67
8.67572,515.06,415.13
8.69624,514.84,422.51
8.71669,515.48,433.81
8.73721,516.18,445.04
8.76168,516.54,456.64
8.78228,515.84,468.51
8.80271,514.47,478.01
8.82312,514.17,485.81
8.8437,513.14,491.64
8.86812,511.71,496.72
8.88865,509.77,515.17
8.90916,512.62,548.54
8.92962,518.29,580.03
8.95014,522.83,595.62
8.97057,526.07,599.9
8.99516,530.85,598.72
9.01572,529.68,594.58
9.03624,528.15,588.86
9.05664,526.92,583.69
9.07712,524.73,578.75
9.10163,522.99,574.8
9.12212,520.39,572.24
9.14263,521.11,569.39
9.16309,518.49,566.91
9.18361,517.39,560.73
9.2041,514.91,556.58
9.22857,516.53,552.87
9.24921,521.42,547.49
9.26963,524.14,541
9.29005,526.51,535.8
9.31069,526.81,529.04
9.33529,527.85,523.83
9.35569,526.68,519.46
9.37618,526.94,517.17
9.39662,526.15,515.94
9.41712,524.32,517.35
9.4375,521.66,519.88
9.46204,520.93,523.1
9.48272,520.54,526.88
9.5031,519.03,530.51
9.52363,516.43,532.41
9.54407,513.94,532.92
9.56452,513.95,531.74
9.58907,512.36,529.99
9.60956,509.29,526.39
9.63022,510.03,522.31
9.65053,507.83,515.65
9.67101,511.86,509.32
9.69549,512.49,504.46
9.71613,513.59,502.77
9.73651,515.07,503.01
9.75696,514.66,505.01
9.77748,516.93,509.21
9.79791,515.74,512.77
9.82246,516.19,517.61
9.84318,512.35,522.29
9.86352,518.28,527.63
9.88394,522.03,530.31
9.90443,524.42,532.04
9.92892,526.34,531.04
9.94946,526.87,530.03
9.97001,525.3,526.82
9.99049,523.84,523.06
10.0111,523.67,519.45
10.0316,523.34,515.16
10.0561,523.27,511.13
10.0765,521.81,508.7
10.097,521.85,508.16
10.1178,521.08,509.73
10.138,520.47,512.58
10.1625,518.37,516.87
10.183,517.1,521.09
10.2035,515.68,525.27
10.224,514.14,528.62
10.2444,513.71,531.3
10.2649,513.57,532.64
10.2894,513.66,532.91
10.31,512.53,532.73
10.3305,511.62,529.98
10.3509,510.1,526.79
10.3713,510.48,522.23
10.3958,508.58,517.98
10.4164,508.67,514.39
10.4369,506.53,512.31
10.4574,507.63,511.45
10.4779,505.7,511.56
10.4983,506.16,514.25
10.5229,505.13,519.8
10.5434,506.7,523.04
10.5639,507.96,526.03
10.5843,504.97,529.82
10.6049,504.38,532.06
10.6293,503.7,533.45
10.6499,504.16,533.16
10.6703,504.13,530.53
10.691,504.7,527.02
10.7114,504.56,522.62
10.7319,505.85,517.89
10.7563,505.68,513.51
10.7769,506.54,509.61
10.7974,507.84,506.69
10.8178,508.87,507.35
10.8383,509.29,509.88
10.8588,509.24,512.71
10.8833,509.99,517.56
10.9039,509.19,521.05
10.9245,509.15,525.44
10.9448,509.72,530.35
10.9653,508.38,533.08
10.9897,507.9,533.27
11.0104,506.92,532.41
11.0308,505.94,530.13
11.0515,506.95,525.9
11.072,509.56,522.72
11.0923,511.25,519.18
11.1168,513.2,515.54
11.1373,514.16,512.43
11.1578,514.53,509.55
11.1783,514.62,508.44
11.1988,514.3,510.35
11.2234,513.84,513.68
11.2438,512.87,517.34
11.2643,512.7,521.28
11.2848,512.56,524.82
11.3053,511.45,530.06
11.3258,509.56,532.45
11.3502,509.05,532.76
11.3709,506.64,531.6
11.3913,506.11,529.68
11.4119,507.49,527.15
11.4324,507.59,525.12
11.4567,506.87,522.09
11.4772,504.7,517.08
11.4978,504.36,514.46
11.5183,506.29,512.37
11.5387,508.43,511.69
11.5592,509.34,511.76
11.5838,508.07,513.8
11.6043,509.26,517.64
11.6247,509.81,521.71
11.6452,508.85,526.77
11.6657,507.28,530.22
11.6901,506.62,531.97
11.7107,508.5,533.18
11.7313,508,533.94
11.7517,510,533.95
11.7723,508.8,531.36
11.7928,508.44,522.89
11.8172,505.15,510.31
11.8378,501.92,495.05
11.8583,496.14,475.64
11.8787,492.51,454.91
11.8992,489.21,437.53
11.9196,486.77,425.22
11.9442,485.01,420.98
11.9648,484.81,420.98
11.9853,484.45,426.19
12.0058,486.96,434.75
12.0261,486.97,443
12.0508,490.17,452.6
12.0712,491.54,462.68
12.0917,493.03,470.34
12.1122,493.82,476.48
12.1328,494.66,480.58
12.1531,496.33,482.26
12.1776,498.46,483.81
12.1982,500.57,490.65
12.2186,500.66,516.72
12.2391,508.12,548.38
12.2596,517.3,574.3
12.2841,528.44,589.04
12.3048,536.95,596.43
12.3251,540.16,600.15
12.3456,542.13,600.52
12.3661,541.5,598.01
12.3865,538.8,594.81
12.4112,536.04,588.65
12.4317,534.63,581.32
12.4521,531.31,575.86
12.4726,529.65,568.48
12.4931,527.92,560.19
12.5175,527.13,554.35
12.5382,527.11,548.28
12.5586,525.29,540.02
12.5792,523.23,534.62
12.5995,521.78,529.7
12.62,521.23,525.96
12.6446,521.98,525.36
12.6651,520.38,525.29
12.6858,518.11,527.83
12.706,518.09,531.07
12.7265,518.47,535.45
12.7511,516.78,536.76
12.7715,516.22,538.01
12.7921,514.58,538.81
12.8125,514.46,537.45
12.833,514.37,535.96
12.8534,511.29,534.77
12.8779,512.04,531.41
12.8986,512.83,526.73
12.9192,511.46,520.98
12.9397,510.57,516.19
12.96,509.26,513.35
12.9845,509.61,511.08
13.0051,509.88,511.66
13.0256,509.51,513.13
13.046,510.61,515.9
13.0665,510.08,519.32
13.0871,508.47,524.06
13.1114,504.97,528.45
13.1319,502.18,530.36
13.1524,500.34,530.29
13.173,499.07,530.43
13.1935,497.86,528.74
13.214,497.49,525.19
13.2385,497.99,522.56
13.259,496.99,519.04
13.2796,498.79,518.04
13.2999,499.64,516.23
13.3204,498.51,514.98
13.3449,500.41,513.39
13.3654,499.13,513.51
13.386,498.7,517.21
13.4064,501.96,519.57
13.4269,502.77,523.85
13.4474,500.81,528.68
13.4719,499.45,532.55
13.4924,499.16,535.84
13.5129,497.93,537.07
13.5335,499.54,535.86
13.554,501.43,532.88
13.5785,501.35,527.91
13.5989,500.08,523.13
13.6194,501.06,517.5
13.6399,501.45,511.8
13.6603,501.96,508.04
13.6808,503.37,506.23
13.7053,502.29,505.79
13.7258,501.84,506.43
13.7465,502.27,509.74
13.7669,503.01,514.59
13.7874,502.61,519.28
13.8118,503.09,524.02
13.8323,502.27,528.62
13.8529,502.42,530.69
13.8734,503.53,532.35
13.8939,503.23,531.28
13.9143,503.38,526.63
13.9388,507.51,524.5
13.9593,506.8,522.2
13.9798,508.64,519.76
14.0004,509.11,515.21
14.0208,509.29,512.37
14.0452,509.23,511.09
14.0658,512.39,510.47
14.0863,511.31,512.18
14.1069,509.85,517.34
14.1273,515.08,521.48
14.1478,512.06,526.98
14.1722,510.05,532.38
14.1927,508.44,534.11
14.2134,505.95,532.89
14.2338,506.76,530.91
14.2544,505.41,535.13
14.2748,508.73,525.7
14.2992,509.38,524.56
14.3198,512.11,514.65
14.3402,500.48,510.52
14.3607,493.99,506.82
14.3812,507.99,503.85
14.4057,497.59,504.28
14.4263,495.47,501.23
14.4468,498.18,500.58
14.4673,506.74,504.66
14.4877,505.79,511.73
14.5083,505.64,518.99
14.5328,513.11,521.39
14.5533,513.69,525.11
14.5738,512.75,527.29
14.5943,513.4,532.03
14.6147,515.52,534.42
14.6393,518.82,533.74
14.6598,518.65,535.19
14.6802,530.12,531.75
14.7008,521.5,524.8
14.7213,526.4,519.24
14.7417,520.32,516.39
14.7662,531.65,512.72
14.7867,526.52,512.37
14.8073,519.02,516.9
14.8277,517.02,516.92
14.8481,527.41,520.73
14.8727,531.93,528.39
14.8932,532.94,525.11
14.9138,526.76,524.69
14.9342,518.2,526.95
14.9546,517.16,526.76
14.9751,508.73,530.41
14.9997,512.38,523.13
15.0202,505.91,519.7
15.0407,508.73,514.16
15.0613,509.58,511.33
15.0818,512.46,504.46
15.1062,510.77,504.97
15.1268,512.42,504.58
15.1472,516.53,504.26
15.1676,514.03,506.81
15.1881,510.62,510.25
15.2085,509.3,514.2
15.2331,506.44,519.96
15.2537,503.75,525.97
15.2741,509.8,525.17
15.2946,508.24,519.34
15.3153,504.39,512.27
15.3395,500.11,501.42
15.3601,496.49,488.13
15.3806,495.79,469.31
15.4011,493.63,454.65
15.4216,493.11,440.52
15.4421,496.29,434.01
15.4665,497.83,429.41
15.4872,499.26,430.73
15.5076,499.61,433.38
15.5283,500.49,439.31
15.5485,501.19,449.04
15.5731,502.55,462.24
15.5935,505.44,471.19
15.6142,505.15,479.95
15.6346,508.12,491.96
15.655,509.7,514.97
15.6755,513.56,550.37
15.6999,518.05,578.7
15.7205,529.24,590.56
15.7411,532.39,593.65
15.7616,533.31,587.72
15.782,532.45,579.17
15.8025,532.56,568.54
15.827,532.25,558.63
15.8476,531,551.51
15.868,530.4,546.2
15.8885,528.12,540.56
15.909,524.9,537.25
15.9335,523.52,538.4
15.9539,521.21,539.52
15.9745,521.97,541.02
15.995,522.98,541.41
16.0154,521.78,540.53
16.0359,521.82,539.62
16.0604,519.86,536.5
16.081,519.69,533.4
16.1015,517.35,528.12
16.122,515.68,522.9
16.1424,514.14,518.32
16.167,513.92,513.65
16.1874,509.93,509.32
16.208,507.75,507.26
16.2285,507.8,506.61
16.249,506.24,507.49
16.2695,508.99,510.19
16.294,510.79,513.95
16.3145,511.83,518.36
16.335,512.47,521.89
16.3555,511.17,526.91
16.3759,510.74,528.53
16.4004,510.19,529.42
16.421,511.15,529.34
16.4415,510.12,526.87
16.4619,511.5,522.7
16.4824,508.4,518.96
16.503,507.12,514.77
16.5273,507.09,510.01
16.5481,507.28,506.01
16.5684,505.42,504.01
16.5889,506.34,503.21
16.6093,506.87,505.17
16.63,508.1,508.73
16.6544,509.28,512.99
16.675,510.02,516.99
16.6954,509.02,521.19
16.7159,510.81,524.75
16.7364,509.45,527.4
16.7608,510.76,527.92
16.7813,511.41,527.34
16.8019,511.13,524.87
16.8224,508.9,521.3
16.8429,507.32,518.64
16.8634,508.26,515.31
16.8878,508.01,510.85
16.9084,509.6,508.88
16.9288,509.48,508.1
16.9493,508.19,507.08
16.9699,508.55,507.87
16.9942,510.04,510.69
17.0149,510.23,514.15
17.0353,509.99,518.12
17.0558,510.99,522.3
17.0763,511.59,525.84
17.0968,510.67,527.87
17.1213,509.74,527.5
17.1418,509.19,527
17.1624,509.55,525.4
17.1828,508.64,521.72
17.2034,506.91,518.97
17.2278,505.73,514.98
17.2483,507.78,510.58
17.2688,509.43,507.87
17.2893,507.94,505.89
17.3098,509.35,505.11
17.3302,508.08,507.09
17.3549,508.87,509.87
17.3753,509.09,513.7
17.3957,512.07,519.16
17.4162,512.66,524.73
17.4367,512.33,527.58
17.4613,513.26,529.07
17.4818,511.61,529.05
17.5022,510.29,527.84
17.5229,509.43,526.07
17.5433,508.74,523.06
17.5637,509.8,520.05
17.5882,509.84,515.44
17.6088,510.07,510.35
17.6293,509.26,507.88
17.6498,507.6,505.7
17.6702,508.48,505.56
17.6906,509.99,507.85
17.7151,511.59,511.08
17.7357,511.87,515.46
17.7562,511.1,518.97
17.7767,510.28,522.98
17.7972,510.42,526.58
17.8219,510.54,529.07
17.8422,510.83,530.05
17.8627,510.06,529.04
17.8832,508.45,525.63
17.9037,508.36,522.71
17.9243,508.09,518.37
17.9486,507.27,515.89
17.9692,506.22,511.91
17.9897,505.77,507.33
18.0103,506.02,505.66
18.0308,507.22,506.13
18.0551,507.57,507.31
18.0756,509.06,510.64
18.0962,510.45,514.52
18.1166,512.16,518.61
18.1372,509.93,523.09
18.1577,511.54,526.47
18.1822,511.23,528.78
18.2027,511.79,529.62
18.2232,510.63,528.7
18.2437,509.3,527.16
18.2641,509.44,523.53
18.2887,509.35,519.42
18.3092,509.88,514.94
18.3297,509.91,510.15
18.3501,509.73,506.52
18.3708,510.58,503.82
18.3914,510.46,503.45
18.4157,510.17,504.36
18.4361,510.74,507.89
18.4567,510.19,511.51
18.4773,510.95,517.01
18.4976,512.16,521.41
18.5222,511.33,525.93
18.5426,510.26,528.54
18.5631,509.61,529.43
18.5836,508.69,531.35
18.6041,507.75,530.68
18.6246,506.8,526.94
18.649,503.84,518.95
18.6695,500.87,507.56
18.6902,498.1,491.65
18.7106,494.68,471.92
18.7311,492.94,452.74
18.7516,492.35,435.99
18.7761,493.88,427.39
18.7967,496.91,426.51
18.8172,500.13,431.21
18.8375,499.7,438.97
18.8581,500.36,448.17
18.8825,503.09,457.74
18.9032,504.07,466.39
18.9235,505.06,472.91
18.9441,505.65,478.13
18.9645,505.32,481.7
18.9851,504.85,498.56
19.0096,505.28,529.05
19.0301,509.83,556.84
19.0506,518.46,570.47
19.0712,523.97,574.38
19.0916,526.57,575.5
19.1161,527.66,572.8
19.1365,526.73,570.04
19.1571,527.18,567.43
19.1776,526.35,565.35
19.1981,524.68,563.68
19.2185,523.94,562.14
19.243,524.55,560.71
19.2635,523.64,559.17
19.284,522.91,555.34
19.3044,520.53,550.47
19.3251,519.22,544.78
19.3495,516.98,540.02
19.37,514.98,533.42
19.3906,514.99,527.53
19.411,515.59,521.83
19.4315,515.27,518.66
19.4519,517.82,515.33
19.4764,518.25,513.06
19.4969,517,513.65
19.5176,516.2,516.32
19.538,516.16,519.46
19.5585,515.93,521.97
19.5829,516.14,526.17
19.6035,515.31,529.14
19.6241,513.65,530.11
19.6444,513.32,530.89
19.6649,512.66,530.31
19.6854,511.53,527.85
19.7098,509.82,524.28
19.7304,507.46,520.42
19.751,507.57,515.94
19.7713,507.45,512.55
19.7919,507.36,509.24
19.8163,506.49,506.59
19.8369,506.59,506.67
19.8574,505.87,508.54
19.8779,505.5,512.03
19.8984,507,516.83
19.9188,507.4,520.06
19.9435,508.52,524.05
19.964,509.22,526.84
19.9844,509.97,528.87
20.0049,510.58,528.9
20.0255,511.26,528.32
20.0459,510.41,526.65
20.0704,510.53,522.32
20.0909,510.62,518.26
20.1114,509.7,514.21
20.1318,509.76,510.37
20.1525,509.61,507.69
20.1768,509.69,506.35
20.1973,508.95,506.68
20.2179,507.96,508.95
20.2384,507.57,512.16
20.2588,507.65,515.53
20.2793,507.32,519.42
20.3039,509.06,523.74
20.3243,509.65,526.99
20.3449,509.32,528.39
20.3653,508.85,529.51
20.3858,507.68,528.81
20.4102,506.95,526.45
20.4308,506.56,523.56
20.4514,505.65,519.45
20.4719,505.92,515.56
20.4923,504.53,511.05
20.5128,505.03,508.64
20.5373,505.42,507.31
20.5579,506.34,505.85
20.5783,507.47,508.08
20.5989,507.58,511.86
20.6193,507.66,516.09
20.6437,507.33,521.07
20.6642,507.46,525.26
20.6847,507.37,527.61
20.7052,508.5,529.28
20.7258,508.2,529.43
20.7461,507.76,528.94
20.7708,507.01,527.35
20.7912,506.8,523.28
20.8119,506.44,518.83
20.8324,506.16,515.06
20.8528,506.52,510.65
20.8733,507.62,506.72
20.8978,507.9,505.78
20.9184,507.92,506.22
20.9388,508.13,508.98
20.9592,509.31,511.98
20.9796,510.05,515.98
21.0042,511.64,519.99
21.0248,511.11,523.59
21.0453,511.49,526.67
21.0657,512.19,528.14
21.0862,510.75,528.31
21.1067,510.4,528.05
21.1311,509.32,525.64
21.1518,507.86,522.51
21.1722,507.69,518.81
21.1927,507.35,514.65
21.2131,506.28,510.92
21.2377,506.02,507.93
21.2583,505.82,505.75
21.2786,506.05,505.2
21.2992,506.44,507.16
21.3196,507.16,510.73
21.3401,507.32,515.98
21.3647,507.06,520.59
21.3854,509.05,524.47
21.4057,508.84,527.57
21.4263,509.87,529.46
21.4466,508.5,530.37
21.4711,509.6,529.69
21.4916,509.08,526.76
21.5122,507.46,523.6
21.5327,506.37,520.48
21.553,506.3,516.79
21.5736,507.24,512.83
21.5981,505.79,509.26
21.6188,505.83,508.41
21.6391,506.27,507.93
21.6595,506.61,509.94
21.6802,508.49,512.75
21.7045,509.99,516.6
21.7251,509.59,520.68
21.7456,510.07,524.95
21.766,510.26,527.36
21.7866,509.61,528.89
21.807,510.49,529.11
21.8316,508.99,528.89
21.8522,508.19,527.71
21.8728,509.55,527.57
21.8931,509.04,525.25
21.9136,510.03,522.8
21.934,507.03,517.64
21.9586,500.82,511.11
21.9791,495.66,500.29
21.9996,490.73,484.43
22.02,489.58,465.95
22.0406,491.26,448.96
22.065,491.01,436.97
22.0856,493.81,430.17
22.106,496.85,429.94
22.1266,499.48,433.35
22.1471,501.18,438.28
22.1675,503.75,444.22
22.1921,504.8,451.38
22.2125,505.84,456.7
22.2329,507.67,461.56
22.2535,507.94,466.65
22.274,505.75,485.72
22.2984,508,518.18
22.3189,513.2,549.54
22.3396,521.36,568.43
22.3601,528.29,576.95
22.3803,531.03,580.76
22.4011,533.22,582.41
22.4254,533.98,581.12
22.446,532.78,578.5
22.4664,531.03,575.4
22.487,530.62,572.92
22.5074,528.7,569.34
22.532,525.36,564.27
22.5525,523.89,557.81
22.573,521.71,552.85
22.5933,521.97,548.28
22.6138,521.17,542.63
22.6344,520.14,534.9
22.659,518.91,528.52
22.6796,517.13,524.02
22.6999,516.7,520.21
22.7205,516.16,518.97
22.7409,514.73,518.58
22.7654,514.78,519.06
22.7859,514.63,521.85
22.8064,514.3,525.48
22.827,513.84,529.18
22.8473,513.67,531.35
22.8679,512.54,532.68
22.8923,511.83,532.54
22.9129,511.66,531.63
22.9335,511.33,528.51
22.9539,511.07,525.41
22.9744,511.65,522.32
22.9949,510.12,518.06
23.0193,508.5,514.25
23.0399,507.8,510.8
23.0603,508.64,509.24
23.0808,510.31,509.39
23.1013,509.45,510.91
23.1259,508.16,514.13
23.1463,508.93,517.9
23.1668,509.14,521.52
23.1873,509.11,525.42
23.2079,508.09,528.93
23.2282,507.07,529.95
23.2529,507.26,529.76
23.2732,508.41,528.61
23.2938,509.53,526.29
23.3142,508.82,523.83
23.3348,507.46,520.26
23.3593,508.56,516.01
23.3799,508.25,512.81
23.4004,508.4,510.05
23.4209,509.12,508.64
23.4413,508.3,508.51
23.4619,510.04,509.61
23.4863,510.63,513.09
23.5069,511.3,516.87
23.5273,509.84,521.3
23.5479,510.07,525.04
23.5683,508.86,527.83
23.5928,509.29,528.86
23.6134,507.43,529.69
23.6339,506.54,529.35
23.6543,507.24,527.08
23.6746,507.19,523.67
23.6952,506.55,519.93
23.7198,505.44,515.55
23.7402,506.15,510.84
23.7606,506.32,508.07
23.7812,508.06,506.66
23.8016,508.25,506.32
23.8262,507.8,508.66
23.8466,508.84,512.33
23.8672,510.07,516.06
23.8876,510.26,521.05
23.9083,510.6,525.24
23.9287,510.08,528.79
23.9532,509.47,530.63
23.9736,509.57,531.31
23.9941,510.06,529.85
24.0147,509.85,527.68
24.0351,508.68,524.14
24.0556,507.54,520.11
24.08,506.83,515.29
24.1007,507.47,511.03
24.1211,507.77,507.43
24.1416,507.42,505.94
24.1622,507.74,506.55
24.1865,508.59,508.44
24.2071,509.27,511.35
24.2276,509.42,515.48
24.2481,509.33,520.59
24.2686,508.27,523.67
24.289,510.01,526.94
24.3136,509.01,527.75
24.3341,508.01,528.2
24.3545,507.01,527.96
24.3751,507.21,525.57
24.3956,507.96,522.05
24.4201,508.17,518.44
24.4407,507.54,514.15
24.4611,506.43,509.12
24.4816,506.34,506.7
24.5021,508.48,506.16
24.5226,507.18,506.53
24.5471,507.74,509.22
24.5676,508.6,512.18
24.588,509.88,515.94
24.6085,511.1,519.95
24.629,511.28,523.16
24.6535,511.02,525.73
24.674,511.22,528.58
24.6945,510.38,531.07
24.715,509.7,531.05
24.7355,509.76,526.04
24.7561,505.81,516.43
24.7806,500.65,502.75
24.8011,496.12,483.8
24.8216,493.49,461.44
24.8421,490.8,440.75
24.8625,489.64,426
24.887,488.31,419.8
24.9075,489.05,420.64
24.9281,489.44,426.11
24.9485,491.75,435.09
24.9689,492.6,445.47
24.9894,495.08,456.38
25.0141,496.66,465.9
25.0344,498.93,474.32
25.0551,499.95,480.86
25.0756,499.96,494.09
25.0961,501.76,524.67
25.1165,506.41,558.13
25.1409,514.33,578.91
25.1614,522.86,587.13
25.182,526.49,588.1
25.2025,528.79,583.08
25.223,530.43,578.06
25.2473,530.55,570.65
25.268,530.04,565.92
25.2885,529.23,562.54
25.309,527.38,560.03
25.3294,527.11,557.62
25.3499,525.29,555.7
25.3744,524.03,554.96
25.3951,522.42,553.97
25.4155,521.94,551.17
25.436,522.75,546.94
25.4565,521,540.75
25.4809,519.8,534.6
25.5017,518.64,528.48
25.5219,517.51,523.58
25.5423,517.61,518.67
25.5628,515.49,513.93
25.5834,514.79,511.95
25.6078,513.83,511.96
25.6284,512.87,513.57
25.6491,513.49,516.85
25.6695,513.59,519.68
25.6899,513.28,522.55
25.7145,512.02,526.44
25.7348,512.22,529.35
25.7555,512.17,530.28
25.776,512.54,530.22
25.7965,512.03,528.78
25.8168,511.42,526.62
25.8413,510.94,523.5
25.8619,510.15,519.8
25.8824,509.12,515.24
25.9029,508.1,511.59
25.9233,506.68,509.07
25.9479,506.54,507.86
25.9684,507.63,508.89
25.989,506.91,511.31
26.0094,509.13,514.65
26.0298,510.1,518.52
26.0504,511.08,522.21
26.0748,511.26,525.97
26.0954,512.01,529.18
26.1159,511.61,529.94
26.1364,511.09,530.55
26.1568,510.47,528.84
26.1772,510.38,526.27
26.2018,508.1,522.22
26.2223,508.08,518.38
26.2429,508.06,515.1
26.2632,508.05,510.88
26.2838,508.64,509.1
26.3085,507.91,507.08
26.3289,508.33,507.47
26.3494,507.66,509.17
26.3699,506.73,512.74
26.3903,506.39,516.79
26.4107,508.51,520.83
26.4353,509.41,524.67
26.4559,510.53,527.53
26.4764,511.02,529.03
26.4968,510.22,529.22
26.5173,509.57,528.38
26.5417,509.46,526.1
26.5624,509.77,523.28
26.5828,509.21,520.03
26.6034,508.57,515.82
26.6238,508.66,511.66
26.6443,506.53,508.32
26.6689,506.62,507.06
26.6894,506.9,506.25
26.7098,506.52,509.2
26.7303,506.21,512.36
26.7508,507.17,515.89
26.7751,507.74,519.51
26.7959,508.39,523.61
26.8162,508.31,527.69
26.8367,508.45,528.75
26.8573,507.76,528.4
26.8777,507.41,527.52
26.9022,508.33,524.22
26.9228,507.26,519.57
26.9433,506.21,515.86
26.9638,505.77,511.69
26.9842,505.61,507.95
27.0087,505.89,505.76
27.0291,506.71,504.21
27.0497,506.57,504.17
27.0701,508.26,506.33
27.0906,507.6,509.47
27.1112,507.88,514.37
27.1356,508.31,519.1
27.1562,508.65,523.48
27.1767,508.12,527.38
27.1972,510.29,529.11
27.2177,512.03,529.89
27.238,513.63,528.11
27.2627,513.5,525.49
27.2832,512.4,522.59
27.3037,512.32,518.87
27.3243,512.06,515.1
27.3447,511.65,511.08
27.3691,511.12,509.46
27.3896,510.49,509.97
27.4102,509.39,509.38
27.4307,511.32,510.3
27.4512,512.05,513.24
27.4716,511.64,517.79
27.4961,512.11,522.43
27.5167,510.69,526.15
27.5372,509.75,528.72
27.5576,509.2,530.17
27.5782,508.36,531.14
27.6025,508.49,530.11
27.6232,507.99,526.89
27.6437,507.19,522.71
27.6641,507.55,519.17
27.6846,505.84,514.54
27.705,508.87,510.23
27.7295,510.5,506.98
27.7502,511.6,506.79
27.7706,512.08,509.03
27.7911,513.46,510.62
27.8116,514.57,513.5
27.8361,515.06,516.8
27.8565,513.85,522.04
27.8771,514.28,524.63
27.8976,512.62,526.7
27.918,512.9,527.56
27.9385,513.72,528.85
27.9631,513.17,529.28
27.9835,512.74,526.82
28.004,512.59,523.26
28.0246,510.67,519.81
28.0449,509.94,515.05
28.0694,508.95,511.24
28.09,508.76,509.39
28.1106,510.01,508.71
28.1311,510.61,508.77
28.1515,509.49,510.62
28.1722,508.59,512.89
28.1965,507.47,516.11
28.2171,506.98,520.69
28.2376,507.98,524.35
28.258,509.19,528.08
28.2785,510.75,530.07
28.299,510.2,531.05
28.3235,508.36,531.04
28.3442,506.29,529.03
28.3646,504.43,525.03
28.3849,499.94,517.62
28.4055,495.95,506.1
28.4301,490.96,490.48
28.4504,486.77,470.98
28.471,485.42,451.59
28.4915,484.33,434.87
28.512,484.87,423.7
28.5323,485.69,419.56
28.5568,487.75,421.64
28.5775,489.4,429.12
28.598,492.12,439.29
28.6184,495.5,448.43
28.6389,497,456.95
28.6635,498.8,464.76
28.6838,501.04,471.41
28.7045,502.63,488.33
28.7249,505.51,520.66
28.7454,510.6,554.93
28.7659,518.08,578.14
28.7903,525.07,586.71
28.8109,530.05,587.97
28.8314,532.64,584.58
28.8519,533.51,578.86
28.8724,534.21,574.49
28.8968,533.37,570.59
28.9173,532.1,567.87
28.938,529.08,564.5
28.9583,527.26,562
28.9788,526.01,560.2
28.9994,523.81,557.36
29.0239,522.65,554.09
29.0444,520.52,550.07
29.0649,520.61,544.66
29.0854,519.49,538.52
29.1058,518.79,532.42
29.1304,518.03,526.54
29.1507,517.43,521.03
29.1714,516.54,517.02
29.1919,515.63,514.22
29.2124,514.91,513.37
29.2328,513.93,515.3
29.2574,513.74,517.44
29.2778,512.19,521.15
29.2984,512.75,524.72
29.3187,512.2,528.38
29.3394,511.96,530.7
29.3598,512.17,531.56
29.3843,510.94,531.25
29.4048,510.55,530.6
29.4253,509.84,528.28
29.4457,510.27,524.22
29.4662,510.02,518.98
29.4908,509.01,514.78
29.5112,508.01,510.43
29.5318,508.41,508.14
29.5523,507.73,506.91
29.5728,508.38,507.13
29.5933,509.91,508.5
29.6177,510.12,512
29.6381,511.1,516.8
29.6587,512.28,520.44
29.6791,511.22,524.35
29.6998,511.18,526.88
29.7242,510.74,528.31
29.7448,510.79,528.45
29.7653,510.64,527.76
29.7857,510.11,525.4
29.8062,509.69,521.92
29.8268,509.15,518.14
29.8513,508.12,514.71
29.8717,507.5,510.17
29.8923,506.2,507.54
29.9128,505.56,507.63
29.9332,506.05,508.5
29.9578,508.64,510.6
29.9782,508.31,513.28
29.9987,509.85,516.83
30.0191,509.68,521.86
30.0397,509.94,525.89
30.0601,510.35,528.71
30.0847,510.68,529.97
30.1052,509.75,530.37
30.1256,509,528.9
30.1462,510.4,526.72
30.1666,510.92,522.98
30.1911,509.33,518.58
30.2117,508.47,514.46
30.2324,506.77,510.97
30.2527,508.02,507.98
30.2731,507.82,505.98
30.2937,507.05,505.99
30.3182,507.64,507.79
30.3386,507.51,510.83
30.3593,509.61,514.66
30.3797,509.69,519.33
30.4001,509.95,524.07
30.4205,509.96,527.65
30.4451,508.57,528.92
30.4657,506.65,528.94
30.4861,507.72,527.55
30.5067,507.58,525.44
30.5271,508.06,522.75
30.5516,508.45,519
30.5721,508.36,515
30.5926,508.09,511.4
30.6132,508.27,509.12
30.6337,509.42,507.9
30.6541,508.13,508.52
30.6789,507.31,510.01
30.699,505.85,513.61
30.7196,506.28,518.29
30.7401,507.42,522.83
30.7607,507.14,527.06
30.785,507.51,530.45
30.8056,507.41,531.56
30.8261,506.33,531.85
30.8466,505.86,530.48
30.8671,506.09,528.38
30.8876,505.67,525.71
30.912,504.94,522.57
30.9325,505.35,517.65
30.953,505.08,515.92
30.9736,505.26,517.74
30.994,505.81,521.39
31.0184,504.45,524.71
31.0389,502.76,528.37
31.0595,501.41,528.7
31.0801,500.73,524.36
31.1005,501.18,514.49
31.1211,501.34,499.79
31.1454,503.68,483.03
31.1661,502.54,464.62
31.1866,503.23,447.7
31.207,502.39,435.56
31.2276,502.11,428.45
31.252,501.69,425.56
31.2725,500.75,424.85
31.293,500.4,427.08
31.3136,501.12,430.86
31.334,501.7,436.09
31.3545,502.36,443.27
31.3789,502.69,452.62
31.3994,501.55,477.49
31.42,503.44,519
31.4405,508.95,558.4
31.461,517.56,583.12
31.4815,523.45,595.89
31.5061,526.96,600.31
31.5265,527.77,599.85
31.547,529.01,593.48
31.5675,528.41,586.19
31.588,526.53,576.35
31.6125,526.22,567.68
31.6329,524.18,557.94
31.6533,522.74,548.15
31.674,519.99,539.32
31.6945,519,533.66
31.7148,520,529.33
31.7394,519,526.66
31.76,517.8,526.33
31.7805,517.24,527.66
31.801,517.79,530.33
31.8214,517.43,532.86
31.846,517.35,535.49
31.8664,516.48,536.79
31.887,515.78,537.03
31.9075,514.23,536.23
31.9277,512.78,533.18
31.9482,511.22,529.35
31.9728,509.78,525.48
31.9934,509.42,521.78
32.0138,509.14,517.03
32.0343,508.31,513.02
32.0548,507.65,509.42
32.0792,507.92,508.13
32.0998,508.74,508.11
32.1204,508.39,510.09
32.1409,508.91,513.07
32.1613,510.13,517.05
32.1818,509.9,521.44
32.2064,510.72,524.95
32.2269,511.18,527.76
32.2472,511.74,529.81
32.2678,510.59,530.65
32.2883,510.48,529.52
32.3128,511.38,526.42
32.3333,511.9,522.53
32.3539,510.92,518.63
32.3744,509.34,514.5
32.3948,509.67,510.6
32.4153,508.74,508.28
32.4397,508.59,505.62
32.4602,508.67,505.5
32.4809,509.14,507.2
32.5013,509.71,511.16
32.5218,509.37,516.13
32.5422,510.29,519.7
32.5666,512.04,524.36
32.5873,513.43,527.29
32.6078,513.14,527.63
32.6283,510.11,528.31
32.6486,509.69,527.64
32.6731,508.75,525.52
32.6938,508.2,523.21
32.7142,506.96,519.17
32.7348,505.37,515.74
32.7553,505.9,512.39
32.7758,506.72,509.11
32.8001,507.97,507.09
32.8208,509.18,507.67
32.8412,509.14,509.74
32.8617,509.91,513.19
32.8822,511.33,516.35
32.9067,512.47,519.68
32.9272,511.37,523.15
32.9477,511.9,525.92
32.9684,511.12,527.73
32.9886,510.89,527.79
33.0092,511.52,527.03
33.0337,511.61,523.82
33.0542,511.49,520.46
33.0747,510.59,517.17
33.0951,509.27,513.73
33.1157,506.82,509.79
33.1401,507.46,507.23
33.1606,508.36,505.78
33.1812,508.69,505.43
33.2017,508.55,506.94
33.2221,509.24,509.95
33.2427,510.39,513.76
33.2672,510.12,517.81
33.2878,510.49,521.25
33.3083,511.19,525.2
33.3287,511.16,526.96
33.3492,510.92,526.97
33.3735,508.94,527.37
33.3942,507.35,525.9
33.4146,504.48,523.32
33.4352,502.58,519.26
33.4556,503.87,515.2
33.4761,502.29,511.76
33.5005,501.64,509.81
33.5211,502.31,507.45
33.5416,502.45,506.76
33.562,503.56,508.81
33.5825,503.85,512.25
33.6031,505.68,518
33.6276,506.34,522
33.6481,506.27,526.4
33.6687,507.22,528.32
33.689,507.37,529.45
33.7096,508.3,530.36
33.7341,508.64,528.09
33.7547,509.51,525.67
33.775,508.61,522.54
33.7957,508.69,519.23
33.816,507.15,515.38
33.8365,508.52,511.51
33.861,509.62,509.41
33.8816,508.89,508.52
33.9021,507.91,509.42
33.9226,508.33,510.14
33.943,509.47,513.11
33.9675,511.17,517.49
33.9881,510.34,522.19
34.0085,509.87,526.55
34.029,510.5,531.44
34.0494,511.6,535.95
34.07,510.48,539.16
34.0945,509.98,536.73
34.115,509.59,528.18
34.1356,507.67,513.75
34.156,504.13,493.8
34.1763,500.91,469.04
34.201,498.93,444.43
34.2216,498.14,425.34
34.2421,497.11,413.68
34.2625,496.89,409.54
34.2829,497.71,410.83
34.3035,498.77,418.07
34.3278,500.42,429.25
34.3485,500.93,442
34.369,502.15,453.6
34.3894,504.12,467.28
34.4099,503.29,494.43
34.4344,506.63,535.74
34.455,512.31,571.39
34.4754,520.65,589.31
34.4959,525.92,595.45
34.5164,529.13,593.36
34.5369,529.31,587.69
34.5615,527.45,579.15
34.582,527.16,569.72
34.6023,526.93,561.78
34.623,525.94,555.22
34.6432,524.75,551.38
34.6679,523.6,548.5
34.6883,520.68,547.6
34.7089,519.95,547.88
34.7294,521.96,548.7
34.7499,521.96,548.96
34.7704,521.77,548.57
34.7949,520.82,546.26
34.8155,519.85,543.41
34.836,518.48,537.92
34.8565,515.99,532.74
34.8769,515.59,527.39
34.8972,514.07,521.91
34.9221,513.26,517.53
34.9424,512.41,513.62
34.9628,511.72,511.1
34.9833,512.38,510.08
35.0038,511.1,511.66
35.0284,510.48,514.33
35.0488,510.19,518.06
35.0693,511.15,521.85
35.0898,511.72,526.48
35.1102,510.98,529.19
35.1307,511.78,530.55
35.1554,512.02,530.44
35.1759,512.02,529.95
35.1964,510.62,528.56
35.217,510.69,524.45
35.2373,511.15,520.56
35.2618,510.12,516.45
35.2822,509.9,511.76
35.3029,509.32,508.61
35.3232,510.46,506.28
35.3438,509.16,505.23
35.3643,509.73,506.58
35.3887,510.99,509.47
35.4093,511.39,513.17
35.4299,511.31,518.14
35.4503,510.85,522.31
35.4708,509.88,526.65
35.4953,511.3,529.12
35.5158,510.84,529.7
35.5362,510.27,528.96
35.5567,508.42,528.36
35.5772,507.14,522.89
35.5978,507.11,520.31
35.6223,505.69,519.25
35.6426,505.15,514.6
35.6633,504.92,511.88
35.6837,505.14,511.5
35.7042,504.91,513.4
35.7287,504.93,514.52
35.7491,505.54,516.82
35.7697,505.63,521.65
35.7902,507.11,528.12
35.8108,506.89,535.1
35.8312,506.51,539.88
35.8558,507.01,540.5
35.8762,507.61,535.8
35.8967,507.68,538.44
35.9173,507.15,536.35
35.9377,505.12,537.08
35.9622,505.69,534.47
35.9827,505.96,531.17
36.0032,506.36,527.54
36.0238,506.69,523.23
36.0442,505.95,519.78
36.0647,508.16,515.83
36.0892,506.73,512.26
36.1099,509.18,510.21
36.1303,510.15,510.37
36.1507,512.12,512.49
36.1712,514.69,515.2
36.1916,514.36,515.56
36.2163,514.88,515.85
36.2366,513.91,512.48
36.2571,514.93,514.58
36.2776,512.94,517.66
36.2981,511.35,518.53
36.3226,510.88,517.23
36.3431,509.51,513.98
36.3636,509,508.78
36.3842,507.4,505.43
36.4047,507.12,501.94
36.4251,508.9,500.75
36.4496,509.92,502.2
36.4702,510.33,504.76
36.4907,510.87,508.21
36.511,511.09,512.57
36.5316,512.48,516.85
36.556,512.78,519.68
36.5766,512.82,522.15
36.5971,514.06,523.12
36.6176,513.65,523.29
36.638,513.72,522.24
36.6584,512.57,519.99
36.6831,510.06,516.99
36.7036,510.65,513.19
36.7242,511.12,509.55
36.7446,510.69,506.84
36.765,511.36,505.47
36.7896,511.68,505.98
36.8101,511.95,507.38
36.8305,511.16,509.31
36.851,510.73,513.45
36.8716,510.98,517.76
36.892,510.78,521.41
36.9166,511.43,524.52
36.9371,510.34,526.42
36.9576,509.67,528.34
36.9779,508.94,528.27
36.9984,509.55,525.81
37.023,509.04,523.05
37.0435,507.03,518.84
37.0639,504.83,515.47
37.0846,505.06,512.18
37.105,505.25,508.74
37.1255,504.8,507.39
37.15,504.24,507.12
37.1705,506.59,509.09
37.1911,508.47,511.07
37.2115,509.98,513.66
37.232,510.38,517.13
37.2524,510.11,522.1
37.2769,509.49,525.08
37.2975,510.19,527.07
37.318,511.35,527.45
37.3385,511.08,526.96
37.359,508.86,525.97
37.3834,507.89,523.58
37.404,509.11,520.46
37.4244,509.49,518.17
37.4449,508.79,511.53
37.4654,505.83,498.63
37.4859,501.47,484.5
37.5105,496.97,467.6
37.5309,491.78,449.08
37.5515,486.62,431.67
37.5719,485.5,420.13
37.5925,486.2,416.91
37.6168,486.56,419.32
37.6377,488.85,425.06
37.658,490.48,433.45
37.6783,493.38,442.36
37.699,495.11,450.89
37.7194,497.28,457.91
37.7439,498.63,462.73
37.7644,499.5,466.98
37.7849,501.8,480.59
37.8054,503.64,514.47
37.8259,508.11,552.37
37.8503,517.69,577.1
37.8709,525.75,590.08
37.8914,531.4,595.66
37.9117,534.72,597.53
37.9324,535.98,596.82
37.9528,534.18,593.66
37.9773,533.35,590.33
37.9979,531.28,585.46
38.0184,528.42,579.57
38.0387,526.94,573.46
38.0592,525.75,567.56
38.0838,524.6,561.45
38.1042,521.88,554.96
38.1247,520.9,547.77
38.1453,519.52,540.82
38.166,517.62,533.85
38.1863,516.29,527.48
38.2108,514.84,523.19
38.2312,515.07,519.55
38.2518,515.05,519.24
38.2723,514.64,521.19
38.2928,515.52,523.75
38.3173,515.61,526
38.3377,515.09,529.2
38.3583,514.67,532.36
38.3788,513.14,532.89
38.3992,513.11,533.91
38.4198,512.69,532.73
38.4441,512.35,530.98
38.4648,512.28,529.19
38.4854,513.42,525.55
38.5057,512.74,521.44
38.5264,512.39,516.95
38.5467,511.31,512.96
38.5714,510.65,511.37
38.5918,509.92,510.1
38.6123,509.94,510.88
38.6328,510.55,513.3
38.6532,510.04,517.24
38.6777,510.23,520.19
38.6983,510.39,524.15
38.7187,510.51,527.12
38.7393,510.61,530.5
38.7597,509.89,532.2
38.7802,511.71,531.16
38.8047,511.77,528.93
38.8252,511.81,525.34
38.8458,511.65,521.67
38.8662,511.92,518.34
38.8867,510.74,513.87
38.9112,510.39,509.5
38.9317,509.51,508
38.9522,508.81,507.4
38.9727,510.05,508.32
38.9932,509.84,510.65
39.0136,509.47,514.12
39.0382,509.18,518.7
39.0587,509.14,523.16
39.0793,508.71,527.53
39.0997,507.97,530.02
39.1201,507.98,529.82
39.1446,508.38,530.05
39.1651,508.1,529.44
39.1856,506.88,526.95
39.2063,505.11,523.56
39.2266,506.09,519.25
39.2472,507.87,514.2
39.2716,508.89,510.36
39.2922,508.32,508.09
39.3127,509.85,507.47
39.3331,509.28,507.98
39.3539,508.83,510.58
39.3781,509.86,514.27
39.3985,509.89,518.21
39.4192,510.11,521.97
39.4397,509.89,526.18
39.4601,509.11,529.34
39.4805,509.09,530.47
39.5052,509.27,529.78
39.5257,508.62,528.22
39.546,508.49,524.38
39.5666,509.39,520.9
39.5871,510.52,516.92
39.6115,510.61,513.14
39.632,509.69,508.91
39.6526,508.95,507.13
39.6732,508.96,505.7
39.6936,510.17,506.36
39.7139,510.14,507.89
39.7385,509.91,511.91
39.7591,509.73,516.73
39.7796,510.78,520.38
39.8001,510.23,523.91
39.8205,509.98,526.93
39.8411,510.78,528.94
39.8656,509.83,528.55
39.8861,510.26,527.24
39.9066,510.01,524.19
39.927,508.41,520.15
39.9475,507.73,516.72
39.972,505.58,513.78
39.9925,505.66,510.42
40.013,505.53,508.54
40.0335,506.23,508.03
40.054,506.78,508.22
40.0745,507.22,511.38
40.099,508.18,514.3
40.1195,508.94,517.64
40.1401,509.55,520.51
40.1605,511.04,524.81
40.181,511.84,527.65
40.2054,511.87,528.72
40.2259,509.49,529.18
40.2466,508.6,528.34
40.2669,509.28,525.07
40.2875,509.62,521.26
40.308,508.5,517.61
40.3325,508.2,513.89
40.353,506.96,510.51
40.3734,507.97,508.21
40.394,508.77,506.57
40.4146,509.02,507.25
40.439,508.81,510.4
40.4594,509.85,515.32
40.4801,510.88,521.46
40.5004,511.51,523.17
40.5209,511.4,516.93
40.5414,509.32,505.35
40.5659,506.26,493.88
40.5864,501.21,480.5
40.6069,497.37,465
40.6275,493.09,451.8
40.6479,489.87,442.04
40.6682,487.3,437.23
40.6929,486.04,435.19
40.7135,486.23,436.35
40.734,487.39,438.88
40.7544,489.31,444.3
40.7749,490.85,451.24
40.7995,492.68,458.79
40.8199,495.14,473.84
40.8404,498.91,509.47
40.8608,504.53,551.17
40.8814,514.22,578.14
40.9019,521.58,592.51
40.9265,526.86,597.81
40.947,528.09,596.05
40.9674,528.47,590.24
40.9879,527.98,583.19
41.0083,526.78,575.15
41.0329,526.03,565.52
41.0534,524.82,554.42
41.0737,523.46,545.73
41.0943,521.17,537.99
41.1149,520.33,532.59
41.1353,518.27,528.67
41.1598,517.61,526.74
41.1803,515.69,527.39
41.2009,514.95,526.71
41.2214,516.36,527.97
41.2418,517.29,528.98
41.2663,516.83,529.78
41.2869,515.67,529.22
41.3074,515.53,528.58
41.3277,515.43,527.26
41.3483,514.54,524.81
41.3687,513.23,521.05
41.3933,512.19,517.44
41.4138,511.35,512.75
41.4343,510.88,509.2
41.4547,510.3,507.56
41.4754,511.04,506.85
41.4996,510.83,507.08
41.5202,511.27,508.66
41.5407,511.01,510.93
41.5614,510.21,514.94
41.5817,510.17,519.36
41.6021,511.14,523.08
41.6268,511.71,526.67
41.6474,511.77,526.93
41.6678,512.01,526.95
41.6883,511.21,525.56
41.7087,511.17,523.85
41.7332,511.13,520.88
41.7537,509.71,517.3
41.7742,509.17,513.64
41.7948,508.73,509.11
41.8152,511.19,506.49
41.8357,512.15,504.99
41.8601,514.32,505.39
41.8807,514.06,507.12
41.9013,514.84,510.69
41.9217,516.08,514.55
41.9423,515.46,518.84
41.9626,515.37,522.87
41.9872,515.89,525.9
42.0076,514.92,527.32
42.0283,513.93,527.66
42.0485,514.15,526.52
42.0692,513.72,524.42
42.0935,513.17,521.34
42.1142,512.74,517.87
42.1347,512.59,513.69
42.1552,511.67,512.16
42.1757,511.34,516.32
42.1961,511.47,520.06
42.2207,511.18,523.25
42.2413,511.94,526
42.2616,511.75,528.4
42.2822,511,532.52
42.3025,511.6,535.42
42.3273,511.28,537.33
42.3477,512.43,538.67
42.3682,512.74,538.73
42.3886,512.19,538.39
42.4092,511.35,536.11
42.4296,510.88,533.09
42.454,509.31,528.27
42.4747,509.25,524.02
42.4952,509.4,519.81
42.5156,510.12,515.05
42.536,510.29,512.64
42.5605,510.03,510.31
42.581,509.03,510.05
42.6016,507.22,511.44
42.622,509.58,514.55
42.6426,512.26,517.64
42.663,513.81,522.71
42.6875,513.85,525.17
42.7081,514.28,527.74
42.7286,514.82,529.79
42.749,515.46,530.63
42.7695,514.37,529.11
42.7941,512.49,526.28
42.8146,511.79,523.23
42.8351,512.24,518.98
42.8557,511.39,515.39
42.8759,512.11,511.71
42.8965,512.29,508.57
42.9209,512.83,507.45
42.9415,514.66,507.56
42.9621,514.13,510.05
42.9826,512.91,513.04
43.003,513.32,516.83
43.0274,513.06,520.87
43.0481,514.85,525.49
43.0684,514.88,528.79
43.089,514.5,529.84
43.1095,513,529.87
43.13,513,529.29
43.1545,512.8,527.24
43.175,511.44,523.19
43.1955,511.15,519.55
43.2159,510.92,515.64
43.2364,510.74,511.71
43.2569,509.99,508.77
43.2815,508.99,507.82
43.3019,509.39,508.05
43.3226,509.12,508.84
43.343,509.69,512.07
43.3634,510.75,515.46
43.388,511.2,519.17
43.4085,512.16,522.33
43.429,513.33,526.07
43.4495,511.86,527.85
43.4699,510.89,527.88
43.4904,510.71,527.31
43.515,510.37,525.25
43.5355,510.5,522
43.556,509.4,518.8
43.5764,507.92,515.64
43.5969,508.33,513.11
43.6214,509.27,511.29
43.6421,509.21,510.03
43.6625,507.57,505.42
43.683,505.26,500.74
43.7035,499.41,495.99
43.7239,492.92,487.59
43.7484,485.74,473.67
43.7689,481.39,459.14
43.7894,479.71,446.71
43.8099,480.97,439.37
43.8302,481.98,437.1
43.8548,483.98,438.08
43.8754,486.79,440.06
43.8958,489.23,442.05
43.9164,492.18,444.84
43.9369,493.95,447.47
43.9574,495.56,450.38
43.9819,496.05,457.5
44.0025,496.04,482.2
44.0228,503.23,521.56
44.0432,515.18,557.05
44.0637,528.15,578.04
44.0882,536.12,589.43
44.1088,540.89,594.35
44.1292,543.12,595.88
44.1497,544.09,594.5
44.1703,541.87,590.4
44.1906,540.1,584.92
44.2151,537.28,578.34
44.2357,535.02,570.27
44.2562,530.22,561.42
44.2766,527.37,552.93
44.2972,525.3,543.55
44.3176,523.04,536.04
44.3422,520.23,530.63
44.3628,518.59,526.5
44.3832,517.27,524
44.4036,516.01,523.4
44.4241,515.81,523.72
44.4487,516.05,524.38
44.4692,516.64,526.9
44.4897,515.71,528.32
44.5102,515.17,530.06
44.5307,512.94,532.05
44.5512,512.15,532.44
44.5757,512.32,531.35
44.5962,511.65,528.08
44.6167,510.52,524.46
44.6371,509.42,520.57
44.6576,508.74,516.26
44.6822,509.39,513.61
44.7026,508.91,511.48
44.7231,508.53,509.19
44.7436,508.22,509.15
44.7642,507.98,510.52
44.7845,509.98,512.42
44.8091,511.19,516.93
44.8296,509.35,520.75
44.8502,508.28,525.2
44.8707,510.62,528.76
44.8913,511.9,530.61
44.9157,511.52,530.48
44.9361,511.22,528.79
44.9566,510.77,527.03
44.9772,510.22,524.02
44.9976,509.97,520.62
45.018,509.38,517.1
45.0425,509.1,513.08
45.0632,508.48,509.66
45.0836,508.79,507.73
45.1041,508.23,506.98
45.1246,507.58,508.99
45.149,507.87,511.99
45.1698,509.69,515.19
45.1903,510.35,519.75
45.2105,511.48,523.4
45.231,510.59,528.12
45.2516,510.47,530.1
45.2761,509.78,530.68
45.2965,510.02,530.34
45.3171,509.62,527.87
45.3375,508.49,524.9
45.358,508.19,521.12
45.3785,508.76,516.7
45.403,507.8,512.96
45.4235,506.64,509.37
45.4439,506.91,507.29
45.4646,506.13,506.43
45.4849,506.91,507.35
45.5095,507.32,509.48
45.53,507.86,513.18
45.5504,509.09,517.55
45.5709,509.47,522.24
45.5914,509.18,526.39
45.612,510.74,529.31
45.6364,509.79,530.25
45.657,509.43,530.8
45.6775,508.35,528.84
45.698,507.48,526.47
45.7186,507.78,522.98
45.743,506.83,519.38
45.7634,506.26,515.51
45.784,505.41,511.2
45.8044,506.73,508.96
45.8249,508.58,509.17
45.8454,508.67,510.34
45.8699,510.53,513.67
45.8905,511.23,517.54
45.9109,511.38,522.23
45.9314,511.9,526.58
45.9519,513.32,529.27
45.9764,514.06,530.81
45.9969,513.85,531.45
46.0174,513.28,530.76
46.0379,512.42,529.01
46.0584,512.94,525.61
46.0788,511.95,521.89
46.1034,510.56,517.91
46.1239,509.65,513.93
46.1445,508.92,509.94
46.1649,508.93,507.75
46.1853,509.75,506.2
46.2099,510,506.96
46.2303,509.8,509.77
46.2508,510.64,513.02
46.2713,512.31,516.61
46.2918,515.05,521.29
46.3123,515.44,525.43
46.3368,515.95,527.55
46.3573,515.36,529.04
46.3779,515.29,529.03
46.3983,515.03,528.22
46.4189,514.62,525.78
46.4432,514.3,522.22
46.4639,512.64,517.98
46.4844,513.11,514.38
46.5049,511.89,510.71
46.5253,511.51,508.36
46.5458,511.21,508.29
46.5703,510.57,508.83
46.5909,510.25,511.67
46.6113,511.2,514.53
46.6318,512.16,518.43
46.6523,512.53,522.74
46.6727,512.82,526.79
46.6974,512.86,530.43
46.7179,511.49,533.95
46.7383,509.99,533.36
46.7587,509.19,526.29
46.7793,503.75,511.63
46.8037,500,493.5
46.8243,494.8,472.6
46.8448,488.84,451.08
46.8652,484.67,432.27
46.8857,481.54,418.01
46.9062,479.83,410.41
46.9307,480.86,408.93
46.9513,483.49,413.34
46.9717,486.59,421.87
46.9922,488.67,432.7
47.0128,492.34,444.76
47.0372,494.47,457.21
47.0577,496.98,468.17
47.0782,500.18,484.93
47.0987,503.35,521.95
47.1191,508.48,562.36
47.1397,516.78,591.09
47.1643,524.63,603.27
47.1847,530.9,605.41
47.2054,532.92,601.33
47.2256,532.34,592.87
47.2462,531.87,584.09
47.2707,531.5,575.87
47.2911,531.6,568.3
47.3117,529.28,563.84
47.3324,528.22,560.07
47.3527,526.58,558.06
47.3732,524.46,557.05
47.3976,521.97,555.64
47.4184,520.78,554.31
47.4388,519.82,552.45
47.4591,517.26,549.56
47.4796,514.81,545.85
47.5041,513.64,540.68
47.5246,512.72,534.74
47.5452,511.57,529.59
47.5657,510.06,524.27
47.5861,509.05,519.82
47.6066,509.04,516.06
47.6311,509.03,513.84
47.6516,509.42,513.68
47.6722,508.54,514.94
47.6927,509.83,516.75
47.7132,512.66,521
47.7336,513.13,524.6
47.7581,513.11,527.88
47.7786,512.28,529.9
47.7991,511.83,530.72
47.8195,510.86,530.38
47.8401,509.89,529.9
47.8645,508.71,527.32
47.8851,508.37,523.26
47.9058,508.3,519.81
47.9263,508.44,515.65
47.9466,505.95,511.72
47.967,505.36,508.97
47.9916,505.69,507.78
48.0122,506.15,508.42
48.0325,506.32,511.34
48.0532,506.66,514.67
48.0735,510.12,519.14
48.098,511.1,523.11
48.1186,512.28,526.29
48.1393,510.42,529.03
48.1597,509.74,530.82
48.18,510.79,530.86
48.2005,511.03,529.69
48.2251,510.43,526.35
48.2455,509.54,522.88
48.2661,507.83,516.3
48.2866,507.47,510.44
48.3071,506.77,505.15
48.3315,507.42,502.32
48.3521,507.33,500.66
48.3725,505.87,502.13
48.3929,507.29,504.9
48.4135,508.84,508.12
48.4339,509.27,512.5
48.4584,509.21,516.4
48.479,509.17,521.12
48.4994,508.74,524.09
48.52,509.19,525.68
48.5404,510.15,526.54
48.5649,509.52,525.83
48.5854,509.42,524.27
48.606,507.93,520.01
48.6265,507.95,516.41
48.6469,506.56,514.13
48.6674,507.05,510.1
48.6919,506.64,507.28
48.7125,506.11,506.43
48.7331,506.09,507.34
48.7536,506.07,508.67
48.7738,506.66,511.94
48.7944,508.72,515.75
48.819,509.38,520.2
48.8395,510.1,523.96
48.8599,509.48,530.97
48.8805,510.19,539.37
48.9011,511.75,542.7
48.9255,512.6,543.56
48.946,510.68,542.85
48.9665,509.54,539.28
48.9869,509.43,535.02
49.0075,509.15,529.82
49.0278,508.32,523.85
49.0524,507.45,520.28
49.0729,507.16,517.43
49.0935,506.13,516.14
49.1139,506.3,517.71
49.1343,506.84,518.77
49.1588,507.88,521.62
49.1795,508.5,524.69
49.1999,509.4,527.15
49.2203,511.32,529.92
49.2408,510.86,530.94
49.2613,511.48,531.55
49.286,511.19,530.24
49.3064,512.15,528.39
49.3268,511.12,524.91
49.3473,509.9,521.53
49.3678,508.52,517.43
49.3922,508.21,512.54
49.413,507.57,509.83
49.4333,506.46,507.07
49.4538,506.37,506.45
49.4743,506.49,508.16
49.4948,506.99,511.33
49.5192,507.4,516.06
49.5399,507.52,520.05
49.5604,508.21,524.64
49.5808,508.37,528.31
49.6013,509.1,530.85
49.6258,509.68,532.08
49.6463,509.94,531.06
49.6668,509.35,529.65
49.6873,508.68,525.72
49.7079,508.75,521.98
49.7282,507,519.38
49.7527,506.6,517.51
49.7733,504.48,516.8
49.7938,505.38,515.04
49.8143,506.11,510.23
49.8347,504.48,503.79
49.8552,500.19,494.43
49.8797,494.75,482.34
49.9003,490.4,467.48
49.9207,487.52,452.58
49.9413,485.22,439.06
49.9617,482.97,430.45
49.9861,481.78,427.36
50.0067,482.62,429.29
50.0272,483.5,431.43
50.0477,484.2,434.34
50.0682,486.76,438.08
50.0887,489.01,442.06
50.1133,492.81,446.05
50.1337,494.44,452.84
50.1541,494.76,478.87
50.1747,501.4,517.1
50.1951,511.52,552.68
50.2196,526.02,574.74
50.2401,534.42,585.39
50.2608,540.53,591.31
50.2812,543.63,592.65
50.3018,543.3,590.32
50.3222,542.24,585.86
50.3467,540.39,580.69
50.3672,537.31,574.75
50.3877,533.85,567.6
50.4082,531.28,559.68
50.4286,528.02,551.74
50.4531,524.62,546.19
50.4736,524.5,541.16
50.4942,522.8,535.72
50.5147,522.04,531.38
50.5351,520.83,528.7
50.5556,519.46,527.76
50.58,518.57,529.21
50.6006,517.86,530.57
50.6212,516.89,532.25
50.6418,516.11,534.6
50.6623,517.29,536.48
50.6865,515.83,537.99
50.7072,514.86,537.59
50.7277,513.69,536.67
50.7482,513.35,533.94
50.7685,513.28,531.15
50.7893,512.43,527.12
50.8136,511.14,522.9
50.8341,509.31,517.72
50.8545,508.85,514.37
50.8751,508.88,512.9
50.8956,508.5,512.72
50.9201,508.6,511.98
50.9406,507.88,513.78
50.9612,507.91,516.62
50.9816,508.12,521.5
51.002,509.1,524.6
51.0225,510.48,528.08
51.047,509.98,529.66
51.0676,509.99,529.93
51.088,509.99,529.34
51.1085,510.39,528.08
51.129,510.31,525.86
51.1495,509.25,522.29
51.174,508.2,518.63
51.1945,507.76,514.3
51.215,507.61,512.24
51.2355,506.89,510.79
51.256,506.91,510.04
51.2805,507.13,509.63
51.3011,508.3,512.1
51.3216,509.64,515.08
51.342,509.31,519.27
51.3624,509.05,523.21
51.3829,508.44,526.97
51.4075,509.15,529.38
51.428,508.92,530.5
51.4484,508.14,530.4
51.469,507.31,528.92
51.4894,506.65,526.54
51.5139,507.32,523.23
51.5345,508.25,518.38
51.555,508.2,514.11
51.5755,507.36,511.09
51.596,507.69,509.07
51.6164,508.55,508.45
51.6409,509.44,508.36
51.6615,509.35,511.49
51.682,510.08,515.59
51.7024,510.67,519.87
51.7231,510.33,523.7
51.7474,512.27,526.76
51.7679,512.01,529.41
51.7884,512.61,530.93
51.8089,513.49,530.74
51.8293,513.79,528.79
51.8499,513.63,526.43
51.8744,513.71,522.15
51.8949,514.16,518.72
51.9155,512.73,515.37
51.936,511.39,510.9
51.9564,509.71,508.32
51.9809,509.97,507.06
52.0014,510.37,507.64
52.0219,510.1,509.92
52.0425,509.48,513.73
52.0628,509.98,517.39
52.0833,510.19,520.91
52.1078,511.35,524.93
52.1283,510.28,527.14
52.1489,510.22,527.91
52.1693,507.98,527.73
52.1899,507.38,526.18
52.2103,507.91,522.75
52.2349,507.13,519.4
52.2553,508.7,516.52
52.2758,510.36,513.01
52.2964,509.89,510.41
52.3168,511.11,509.13
52.3413,511.89,507.9
52.3619,510.31,508.32
52.3823,510.65,510.46
52.4028,511.12,513.37
52.4233,511.1,516.69
52.4438,512.88,521.75
52.4683,512.5,526.4
52.4889,513.6,528.32
52.5093,512.68,529.46
52.5298,510.94,529.57
52.5503,509.96,527.65
52.5748,510.16,525.52
52.5953,510.13,522.02
52.6158,507.71,518.01
52.6362,508.16,514.61
52.6567,508.33,511.49
52.6772,508.87,510.99
52.7019,509.89,512.59
52.7223,509.91,515.87
52.7428,509.93,518.7
52.7632,510.34,515.36
52.7837,506.88,507.89
52.8083,502.5,499.51
52.8289,497.4,489.21
52.8493,493.12,475.77
52.8697,490.9,460.61
52.8903,488.12,446.89
52.9108,486.69,437.51
52.9353,485.75,430.41
52.9558,485.4,425.33
52.9763,485.32,422.06
52.9967,486.06,422.25
53.0172,486.85,425
53.0417,489.08,430.4
53.0622,490.86,436.92
53.0827,493.69,444.74
53.1032,495.95,454.19
53.1237,497.96,464.75
53.1442,500.57,474.6
53.1686,503.06,484.48
53.1892,504.84,493.38
53.2097,506.08,501.71
53.2301,506.26,507.77
53.2506,507.01,519.01
53.2711,508.41,548.61
53.2956,511.73,583.69
53.3162,521.58,612.15
53.3367,531.86,623.52
53.3572,538.49,623.62
53.3777,540.39,617.09
53.4022,541.71,608.07
53.4226,541.77,597.26
53.4431,541.02,587.21
53.4636,539.61,578.97
53.4841,537.29,573.17
53.5046,536.43,569.14
53.5291,532.95,565.71
53.5496,531.56,563.37
53.5703,529.45,560.69
53.5907,525.56,557.56
53.6111,523.25,553.84
53.6356,520.6,550.08
53.6562,520.08,543.86
53.6766,518.26,537.29
53.6972,516.41,527.83
53.7176,513.33,519.46
53.7381,511.26,512.77
53.7625,509.01,508.22
53.7831,509.41,505.97
53.8036,508.13,504.58
53.8242,508.1,506.46
53.8446,507.48,509.37
53.869,506.58,512.1
53.8896,508.87,515.48
53.9102,508.69,519.98
53.9305,507.36,522.99
53.951,509.28,524.19
53.9715,511.43,525.35
53.996,510.94,526.88
54.0166,510.55,525.5
54.0372,509.04,523
54.0576,509.63,520.8
54.078,509.51,523.24
54.1026,507.21,522.79
54.123,507.96,523.24
54.1436,510.97,523.79
54.1639,514.38,524.03
54.1844,515.5,523.22
54.2049,516.2,524.38
54.2294,516.96,526.9
54.25,516.77,530.92
54.2705,518.22,533.74
54.2909,516.57,535.79
54.3114,515.46,537.23
54.336,512.77,537.39
54.3564,510.61,536.51
54.377,510.89,533.81
54.3975,508.71,529.25
54.418,508.17,524.6
54.4386,507.94,519.68
54.463,508.55,519.14
54.4835,502.04,520.31
54.504,488.23,518.25
54.5246,479.79,514.8
54.5449,479.03,513.44
54.5653,481.42,513.55
54.5899,482.34,513.64
54.6104,484.27,513.91
54.6309,487.22,514.13
54.6513,492.17,514.3
54.6719,495.74,514.24
54.6964,499.79,513.6
54.7169,502.03,511.88
54.7374,504.23,507.1
54.7579,506.58,502.48
54.7783,507.46,498.18
54.7988,508.17,493.35
54.8233,507.34,489.88
54.8439,508.67,486.9
54.8644,510.14,485.32
54.8848,509.91,485.46
54.9054,509.73,485.37
54.9298,510.38,489.29
54.9503,511.91,493.63
54.9709,512.52,498.11
54.9913,511.62,502.89
55.0118,511.5,507.91
55.0323,512,510.53
55.0568,512.8,511.62
55.0773,512.64,513.7
55.0979,513.91,511.96
55.1183,512.33,509.57
55.1388,510.86,506.85
55.1632,511.89,502.68
55.1838,510.71,497.55
55.2043,507.17,494.04
55.2248,507.14,493.23
55.2453,508.91,494.18
55.2658,511.53,495.95
55.2902,510.22,500.56
55.3108,509.18,505.65
55.3313,508.34,511.52
55.3518,507.07,518.21
55.3723,506.26,525.17
55.3927,505.61,528.34
55.4173,505.69,530.07
55.4378,502.75,531.66
55.4582,501.8,530.12
55.4787,502.84,526.7
55.4992,502.67,522.56
55.5237,502.34,518.25
55.5442,505.07,513.4
55.5648,507.06,508.92
55.5852,509.44,507.73
55.6057,510.36,506.99
55.6262,510.28,508.59
55.6507,510.43,512.07
55.6713,511.34,516.06
55.6918,509.47,520.85
55.7122,509.18,526.68
55.7328,507.14,532.34
55.7572,505.91,536.67
55.7778,503.93,537.94
55.7983,511.75,535.35
55.8188,525.4,532.28
55.8392,538.12,529.22
55.8597,546.09,524.58
55.8842,552.87,519.66
55.9047,555.1,513.73
55.9252,554.48,508.98
55.9457,550.98,507.39
55.9661,549.19,505.71
55.9907,545.55,506.77
56.0112,543.44,508.81
56.0317,539.15,513.65
56.0521,535.32,519.52
56.0727,532.66,524.62
56.0932,530.93,530.29
56.1177,528.14,533.83
56.1382,524.11,534.67
56.1588,520.09,533.93
56.1791,519.47,531.55
56.1996,518.78,526.64
56.2242,518.02,521.51
56.2447,518.82,516.21
56.2652,519.85,510.37
56.2856,521.28,506.29
56.3061,521.63,502.63
56.3266,519.3,500.71
56.3511,517.64,500.97
56.3718,516.91,504.77
56.3922,518.33,510.42
56.4126,518.46,516.33
56.4331,514.97,522.47
56.4576,511.78,527.57
56.478,510.82,531.46
56.4986,509.06,532.57
56.5191,509.65,532.85
56.5395,509.72,532.28
56.5601,506.77,528.43
56.5845,506.82,524.14
56.6051,508.66,522.51
56.6256,507.52,520.41
56.6461,493.82,515.73
56.6665,476.46,512.58
56.6871,467.36,509.27
56.7116,463.69,508.61
56.7321,464.35,511.29
56.7526,465.28,515.63
56.7731,466.23,520.11
56.7936,467.58,525.68
56.818,471.86,529.55
56.8386,475.09,532.84
56.8591,478.87,534.67
56.8795,480.7,534.74
56.9,485.56,532.39
56.9205,489.05,528.91
56.945,492.84,524.73
56.9655,494.47,519.78
56.986,495.18,514.23
57.0065,498.94,508.38
57.027,502.55,505.11
57.0515,506.24,504.28
57.0721,504.79,504.63
57.0926,503.84,507.1
57.113,503.67,511.88
57.1334,505.53,517.51
57.154,504.63,523.4
57.1784,504.5,528.12
57.199,501.8,532.3
57.2195,501.84,534.04
57.24,503.47,535.83
57.2604,503.98,535.06
57.2849,504.38,532.85
57.3055,503.51,529.08
57.3261,503.81,526.47
57.3464,506.04,526.97
57.367,508.24,535.18
57.3875,508.79,3.76486e-29
