Program Time [s],data 0,data 1
3.34986,473.42,532.53
3.34987,472.14,530.82
3.34988,519.95,524.76
3.34989,475.4,528.61
3.3499,475.52,531.89
3.34991,473.81,533.11
3.34992,472.65,533.89
3.34993,472.72,533.91
3.34994,471.78,532.53
3.34995,473.42,530.82
3.35069,472.14,524.76
3.3507,519.95,528.61
3.35071,475.4,531.89
3.35072,475.52,533.11
3.35073,473.81,533.89
3.35074,472.65,533.91
3.35075,472.72,532.53
3.35076,471.78,530.82
3.35078,473.42,510.6
3.35079,472.14,509.28
4.86657,505.2,507.42
4.88704,500.76,505.94
4.90749,495.41,506.55
4.92799,492.33,506.84
4.95248,489.06,508.27
4.97301,487.05,512.82
4.99349,486.64,518.25
5.01399,484.71,521.2
5.03447,483.37,524.56
5.05493,482.5,528.45
5.07944,482.6,529.96
5.09994,480.88,529.37
5.12051,479.7,525.29
5.14088,482.96,522.04
5.16143,494.97,519.03
5.18584,501.78,516.02
5.20648,505.22,512.22
5.22691,506.38,508.37
5.24743,506.1,506.7
5.26789,505.08,507.96
5.28834,501.66,508.97
5.31292,498.13,512.57
5.33338,496.71,515.86
5.35388,495.16,521.09
5.37437,491.33,525.87
5.39484,488.87,529.1
5.41535,485.09,532.08
5.43992,483.07,533.46
5.46048,478.46,533.37
5.48095,477.17,533.7
5.50136,476.33,531.16
5.52185,476.07,527.53
5.54638,474.85,524.62
5.56689,475.08,521.7
5.58743,473.27,518.76
5.6079,473.21,515.81
5.62833,471.97,514.24
5.6488,472.78,514.2
5.67333,474.02,516.96
5.69385,475.42,519.77
5.71433,475.73,525.01
5.73493,477.79,531.01
5.75534,472.03,534.21
5.77987,462.02,537.57
5.80035,455.62,538.45
5.82092,451.9,538.36
5.84141,451.12,536.09
5.86176,452.49,533.87
5.88224,453.99,529.5
5.90681,455.6,525.8
5.92739,457.48,522.44
5.94784,459.58,519.15
5.96834,460.66,517.12
5.98879,461.93,516.3
6.01324,464.35,516.04
6.03377,464.68,517.63
6.05429,462.54,520.9
6.07485,461.83,523.92
6.09526,463.07,528.34
6.11578,461.65,531.27
6.1403,462.92,533.82
6.16077,463.14,534.45
6.18131,462.11,534.16
6.20181,463.89,532.73
6.22233,462.31,529.38
6.24667,464.05,525.91
6.26741,465.44,522.13
6.28796,467.75,518.7
6.30839,469.8,515.56
6.32885,471.44,513.45
6.34941,472.55,512.56
6.37374,472.24,514.25
6.39426,474.39,515.4
6.41473,475.71,519.12
6.43526,474.97,522.89
6.45575,474.78,526.52
6.4762,474.22,529.81
6.50075,474.38,531.65
6.52123,474.5,532.52
6.54174,474.6,532.02
6.5622,473.88,530.81
6.58272,471.71,528.65
6.60732,471.76,524.92
6.6277,472.81,521.54
6.64827,473.85,516.83
6.66882,473.88,513.46
6.68926,475.3,511.37
6.70988,477.24,511.7
6.73427,478.39,513.36
6.75493,478.32,515.49
6.77541,477.85,518.59
6.79576,477.08,522.07
6.81622,476.27,525.26
6.84082,474.61,530.41
6.86122,473.29,532.12
6.88166,472.43,533.1
6.90221,477.55,533.68
6.92267,484.44,532.74
6.94317,487.35,529.99
6.96782,488.08,526.6
6.98832,488.86,523.08
7.00879,488.09,518.26
7.02919,487.87,514.61
7.04968,487.9,512.29
7.07412,486.72,511.83
7.09477,486.97,511.46
7.11529,486.98,513.17
7.13579,486.18,518.14
7.15614,483.15,521.91
7.17659,476.12,526.13
7.20106,472.69,528.5
7.22174,469.36,530.2
7.2421,466.48,530.36
7.26262,465.59,529.69
7.28304,465.07,528.35
7.30759,464.86,524.28
7.32817,464.08,520.42
7.34866,465.27,517.54
7.3691,467.61,513.63
7.38976,470.29,510.71
7.41016,469.63,507.96
7.43474,469.11,508.97
7.45511,469.89,510.38
7.47563,470.51,513.1
7.49601,469.01,516.88
7.51659,469.21,522.71
7.53699,469.36,525.96
7.56165,470.89,528.77
7.58204,470.11,529.82
7.6026,470.69,529.45
7.62305,470.55,528.76
7.64363,470.84,527.41
7.66798,470.87,524.53
7.68858,471.3,521.22
7.70907,472.04,517.78
7.72949,470.63,516.02
7.74996,470.31,514.82
7.77044,471.04,514.25
7.79504,480.64,514
7.81565,485.51,515.2
7.83605,490.41,519.36
7.85647,490.73,522.89
7.87701,491.98,526.91
7.9016,491.18,531.13
7.922,490.15,535.9
7.94249,487.52,536.72
7.96319,486.41,537.98
7.98347,484.93,536.18
8.00397,484.35,534.55
8.02848,482.48,531.84
8.04902,480.98,528.67
8.06946,479.18,523.34
8.08999,476.95,520.07
8.11042,476.36,515.85
8.13498,475.89,515.48
8.15549,476.91,514.79
8.17604,476.33,515.03
8.19648,477.86,517.82
8.21694,479.09,519.66
8.23742,479.87,523.53
8.26188,478.1,526.42
8.28247,480.48,530.34
8.30298,486.18,532.87
8.32353,490.75,533.3
8.34391,491.8,532.04
8.36836,492.64,530.83
8.3889,491.91,528.66
8.40946,491.73,525.13
8.42997,491.38,521.5
8.45039,489.11,517.8
8.47089,488.28,515.04
8.4954,487.83,513.03
8.51599,485.86,513.03
8.53646,485.29,513.82
8.55692,484.23,514.86
8.57742,484.19,517.29
8.59783,483.35,520.63
8.6224,485.08,524.1
8.64287,485.66,526.68
8.66334,484.53,527.95
8.68382,482.22,530.16
8.70429,481.38,530.93
8.72889,479.3,530.94
8.74936,479.44,529.75
8.76986,478.55,529.8
8.79037,478.24,528.64
8.81082,476.39,528.51
8.83142,475.92,522.41
8.85585,475.93,510.33
8.87641,476.75,490.86
8.89694,474.4,470.29
8.91747,474.92,450.23
8.93778,474.13,434.79
8.96233,473.71,423.03
8.98296,472.57,415.62
9.00345,471.25,412.5
9.02396,466.6,411.8
9.0444,464.88,415.04
9.06476,463.71,419.23
9.08931,465.16,422.98
9.10995,466.93,426.79
9.13032,466.55,432.03
9.1508,467.44,437.42
9.17127,467.95,442.14
9.19588,469.36,445.91
9.21631,471.69,452.33
9.2369,475.15,458.66
9.25759,479.12,465.33
9.2779,481.5,473.06
9.2983,483.2,482.85
9.32282,484.16,490.28
9.34335,483.73,498.23
9.36393,483.38,505.38
9.38433,483.3,510.9
9.4048,483.64,514.72
9.42923,483.11,516.58
9.44997,480.89,518.06
9.47029,479.91,520.85
9.49087,478.13,544.48
9.51131,479.1,585.78
9.53191,479.88,634.23
9.55622,481.91,672.78
9.57671,483.93,691.43
9.59729,485.14,693.34
9.61769,486.91,685.87
9.6382,487.53,672.7
9.65878,486.82,657.16
9.68327,485.66,641.13
9.70388,484.13,626.3
9.72421,483.5,613.04
9.74476,483,599.63
9.76521,482,586.71
9.78964,481.8,574.57
9.81016,480.44,563.25
9.83072,477.95,552.2
9.85116,478.76,542.36
9.87167,478.21,534.29
9.89225,477.37,526.23
9.91668,477.09,520.19
9.93727,475.48,516.95
9.95768,473.38,515.76
9.97823,473.9,516.81
9.9986,475.52,518.65
10.0232,476.02,522.52
10.0437,476.42,525.21
10.0643,475.93,528.37
10.0846,475.15,531.1
10.1051,475.12,531.48
10.1257,473.89,531.98
10.1501,473.31,531.19
10.1707,473.65,528.75
10.1912,471.72,525.6
10.2116,472.18,522.28
10.2321,473.74,519.02
10.2566,476.19,515.42
10.2771,474.95,511.93
10.2977,473.76,512.15
10.3181,473.01,512.52
10.3387,473.61,515.61
10.3592,476.29,520.49
10.3837,487.03,525.19
10.4042,494.42,528.15
10.4246,497.34,532.72
10.4451,498.07,534.78
10.4657,498.06,535.82
10.4901,498.25,536.06
10.5105,496.4,536.45
10.5312,494.52,536.56
10.5516,492.81,536.85
10.5722,489.25,533.08
10.5927,488.8,519.86
10.6172,484.64,502.09
10.6378,480.71,483.27
10.6582,475.37,465.82
10.6787,469.7,449.45
10.6991,462.76,436.36
10.7196,459.01,427.69
10.7442,455.2,421.75
10.7646,452.56,418.8
10.785,451.05,419.64
10.8055,451.04,421.91
10.826,452.03,426.53
10.8505,450.43,432.02
10.871,451.14,437.62
10.8916,450.91,442.1
10.912,452.93,445.88
10.9326,455.74,452.1
10.9531,458,457.88
10.9776,461.4,462.1
10.9981,461.12,466.08
11.0187,465.09,471.87
11.0391,466.47,477.69
11.0595,468.58,484.95
11.084,470.86,493.16
11.1045,470.89,499.93
11.1251,470.51,502.94
11.1455,470.01,506.16
11.166,471.41,509.72
11.1864,471.73,514.18
11.211,471.18,516.54
11.2315,472.75,517.44
11.252,471.6,516.95
11.2725,471.28,516.96
11.293,472.42,516.37
11.3174,472.54,532.09
11.3379,472.83,567.87
11.3586,474.46,613.1
11.3791,475.97,649.88
11.3996,479.78,668.3
11.4201,484.42,676.04
11.4445,488.14,675.03
11.4649,489.71,669.43
11.4854,491.57,660.14
11.506,491.65,648.91
11.5264,491.12,635.73
11.5469,489.5,621.58
11.5715,485.6,607.27
11.5921,485.68,592.41
11.6125,483.34,578.13
11.6331,483.07,565.11
11.6535,482.26,553.28
11.678,480.61,545.43
11.6984,485.09,535.94
11.719,492.07,528.75
11.7394,495.66,524.6
11.7599,497.52,522.48
11.7805,497.62,520.19
11.8048,497.3,520.75
11.8255,496.24,524.4
11.8458,492.19,527.92
11.8664,491.55,531.74
11.8868,489.44,534.39
11.9113,487.15,535.91
11.9318,485.92,535.93
11.9523,483.94,534.94
11.9727,482.95,532.55
11.9932,482.96,530.64
12.0138,481.97,527.71
12.0383,480.17,523.97
12.0588,479.94,519.98
12.0793,480.15,515.98
12.0997,481.52,514.59
12.1203,481.82,515.47
12.1447,480.65,517.37
12.1652,479.52,518.1
12.1858,478.02,522.08
12.2063,476.81,526.46
12.2267,476.25,529.57
12.2472,476.2,531.06
12.2718,475.96,531.85
12.2925,472.77,532.28
12.3128,470.42,530.62
12.3333,468.33,528.9
12.3538,467.47,526.92
12.3782,466.37,522.33
12.3987,465.3,518.67
12.4194,465.04,514.13
12.4397,466.23,512.51
12.4602,466.38,511.21
12.4807,468.51,513.36
12.5052,469.41,516.09
12.5258,470.12,518.87
12.5462,472.3,524.1
12.5669,472.64,526.88
12.5872,473.31,530.3
12.6078,472.25,536.24
12.6323,471.8,536.99
12.653,471.44,537.4
12.6734,471.95,536.52
12.6937,471.76,534.61
12.7143,472.61,530.49
12.7388,473.49,526.79
12.7593,474.39,523.23
12.7799,474.11,519.99
12.8004,473.89,517.79
12.8208,473.91,515.43
12.8412,474.33,514.35
12.8658,471.46,515.48
12.8863,471.57,518.98
12.9068,473.66,523.78
12.9271,473.33,527.83
12.9476,471.86,532.06
12.9724,471.49,536.25
12.9928,470.59,538.2
13.0132,470.47,538.76
13.0336,471.58,540.21
13.0541,470.86,538.17
13.0747,470.69,533.93
13.0992,472.35,528.95
13.1198,473.08,525.56
13.1403,475.27,524.05
13.1606,476.01,522.04
13.1812,478.01,519.43
13.2056,479.61,519.14
13.2261,476.49,520.31
13.2466,474.19,521.45
13.2671,474.35,526.56
13.2876,472.48,533.05
13.3082,471.78,537.84
13.3325,472.43,540.47
13.3531,473.14,542.58
13.3736,474.11,544.06
13.3941,472.29,544.05
13.4146,472.03,540.64
13.439,472.63,536.11
13.4596,473.7,532.69
13.4801,472.76,528.55
13.5006,471.81,524.24
13.5212,473.05,522.39
13.5415,473.04,519.51
13.566,475.03,517.61
13.5865,474.82,518.49
13.607,475.66,520.99
13.6275,474.33,524.39
13.648,473.86,529.51
13.6684,474.69,534.21
13.6931,474.55,535.17
13.7138,473.04,535.74
13.7341,471.23,534.59
13.7546,471.19,532.87
13.7751,470.95,529.7
13.7994,470.56,528.36
13.8202,470.85,525.09
13.8406,471.28,521.07
13.8611,475.82,519.65
13.8815,480.66,520.12
13.902,483.33,520.9
13.9266,484.86,522.52
13.9472,487.69,527.62
13.9676,487.95,533.09
13.9881,488.76,538.67
14.0086,485.61,535.34
14.033,484.29,527.67
14.0537,482.63,510.94
14.074,478.9,488.95
14.0946,474.32,464.36
14.115,468.06,443.09
14.1354,462.65,423.47
14.1601,457.92,410.98
14.1805,455.93,401.38
14.2011,452.75,396.7
14.2215,450.4,395.96
14.242,449.52,400.57
14.2665,448.21,405.66
14.287,445.37,413.13
14.3076,445.1,423.5
14.3281,446.68,435
14.3484,448.34,445.8
14.369,450.87,457.84
14.3934,451.1,469.07
14.4141,450.48,477.86
14.4344,451.18,487.49
14.4551,453.75,493.79
14.4754,455.8,498.03
14.4998,455.84,502.02
14.5205,456.27,504.22
14.5409,458.62,505.38
14.5614,462.29,504.3
14.5819,463.03,503.04
14.6024,466.63,504.83
14.6269,468.1,520.27
14.6475,470.08,555.41
14.668,469.87,605.73
14.6884,475.89,652.18
14.709,484.71,679.55
14.7294,493.37,690.04
14.7539,502.5,689.43
14.7746,505.2,682.34
14.7949,504.36,670.28
14.8154,503.89,656.62
14.8361,501.31,636.7
14.8604,500.45,618.16
14.881,497.56,599.33
14.9015,495.25,583.46
14.9219,492.8,570.37
14.9424,489.64,561.09
14.9629,485.51,552.28
14.9874,483.41,544.62
15.0081,482.53,539.9
15.0283,482.42,535.52
15.0488,480.14,536.81
15.0693,479.31,536.85
15.0938,478.25,537.48
15.1142,476.8,537.98
15.1347,474.44,537.19
15.1554,472.75,536.75
15.1757,472,536.2
15.1964,471.8,534.36
15.2208,470.84,532.29
15.2413,469.87,530.43
15.2619,470.1,529.94
15.2823,471.88,528.36
15.3028,476.7,525.28
15.3273,481.56,523.23
15.3478,485.05,522.78
15.3683,486.04,523.03
15.3888,485.63,524.62
15.4092,486.11,527.7
15.4298,484.88,529.16
15.4542,485.11,531.53
15.4749,484.49,536.02
15.4954,482.79,540.02
15.5159,481.83,541.41
15.5363,478.66,540.53
15.5567,477.13,538.62
15.5813,475.11,534.3
15.6017,473.28,530.64
15.6222,473.03,525.71
15.6428,471.82,524.37
15.6631,473.66,520.5
15.6877,473.93,519.2
15.7082,476.14,518.16
15.7287,476.91,518.73
15.7491,477.53,520.78
15.7697,476.42,524.82
15.7901,478.54,527.46
15.8148,478.63,531.57
15.8354,478.51,535.45
15.8558,477,538.36
15.8763,475.4,539.89
15.8967,474.12,540.51
15.9212,475.1,539.81
15.9418,474.88,537.05
15.9622,473.9,533.04
15.9827,473.92,529.03
16.0031,474.34,524.22
16.0236,474.27,522.38
16.0481,474.82,519.7
16.0687,474.85,516.76
16.0891,473.88,517.81
16.1096,473.31,519.65
16.13,472.64,523.32
16.1545,472.32,526.26
16.1751,470.65,530
16.1957,471.12,532.2
16.2161,471.9,534.76
16.2365,470.72,537.01
16.2573,469.97,536.81
16.2815,471.18,536.85
16.3021,470.74,535.08
16.3225,471.59,532.26
16.3431,472.28,529.41
16.3636,473.62,525.93
16.3881,472.7,521.54
16.4085,473.16,518.63
16.4291,472.13,518.71
16.4496,473.3,518.97
16.47,473.84,518.97
16.4906,473.47,520.78
16.5151,471.58,524.02
16.5356,470.66,528.02
16.556,469.73,530.41
16.5766,468.98,532.73
16.5972,467.39,533.59
16.6175,467.51,534.27
16.6421,469.41,534.01
16.6626,469.93,531.61
16.6832,470.94,529.69
16.7037,471.75,527.15
16.7242,472.2,523.92
16.7485,471.76,520.94
16.769,471.81,518.35
16.7897,470.85,517.08
16.8102,470.48,516.46
16.8305,469.98,518.37
16.8511,471.39,522.3
16.8756,471.91,527.04
16.8961,476.33,529.83
16.9166,480.06,534.26
16.937,483.05,537.21
16.9575,483.64,538.37
16.9821,482.31,538.7
17.0026,482.05,537.36
17.023,483.24,535.68
17.0435,481.99,532.75
17.064,479.39,529.8
17.0845,477.11,526.24
17.1089,478.49,521.59
17.1294,478.59,519.27
17.15,477.47,519.42
17.1705,476.18,518.33
17.191,476.94,520.47
17.2154,476.16,523.97
17.2359,475.92,527.98
17.2565,475.74,531.78
17.2769,475.79,534.03
17.2976,474.23,536.02
17.3179,473.19,537.02
17.3425,472.55,537.61
17.3631,473.04,536.29
17.3836,473.83,534.63
17.4039,473.67,530.91
17.4244,474.33,527.53
17.4489,474.27,523.22
17.4695,474.81,519.38
17.4899,474.05,517.3
17.5107,474.64,516.84
17.5308,475.71,517.87
17.5513,476.37,519.9
17.5759,476.7,522.32
17.5964,475.76,525.65
17.6168,475.61,529.52
17.6374,475.48,532.02
17.6578,476.59,534.22
17.6824,476.67,534.97
17.7029,475.34,536.78
17.7234,474.87,537.02
17.744,474.1,536.62
17.7644,475.08,535.29
17.7849,474.86,534.04
17.8093,474.29,533.83
17.8299,473.63,530.66
17.8504,473.1,522.53
17.8709,474.28,511.62
17.8915,476.43,498.3
17.9119,477.74,479.64
17.9364,478.19,458.51
17.9569,478.75,438.81
17.9774,477.6,423.05
17.998,475.08,413.04
18.0183,471.27,409.43
18.0428,468.21,406.74
18.0633,464.57,408.8
18.0838,460.66,412.84
18.1043,457.13,417.87
18.1249,454.9,422.3
18.1454,452.52,427.64
18.17,452.62,431.71
18.1905,454.09,436.37
18.2109,456.67,442.29
18.2314,458.14,449.24
18.2518,460.31,456.39
18.2763,463.45,463.71
18.2968,465.16,474.37
18.3173,468.13,484.29
18.3378,469.5,494.24
18.3583,471.8,502.59
18.3787,471.84,509.07
18.4033,473.67,516.46
18.4237,474.94,520.37
18.4442,474.95,526.09
18.4649,475.36,551.67
18.4852,475.69,590.74
18.5097,478.15,632.39
18.5303,478.92,665.31
18.5508,479.14,680.85
18.5712,479.31,680.88
18.5918,479.25,673.5
18.6123,477.8,661
18.6368,476.44,646.8
18.6572,477.55,632.84
18.6778,477.24,618.67
18.6983,477.19,606.54
18.7187,476.95,595.43
18.7391,475.96,583.14
18.7637,475.37,573.52
18.7843,475.9,566.01
18.8048,475.32,559.41
18.8252,470.05,552.93
18.8458,467.24,544.74
18.8701,464.79,536.99
18.8909,464.44,528.4
18.9112,464.75,522.52
18.9317,464,518.41
18.9521,464.4,516.73
18.9728,466.12,515.98
18.9972,464.9,516.79
19.0178,468.52,520.23
19.0382,467.61,523.78
19.0587,468.09,528.43
19.0791,467.27,531.34
19.1036,466.82,534.87
19.1241,466.65,535.9
19.1447,466.72,535.32
19.1652,467.18,534.46
19.1856,467.14,530.76
19.2062,469.31,527.41
19.2306,470.45,526.53
19.2512,468.56,524.22
19.2717,463.05,521.38
19.2923,456.04,520.1
19.3127,454.23,519.88
19.337,454.79,520.51
19.3576,454.03,522.8
19.3782,453.82,525.64
19.3987,455.06,528.91
19.4192,454.45,532.93
19.4395,457.36,536.55
19.4642,458.49,538.64
19.4847,460.39,541.31
19.505,461.31,542.65
19.5255,460.45,542.12
19.546,463.56,539.49
19.5705,467.25,535.4
19.591,470.4,531.12
19.6115,471.72,526.09
19.632,474.37,522.27
19.6525,476.9,520.22
19.6729,479.72,520.18
19.6974,478.58,518.34
19.7179,477.46,518.87
19.7386,483.17,522.5
19.7589,501.13,525.6
19.7795,519.31,528.88
19.8,529.25,531.5
19.8244,532.6,534.4
19.8451,533.68,535.92
19.8655,532.14,534.94
19.886,528.51,533.15
19.9064,522.81,530.32
19.9311,520.05,526.66
19.9514,515.04,524.52
19.9719,511.23,521.02
19.9925,506.19,517.82
20.0131,502.95,516.25
20.0336,500.36,516.2
20.058,497.69,516.56
20.0786,497.95,519.25
20.0991,496.16,523
20.1196,493.53,526.4
20.14,492.82,530.32
20.1645,489.86,532.46
20.1849,487.29,534.96
20.2056,483.43,536.17
20.2259,480.94,536.14
20.2465,479.95,534.51
20.2669,478.76,532.01
20.2914,479.01,528.01
20.3119,477.41,524.41
20.3324,475.93,521.12
20.353,475.54,518.9
20.3736,475.83,516.92
20.398,480.67,517.14
20.4185,483.73,517.31
20.439,485.19,518.05
20.4595,488.75,521.64
20.4801,487.4,524.91
20.5005,486.72,528.33
20.525,485.78,532.26
20.5454,484.62,535.81
20.566,484.3,537.05
20.5865,484.64,535.84
20.607,483.11,534.07
20.6314,481.29,532.06
20.652,479.03,528.65
20.6724,478.02,526.12
20.693,478.42,522.69
20.7135,478.34,519.55
20.7339,477.27,517.44
20.7584,476.21,516.55
20.779,474.57,516.44
20.7993,475.26,518.56
20.8199,477.01,521.44
20.8403,476.6,524.16
20.8608,477.28,527.32
20.8853,477.43,530.26
20.9058,476.94,532.21
20.9264,475.95,533.77
20.9469,475.36,534.01
20.9675,475.29,533.21
20.9918,475.03,531.97
21.0124,473.83,529.77
21.033,474.26,526.82
21.0533,474.61,523.66
21.0738,475.89,519.92
21.0943,475.71,519.14
21.1187,475.57,517.91
21.1394,477.45,517.93
21.16,477.76,518.94
21.1804,477.21,522.55
21.2007,473.97,526.04
21.2253,470.37,529.84
21.2459,469.1,531.27
21.2662,466.88,533.61
21.2869,466.5,534.49
21.3073,465.6,535.39
21.3279,465.48,534.71
21.3523,466.19,532.77
21.3728,464.55,529.42
21.3934,467.64,525.73
21.4137,468.91,521.79
21.4343,469.33,517.63
21.4588,471.26,513.9
21.4792,470.81,513.12
21.4998,467.45,512.7
21.5203,465.96,515.16
21.5408,465.57,519.13
21.5612,465.25,522.7
21.5858,465.8,526.76
21.6064,465.44,529.81
21.6268,466.35,531.25
21.6472,466.48,532.2
21.6678,464.39,532.56
21.6923,464.71,531.45
21.7128,464.57,528.36
21.7332,466.05,525.29
21.7538,467.64,521.23
21.7742,467.11,516.78
21.7948,460.09,513.63
21.8192,454.87,511.5
21.8398,452.3,511.2
21.8601,451.44,512.76
21.8808,450.35,515.01
21.9012,451.88,519.81
21.9217,451.9,524.25
21.9463,452.72,528.8
21.9667,453.78,531.44
21.9872,453.82,533.55
22.0076,455.26,533.64
22.0282,453.61,533.11
22.0526,450.49,531.29
22.0733,449.99,529.03
22.0938,450.39,525.63
22.1142,450.91,522.1
22.1347,452.13,519.28
22.1552,454.7,516.02
22.1797,455.56,513.42
22.2002,457.85,513.34
22.2206,460.88,513.47
22.2412,463.7,516.37
22.2616,464.36,518.7
22.286,465.49,523.36
22.3067,466.59,530.69
22.3271,469.87,535.15
22.3476,472.9,538.52
22.3682,473.12,539.62
22.3885,473.1,539.49
22.4131,474.48,538.99
22.4337,475.98,536.6
22.4541,476.38,534.08
22.4746,473.91,531.86
22.4951,474.33,529.89
22.5195,475.26,520.31
22.5402,474.41,504.45
22.5606,476.73,486.36
22.5811,481.38,470.69
22.6017,488.71,461.15
22.622,496.36,453.92
22.6466,501.49,446.74
22.6671,505.39,441.79
22.6875,505.51,438.83
22.708,504.61,436.66
22.7286,501.49,435.13
22.7532,501.19,434.11
22.7735,498.35,435.48
22.7941,494.88,436.59
22.8146,490.91,437.27
22.8351,489.12,439.42
22.8554,489.3,441.33
22.88,490.44,445.47
22.9005,488.15,450.17
22.9211,485.92,456.74
22.9414,484.54,463.59
22.9619,483.83,473.47
22.9824,482.46,482.38
23.0069,480.37,491.3
23.0274,479.7,499.24
23.0479,479.96,508.19
23.0685,479.97,512.75
23.0891,478.77,516
23.1135,476.82,519
23.1341,475.45,521
23.1546,475.76,519.8
23.175,476.41,525.04
23.1955,477.33,552.03
23.2159,475.06,592.63
23.2404,478.65,634.1
23.261,487.92,661.28
23.2815,497.14,670.82
23.3022,503.51,671.06
23.3225,510.21,666.45
23.3469,511.77,656.76
23.3675,511.21,645.81
23.388,510.97,634.85
23.4084,507.78,622.88
23.4289,502.02,610.3
23.4494,498.22,599.64
23.4739,494.97,587.71
23.4945,490.38,576.17
23.5148,488.9,565.74
23.5354,486.32,555.99
23.556,484.86,546.99
23.5803,481.29,539.39
23.6008,480.43,532.71
23.6214,479.54,528.77
23.6419,477.83,527.02
23.6625,477.27,527.41
23.6829,475.21,528.33
23.7073,476.77,531.46
23.7278,477.62,533.77
23.7485,478.69,536.02
23.7689,479.75,537.01
23.7894,478.8,538.01
23.8139,478.64,537.61
23.8343,477.31,535.89
23.8549,477.05,533.71
23.8753,477.84,530.77
23.8958,477.47,527.21
23.9163,478.38,522.77
23.9408,478.5,518.22
23.9613,478.4,515.57
23.9818,478.12,514.46
24.0024,477.7,514.37
24.0227,478.56,516.29
24.0434,478.45,519.04
24.0678,476.16,524.03
24.0883,474.33,528.22
24.1087,472.06,531.18
24.1292,472.65,532.54
24.1498,470.92,533.03
24.1742,461.54,533.23
24.1947,454.03,533.78
24.2154,451.42,531.63
24.2359,452.54,528.5
24.2562,452.83,524.6
24.2769,452.06,521.28
24.3012,453.45,518.02
24.3218,453.96,516.42
24.3423,456.57,515.54
24.3628,459.26,516.43
24.3832,459.8,517.74
24.4078,460.84,519.99
24.4284,463.27,524.6
24.4487,465.82,527.68
24.4692,467.46,532.14
24.4898,466.56,534.91
24.5101,467.45,536.13
24.5347,468.96,536.1
24.5554,468.57,535.48
24.5758,469.06,532.79
24.5961,470.44,530.83
24.6167,478.16,527.86
24.6412,485.92,525.09
24.6617,490.54,521.67
24.6823,493.43,518.54
24.7027,496.35,517.63
24.7231,496.68,517.5
24.7437,495.54,518.2
24.7682,493.43,520.76
24.7888,492.55,523.81
24.8093,491.84,528.05
24.8296,488.87,532.24
24.8501,486.3,534.79
24.8746,483.04,536.03
24.8951,480.63,536.03
24.9156,480.1,535.02
24.9361,480.48,532.42
24.9566,478.99,528.73
24.9771,477.99,525.39
25.0017,477.99,520.91
25.0221,477.19,517.93
25.0427,474.95,515.14
25.0631,470.76,514.31
25.0835,468.41,514.45
25.1041,468.33,517.16
25.1286,468.06,519.53
25.1492,467.25,523.22
25.1698,466,526.58
25.1901,467.2,530.66
25.2105,468.76,533.73
25.235,467.81,535.38
25.2557,465.65,535.91
25.276,464.12,535.33
25.2967,464.89,532.46
25.3171,465.72,530.17
25.3376,466.17,527.53
25.362,466.74,523.83
25.3827,467.99,521.26
25.403,469.59,518.81
25.4235,470.87,516.25
25.444,470.7,516.2
25.4685,471.16,517.76
25.489,472.73,521.01
25.5095,473.78,525.01
25.53,473.83,529.2
25.5506,474.06,532.96
25.5709,474.25,535.97
25.5955,474,536.98
25.616,473,536.98
25.6365,473.2,535.99
25.657,471.56,534.79
25.6775,475.05,531.43
25.7021,480.64,527.54
25.7225,483.31,524.64
25.7431,484.65,521.31
25.7635,487.32,518.85
25.7839,488.65,518.48
25.8044,486.92,518.18
25.829,486.14,519.55
25.8495,486.11,522.84
25.87,485.69,526.27
25.8905,483.55,529.82
25.911,482.44,533.85
25.9354,482.15,537.08
25.956,480.12,538.07
25.9765,478.5,538.05
25.9969,477.6,536.64
26.0175,478.48,534.31
26.0379,478.98,531.65
26.0624,478.19,529.32
26.083,476.95,525.26
26.1035,477.56,521.01
26.1239,477.45,517.6
26.1446,477.76,517.28
26.1649,478.41,518.43
26.1895,477.93,520.14
26.21,477.54,523.11
26.2304,477.63,526.49
26.2508,478.71,530.39
26.2714,477.56,534.31
26.2958,476.05,536.45
26.3165,475.04,537.16
26.337,473.83,536.13
26.3574,473.67,534.1
26.3778,473.53,531.88
26.3983,474.83,528.71
26.4229,474.86,525.96
26.4436,474.29,523.37
26.464,472.83,520.1
26.4845,472.66,518.68
26.5049,472.53,519.34
26.5293,472.83,519.67
26.5498,473.86,522.34
26.5704,474.09,526.47
26.591,475.07,531.78
26.6113,473.86,536.02
26.6319,473.49,536.82
26.6565,473.79,531.25
26.677,473.23,520.8
26.6974,470.78,504.64
26.718,468.23,484.71
26.7384,466.38,463.37
26.7628,463.11,442.3
26.7834,460.08,426.64
26.804,458.87,412.91
26.8244,455.09,405.53
26.8448,453.28,403.22
26.8654,451.42,404.78
26.8898,447.54,409.82
26.9104,446.03,418.06
26.9309,445.62,428.65
26.9513,445.3,440.12
26.972,445.24,451.69
26.9963,446.79,461.55
27.017,448.63,471.84
27.0375,450.31,479.28
27.0578,455.05,485.62
27.0784,456.84,489.9
27.0987,459.87,492.52
27.1232,463.3,494.61
27.1438,465.44,495.49
27.1643,467.95,496.79
27.1847,469.76,497.03
27.2053,472.21,499.23
27.2257,472.97,506.38
27.2503,474.77,532.71
27.2709,476.22,577.16
27.2912,479.77,624.73
27.3119,488.62,665.19
27.3322,502.1,686.35
27.3568,513.08,692.28
27.3773,522.86,688.82
27.3977,528.49,677.86
27.4183,530.19,662.69
27.4388,529.55,645.95
27.4593,527.44,627.16
27.4838,523.35,608.53
27.5042,519.08,591.02
27.5247,513.27,574.82
27.5453,508.81,560.45
27.5656,504.65,549.16
27.5902,501.52,540.73
27.6107,498.22,535.18
27.6312,494.77,533.15
27.6518,492.02,532.52
27.6722,488.81,533.41
27.6927,486.05,534.73
27.7173,484.44,536.19
27.7377,482.35,536.95
27.7583,481.28,536.76
27.7786,479.63,535.81
27.7991,478.1,533.05
27.8236,479.08,529.44
27.8441,475.46,525.95
27.8649,475.37,522.56
27.8851,474.7,518.25
27.9056,473.36,516.2
27.9261,472.49,514.56
27.9506,472.39,514.65
27.9712,472.91,516.12
27.9916,474.13,519.49
28.0121,473.7,522.8
28.0327,474.76,527.04
28.057,474.41,530.83
28.0777,473.53,534.06
28.0981,472.22,535.65
28.1187,471.18,535.92
28.139,473.14,534.54
28.1595,472.71,533.03
28.1841,474.17,530.02
28.2047,474.54,527.22
28.2251,475.43,524.17
28.2457,476.34,520.54
28.2662,476.67,517.63
28.2906,477.34,517.11
28.311,477.27,516.48
28.3316,477.02,518.99
28.3521,477.41,522.39
28.3726,476.53,526.91
28.3931,475.43,530.53
28.4175,475.54,534.42
28.4381,474.83,538.14
28.4585,473.67,539.11
28.4791,473.53,538.09
28.4995,473.43,536.27
28.52,473.34,533.62
28.5446,472.07,528.69
28.5652,471.06,525.75
28.5856,470.65,522
28.6061,472.72,517.4
28.6266,471.97,515.52
28.6511,472.58,516.22
28.6715,474.06,517.17
28.6921,476.45,520.14
28.7125,475.36,523.11
28.733,475.49,527.09
28.7535,475.19,530.27
28.778,476.55,533.22
28.7985,475.84,535.57
28.8189,475.87,536.66
28.8394,476.1,536.73
28.8599,476.88,535.18
28.8845,476.7,532.75
28.9049,475.16,530.4
28.9254,473.53,527.32
28.9461,474.02,523.85
28.9666,473.02,520.28
28.9872,473.02,517.43
29.0116,472.21,517.14
29.032,472.77,517.51
29.0524,473.22,520.41
29.073,472.57,523.93
29.0935,472.06,527.14
29.1178,471.45,530.31
29.1383,471.36,533.85
29.1591,470.69,536.68
29.1794,470.55,538.14
29.1999,471.24,538.52
29.2204,470.59,536.61
29.2448,469.67,533.89
29.2655,469.74,530.91
29.286,469.99,526.93
29.3064,469.99,523.54
29.3269,469.39,521.04
29.3513,469.52,518.83
29.3719,471.01,518.46
29.3925,473.21,520.37
29.4131,471.77,521.7
29.4335,471.61,524.56
29.4539,472.49,528.45
29.4784,473.19,532.16
29.499,470.95,535.53
29.5194,468.36,537.02
29.54,469.69,537.82
29.5604,472.75,537.45
29.5808,474.8,537.16
29.6055,473.44,536.53
29.6259,473.55,536.42
29.6464,475.24,535.14
29.6668,475.79,524.11
29.6873,474.84,506.09
29.7118,473.87,487.67
29.7323,472.89,469.74
29.7529,470.32,454.59
29.7734,469.25,441.27
29.7938,465.6,430.82
29.8143,463.48,422.85
29.8387,462.79,418.28
29.8594,462.43,417.63
29.8799,460.54,418.5
29.9002,459.23,422.4
29.9208,458.79,426.72
29.9452,459.03,430.98
29.9658,461.02,436.78
29.9863,463.22,442.63
30.0067,464.98,448.7
30.0273,465.78,453.56
30.0478,469.82,458.05
30.0722,472.26,463.24
30.0928,472.41,470.19
30.1133,471.93,477.35
30.1338,473.14,486.68
30.1542,475.51,495.95
30.1787,475.41,507.16
30.1993,473.53,518.93
30.2199,474.02,527.14
30.2402,475.42,532.31
30.2607,474.33,535.45
30.2813,473.07,550.96
30.3059,472.05,586.37
30.3263,473.04,631.09
30.3468,475.83,667.08
30.3671,480.67,681.46
30.3878,486.73,681.17
30.4082,490.59,672.13
30.4327,493.67,659.71
30.4534,494.34,644.77
30.4739,493.07,629.81
30.4942,491.45,616.05
30.5148,489.76,604.04
30.5392,489.81,593.23
30.5598,487.45,584.19
30.5802,485.96,575.75
30.6007,484.37,568.2
30.6212,481.49,560.16
30.6417,481,553.13
30.6661,479.8,545.3
30.6868,478.04,538.64
30.7072,478.63,529.31
30.7277,476.3,521.65
30.7482,480.44,514.32
30.7728,480.75,510.86
30.7932,479.6,507.89
30.8137,479.28,507.71
30.8341,480.43,510.17
30.8547,481.14,513.93
30.8751,481.11,518.35
30.8996,479.29,522.88
30.9202,479.43,526.7
30.9406,479.15,528.76
30.9611,477.72,531.61
30.9818,476.37,532.69
31.0062,476.3,532.95
31.0268,476.24,532.16
31.0471,475.59,530.73
31.0677,475.07,528.98
31.0881,473.66,520.39
31.1086,473.53,498.71
31.1331,471.82,470.37
31.1537,463.46,445.49
31.174,452.57,432.59
31.1947,441.85,429.48
31.2151,433.88,433.18
31.2396,430.51,439.34
31.2601,429.4,448.08
31.2807,430.52,457.46
31.3012,432.22,466.97
31.3217,434.18,474.97
31.342,437.54,482.38
31.3666,440.83,487.1
31.3872,444.27,490.08
31.4075,447.81,492.27
31.4281,452.45,493.21
31.4486,454.96,492.77
31.469,457.97,493.02
31.4936,461.17,493.21
31.514,462.74,495.37
31.5345,466.59,497.9
31.5551,468.47,501.92
31.5756,468.38,507.13
31.6001,470.1,512.71
31.6207,472.28,517.77
31.6411,473.63,523.41
31.6616,473.9,543.13
31.682,472.32,580.3
31.7024,473.86,619.04
31.727,484.09,640.23
31.7475,495.47,646.19
31.7682,504.97,643.75
31.7886,508.98,633.8
31.8089,510.58,619.64
31.8334,510.07,604.31
31.8539,510.05,590.85
31.8746,507.24,579.88
31.8951,504.99,571.1
31.9155,502,564.68
31.936,500,560.35
31.9606,496,557.88
31.9811,493.4,555.1
32.0016,493.32,554.08
32.022,495.25,551.47
32.0425,495,548.97
32.067,494,545.58
32.0875,493.2,541.66
32.108,491.56,536.93
32.1284,490.85,531.54
32.149,488.08,527.04
32.1693,486.46,522.63
32.1938,486.17,519.9
32.2144,484.34,517.72
32.2349,483.27,517.58
32.2553,483.02,518.06
32.276,484.01,520.65
32.2965,483.41,524.72
32.321,482.13,528.98
32.3414,480.3,532.98
32.362,480.44,535.98
32.3824,480.55,537.39
32.4028,479.84,538.51
32.4273,478.47,538.41
32.4478,476.58,537.73
32.4684,476.46,535.58
32.4889,475.57,532.06
32.5094,476.46,528.45
32.5298,476.97,524.56
32.5543,475.57,520.65
32.5748,474.06,518.92
32.5954,473.45,518.14
32.6159,475.76,519.51
32.6364,475.81,522.41
32.6609,475.64,525.73
32.6814,476.92,529.18
32.7019,477.53,533.14
32.7224,478.03,536.12
32.7428,477.02,537.09
32.7633,475.22,537.07
32.7879,474.77,537.06
32.8084,473.22,535.85
32.829,473.17,532.48
32.8493,472.14,528.38
32.8698,472.51,524.31
32.8942,473.61,522.24
32.9149,475.29,520.2
32.9353,476.43,518.16
32.9557,477.34,516.93
32.9762,477.08,517.14
32.9968,476.66,520.51
33.0212,476.93,523.61
33.0417,476.94,527.09
33.0622,476.75,530.67
33.0827,475.2,532.74
33.1032,473.96,534.79
33.128,474.97,535.03
33.1484,475.18,535.42
33.1689,477.54,533.34
33.1893,476.63,531.67
33.2097,474.71,528.14
33.2302,474.96,525.91
33.2547,474.37,522.73
33.2752,475.7,519.98
33.2957,474.76,518.59
33.3162,473.81,518.67
33.3367,473.05,520.54
33.3572,474.04,522.43
33.3817,474.63,526.14
33.4023,475.5,529.31
33.4227,475,532.65
33.4433,475.6,535.12
33.4637,475.48,538.1
33.4883,476.39,539.28
33.5089,476.11,541.22
33.5293,476.29,538.38
33.5497,474.63,529.7
33.5702,473.7,514.76
33.5908,469.76,496.81
33.6152,465.01,473.85
33.6357,458.01,450.28
33.6562,449.81,430.82
33.6768,444.85,416.06
33.6971,437.68,407.65
33.7216,433.94,405.12
33.7423,430.95,408.29
33.7627,431.56,414.63
33.7832,430.45,422.51
33.8037,428.96,429.41
33.824,431.17,437.33
33.8486,431.53,445.06
33.8693,433.23,450.65
33.8896,435.78,455.32
33.9101,438.63,460.45
33.9306,441.9,464.96
33.9551,446.12,467.17
33.9756,451.1,469.94
33.9961,456.48,473.15
34.0166,460.98,477.12
34.0371,464.39,482.7
34.0575,468.71,489.96
34.082,471.97,496.77
34.1026,475.17,504.61
34.1231,476.94,511.89
34.1435,477.75,533.91
34.1642,477.8,571.33
34.1886,482.04,616.06
34.209,490.43,654.05
34.2296,503.55,672.44
34.25,516.04,675.95
34.2706,526.83,669.76
34.2911,530.66,656.21
34.3156,531.53,639.97
34.3361,528.82,622.17
34.3565,524.26,605.94
34.377,519.81,592.15
34.3975,516.65,580.32
34.4179,513.12,570.86
34.4424,508.29,562.69
34.4631,506.43,558.35
34.4836,502.55,554.28
34.504,500.04,553.02
34.5245,495.83,554.42
34.5489,491.86,553.33
34.5695,489.69,550.87
34.59,486.75,547.89
34.6105,485.4,542.72
34.631,483.72,538.17
34.6515,481.98,534.14
34.676,480.58,528.91
34.6965,479.67,524.73
34.717,480.33,523.18
34.7375,479.67,521.95
34.758,478.33,522.76
34.7824,477.07,525.21
34.8029,479.85,529.36
34.8234,479.68,533.49
34.8439,479.15,536.79
34.8645,478.52,538.83
34.885,480.01,538.47
34.9094,480.01,536.97
34.9301,478.41,536.18
34.9504,477.33,534.34
34.9709,477.46,530.87
34.9913,476.57,527.3
35.016,476.86,523.44
35.0365,476.28,520.75
35.0569,476.63,518.6
35.0775,476.5,516.48
35.0979,477,516.38
35.1183,479.4,517.51
35.143,478.92,520.21
35.1635,478.34,525.17
35.184,478.87,528.33
35.2044,477.9,532.07
35.2248,476.12,534.45
35.2494,474.89,535.56
35.2699,472.71,536.65
35.2906,473.97,534.72
35.311,474.98,532.18
35.3313,474.98,529.34
35.3519,474.99,526.87
35.3763,475.19,522.1
35.397,474.55,517.88
35.4173,475.24,515.9
35.4378,474.99,514.72
35.4583,475.99,513.98
35.4788,475,515.78
35.5034,474.8,519.03
35.524,474.64,523.42
35.5443,475.51,527.54
35.5648,475.41,530.23
35.5854,475.93,531.98
35.6098,475.14,533.19
35.6304,473.31,534.15
35.6508,472.05,532.32
35.6713,469.24,529.26
35.6918,461.79,525.6
35.7122,455.23,522.08
35.7367,452.19,518.87
35.7573,452.35,515.69
35.7777,453.28,513.35
35.7983,454.42,513.28
35.8187,456.74,513.63
35.8434,457.79,515.9
35.8638,457.63,517.72
35.8843,458.31,518.98
35.9048,459.25,522.78
35.9252,453,524.63
35.9457,446,527.3
35.9702,443.2,528.64
35.9907,442.76,529.91
36.0113,443.41,529.73
36.0317,445.73,528.18
36.0523,446.38,525.15
36.0767,449.1,522.72
36.0973,452.68,520.17
36.1178,453.55,518.34
36.1383,455.84,516.87
36.1588,458.27,516.5
36.1793,459.82,517.4
36.2038,462.05,519.12
36.2244,463.44,522.49
36.2447,464.15,525.8
36.2653,465.92,529.64
36.2857,464.14,533.71
36.3101,465.51,536.77
36.3307,465.41,538.61
36.3512,465.53,538.09
36.3717,466.42,538.27
36.3921,471.14,536.42
36.4128,486.91,535.73
36.4371,505.33,532.99
36.4577,514.86,528.59
36.4782,521.29,523.67
36.4987,523.63,521.54
36.5191,524.51,520.43
36.5396,522,520.14
36.5642,519.6,522.52
36.5846,515.48,523.61
36.6051,512.79,527.29
36.6256,509.03,531.23
36.6462,503.62,534.59
36.6706,499.7,535.47
36.6912,495.16,536.17
36.7116,494.73,536.14
36.7323,494.38,535.51
36.7526,492.91,533.41
36.7732,490.32,529.53
36.7976,488.66,525.62
36.8181,488.33,522.3
36.8386,487.66,518.84
36.8591,484.93,516.87
36.8795,483.94,516.1
36.9042,483.96,517.08
36.9246,483.36,519.86
36.9451,482.69,523.69
36.9655,480.35,527.95
36.986,478.88,531.56
37.0066,477.71,535.45
37.031,478.16,537.76
37.0516,477.73,537.81
37.0721,477.59,538.25
37.0926,476.47,537
37.1132,477.37,534.4
37.1376,477.3,530.32
37.1581,476.04,523.45
37.1786,471.23,516.36
37.1991,454.19,511.29
37.2196,435.35,508.83
37.24,424.28,507.67
37.2646,419.42,508.73
37.2851,419.14,511.59
37.3055,418.91,516.07
37.326,421.13,521.06
37.3466,425.3,525.24
37.371,431.44,528
37.3915,434.95,529.6
37.4121,437.16,530.28
37.4325,439.33,529.62
37.453,442.66,529.1
37.4735,445.53,527.28
37.4979,447.83,524.62
37.5185,452.46,521.7
37.5389,454.77,519.76
37.5594,458.41,517.41
37.58,462.13,515.33
37.6045,463.11,515.46
37.6249,463.68,518.17
37.6454,463.35,525.13
37.666,464.88,528.91
37.6865,466.9,526.33
37.7069,469.72,516.46
37.7314,470.38,501.57
37.7519,471.9,481.25
37.7725,477.32,460.6
37.7929,482.86,442.68
37.8134,487.29,429.55
37.8339,490.63,418.84
37.8584,491.7,414.27
37.8789,494.36,412.62
37.8994,496.69,412.29
37.9199,496.95,416.63
37.9403,496.76,422.11
37.965,496.41,430.49
37.9855,498.73,438.99
38.006,499.98,448.39
38.0264,499.79,459.71
38.0469,498.03,470.37
38.0676,496.62,480.7
38.0919,496.5,489.36
38.1124,493.8,496.69
38.1331,491.64,502.35
38.1534,489.31,506.48
38.1738,487.45,508.78
38.1983,486.16,524.03
38.2189,483.53,559.62
38.2394,484.42,606.9
38.26,487.14,652.52
38.2804,492.71,683.81
38.3008,499.77,697.45
38.3253,506.21,697.76
38.3459,508.77,688.41
38.3663,509.02,676.13
38.3868,509.01,660.1
38.4074,506.81,644.28
38.4319,504.65,627.63
38.4523,501.12,612.5
38.4728,498.5,599
38.4933,495.8,584.2
38.5137,493.84,571.76
38.5344,490.87,560.01
38.5589,487.9,550.61
38.5795,486.32,541.89
38.5998,485.05,531.91
38.6203,484.24,525.53
38.6407,482.39,521.02
38.6612,481.72,518.42
38.6859,480.17,517.33
38.7063,480.14,516.87
38.7269,478.11,517.69
38.7472,474.89,520.55
38.7677,474.51,523.84
38.7923,474.01,527.68
38.8128,474.01,530.74
38.8334,473.81,532.59
38.8537,471.64,532.47
38.8742,470.72,531.78
38.8948,471.17,530.22
38.9192,471.34,526.98
38.9397,472.07,519.58
38.9602,470.86,512.87
38.9807,472.09,507.29
39.0012,473.07,505.23
39.0257,474.85,504.79
39.0463,476.68,505.23
39.0667,475.55,507.58
39.0873,476.84,511.47
39.1077,477.27,515.97
39.1281,474.82,521.18
39.1527,476.05,527.14
39.1733,473.84,531.31
39.1937,474.87,534.25
39.2142,475.1,536
39.2346,475.48,536
39.2591,476.78,533
39.2797,475.83,529.4
39.3002,473.46,525.52
39.3207,472.17,521.82
39.3411,472.54,518.45
39.3616,473.43,516.16
39.3862,472.54,514.73
39.4067,472.43,514.98
39.4272,471.15,518.39
39.4476,472.92,521.51
39.4681,474.73,523.81
39.4926,473.59,528.25
39.5133,471.27,531.2
39.5337,469.42,533.76
39.5542,469.73,535.01
39.5747,470.19,533.6
39.5952,469.75,532.68
39.6196,468.6,529.75
39.6401,468.08,527
39.6606,469.06,523
39.6813,470.45,519.2
39.7017,471.16,516.56
39.7221,469.73,515.25
39.7465,468.18,515
39.7671,466.35,515.8
39.7877,466.48,517.84
39.808,466.58,521.27
39.8286,467.67,525.82
39.8532,468.33,529.85
39.8737,468.07,533.88
39.8941,468.45,536.11
39.9146,468.16,536.48
39.9351,468.13,535.59
39.9556,469.5,533.67
39.98,470.6,531.14
40.0006,471.08,528.11
40.021,471.47,524.29
40.0416,469.57,518.43
40.062,469.46,516.74
40.0865,468.17,514.6
40.1072,466.33,513.88
40.1276,463.27,513.9
40.1481,458.61,515.12
40.1685,455.89,519.5
40.189,452.31,524.8
40.2136,450.25,529.64
40.2341,450,531.51
40.2546,450.6,531.61
40.275,451.88,532.09
40.2955,453.7,533.47
40.32,453.16,534.38
40.3405,461.13,533.1
40.361,472.9,528.88
40.3814,480.92,524.1
40.4019,485.74,518.48
40.4226,488.79,513.79
40.4469,490.43,509.03
40.4675,492.95,506.62
40.488,494.56,507.7
40.5085,494.45,509.96
40.529,493.96,514.57
40.5534,490.17,520.65
40.5739,488.33,525.72
40.5945,485.47,531.78
40.615,483.77,535.62
40.6354,481.62,536.1
40.6559,481.09,535.28
40.6804,480.08,533.62
40.7009,479.46,531.1
40.7214,478.77,528.28
40.7419,475.61,525.02
40.7626,473.29,520.42
40.7829,471.03,516.53
40.8075,470.23,514.83
40.8281,468.98,514.06
40.8484,468.59,514.85
40.8689,468.47,517.08
40.8894,466.97,520.86
40.9139,468.38,524.89
40.9344,467.5,528.91
40.9549,469.6,532.93
40.9754,470.68,536.34
40.9959,472.15,537.68
41.0163,473.92,535.74
41.0409,473.13,534.19
41.0614,475.51,532.75
41.0819,477.41,529.8
41.1023,477.32,527.24
41.1228,476.66,524.79
41.1473,477.33,522.64
41.1679,477.46,522.31
41.1884,476.57,521.45
41.2089,478.26,522.56
41.2293,481,525.85
41.2499,480.4,530.48
41.2744,478.32,535.18
41.2948,478.66,540.55
41.3155,480.73,544.44
41.3359,481.78,546.95
41.3563,483.43,547.76
41.3808,482.14,546.01
41.4013,479.91,543.41
41.4218,478.33,538.32
41.4423,477.06,533.26
41.4627,474.65,526.61
41.4833,474.92,520.09
41.5078,476.54,514.87
41.5283,475.23,512.3
41.5488,476.98,511.64
41.5692,479.79,512.51
41.5898,483.03,515.81
41.6143,484.22,519.65
41.6349,484.18,525.92
41.6554,487.34,531.53
41.6758,487.67,537.43
41.6963,486.74,542.94
41.7169,486.79,541.15
41.7413,486.83,533.52
41.7618,486.07,519.62
41.7823,483.45,501.49
41.8028,480.16,477.4
41.8233,477.73,454.92
41.8437,475.78,431.53
41.8682,474.83,411.03
41.8887,474.46,398.02
41.9092,475.57,390.22
41.9297,477.46,388.37
41.9501,479.76,390.5
41.9747,481.21,395.4
41.9952,479.57,403.72
42.0157,482.06,413.18
42.0362,484.84,423.14
42.0567,487.28,433.11
42.0772,490.62,440.89
42.1017,491.5,450.51
42.1222,490.8,454.61
42.1429,490.64,458.89
42.1632,491.31,462.91
42.1838,493.45,464.73
42.2081,495.36,466.78
42.2288,495.29,470.43
42.2492,496.63,474.94
42.2698,497.1,478.75
42.2902,497.08,486
42.3106,496.67,492.4
42.3352,495.73,506.72
42.3557,497.99,538.78
42.3762,497.39,588.62
42.3966,500.51,639.9
42.4172,506.01,683.92
42.4416,515.21,714.93
42.4622,526.37,723.75
42.4826,533.29,715.4
42.5031,536.03,694.92
42.5236,534.23,670.13
42.5441,530.98,642.11
42.5686,527.39,614.09
42.5893,522.31,589.47
42.6097,516.65,568.58
42.6301,511.92,551.06
42.6506,507.73,539.65
42.675,504.59,531.92
42.6955,500.67,528.13
42.7162,497.74,527.51
42.7367,495.99,527.41
42.7571,492.99,527.33
42.7775,488.79,527.46
42.8022,485.83,525.37
42.8227,484.47,524.09
42.8431,482.37,524.88
42.8635,479.3,525.1
42.884,481.84,522.08
42.9045,482.47,517.46
42.9292,482.98,511.57
42.9496,481.58,507.46
42.9702,481.87,506.37
42.9906,482.89,504.69
43.0111,481.71,506.15
43.0357,481.77,508.52
43.0562,481.82,512.42
43.0766,486.25,517.13
43.097,486.2,521.51
43.1177,484.16,525.21
43.1381,481.33,527.77
43.1625,480.86,528.21
43.1831,481.09,527.97
43.2035,483.07,525.78
43.224,483.66,523.22
43.2445,483.13,520.18
43.269,485.3,515.34
43.2894,488.24,511.07
43.31,489.59,508.26
43.3305,489.47,508.01
43.351,489.38,507.61
43.3714,489.7,509.28
43.396,491.96,512.03
43.4164,492.97,515.62
43.437,495.58,521.1
43.4576,496.86,525.28
43.478,496.89,529.42
43.5024,497.51,531.14
43.523,497.21,532.51
43.5435,496.77,531.61
43.5639,498.61,531.09
43.5844,498.09,528.27
43.6049,496.07,524.22
43.6294,494.86,519.37
43.6499,494.69,514.7
43.6705,494.95,510.76
43.6909,495.56,509.81
43.7115,496.85,508.85
43.7358,496.68,509.88
43.7564,499.34,513.5
43.7769,500.67,519.2
43.7974,502.14,524.56
43.8179,500.91,527.65
43.8383,502.53,531.32
43.8629,501.62,533.66
43.8834,501.9,533.12
43.9039,501.12,531.7
43.9244,501.3,529.16
43.945,500.24,526.13
43.9693,500.39,523.3
43.9898,500.31,518.24
44.0104,501.65,512.99
44.031,495.32,508.99
44.0513,486.06,507.8
44.0719,479.24,507.24
44.0963,475,509.59
44.1169,473.4,513.27
44.1376,472.32,517.02
44.1578,472.85,522.01
44.1783,474.28,527.21
44.1989,476.43,529.97
44.2233,478.34,531.78
44.2439,479.67,531.82
44.2645,480.14,530.06
44.2848,482.31,527.04
44.3053,484.25,523.64
44.3297,485.4,521.11
44.3504,483.52,519.29
44.3708,491.22,515.03
44.3913,500.37,511.82
44.4118,508.3,510.86
44.4322,512.44,511.29
44.4569,512.15,513.03
44.4773,511.92,516.62
44.4978,511.14,521.9
44.5182,511.11,526.52
44.5388,509.29,530.42
44.5634,506.83,534.13
44.5839,505.06,535.71
44.6045,503.65,536.16
44.6248,502.72,536.33
44.6453,501.58,534.27
44.6658,501.86,530.41
44.6904,499.89,525.93
44.7108,498.51,519.54
44.7313,499.41,514.64
44.7518,501.93,511.71
44.7722,503.54,509.77
44.7967,503.43,508.81
44.8172,503.75,511.85
44.8378,501.6,515.68
44.8582,503.08,521.14
44.8787,502.26,525.52
44.8991,499.81,529.21
44.9237,497.05,532.57
44.9443,496.24,534.66
44.9647,495.99,535.52
44.9853,494.99,534.22
45.0057,494.19,531.38
45.0302,493.76,526.9
45.0509,494.4,523.52
45.0714,493.92,518.22
45.0917,494.74,513.57
45.1123,495.99,510.26
45.1329,498.59,508.81
45.1572,499.27,509.05
45.1777,498.82,511.24
45.1982,498.26,514.99
45.2187,498.8,520.19
45.2393,498.44,524.15
45.2597,497.55,528.32
45.2841,496.84,532.26
45.3048,497.48,534.61
45.3254,496.98,536.49
45.3457,495.78,536.59
45.3661,495.23,534.67
45.3907,494.18,534.54
45.4111,493.15,535.63
45.4317,492.32,529.5
45.4524,493.45,516
45.4726,495.96,496.8
45.4931,495.17,476.04
45.5178,492.34,455.43
45.5381,487.87,435.35
45.5588,482.5,419.28
45.5791,477.8,408.22
45.5996,475.24,402.78
45.6241,473.79,403.62
45.6446,472.63,407.1
45.6651,468.71,411.48
45.6858,468.36,416.98
45.7062,466.89,424.39
45.7266,467.71,431.11
45.751,468.37,436.49
45.7716,469.5,440.59
45.7922,467.4,443.87
45.8126,469.12,447.1
45.833,472.09,452.48
45.8575,473.48,458.98
45.8781,476.18,465.39
45.8988,478.74,473.51
45.9193,480.8,482.01
45.9396,485.04,491.41
45.96,487.23,500.32
45.9845,488.58,507.86
46.0051,490.67,523.69
46.0256,490.73,556.75
46.046,493.39,601.6
46.0666,497.71,647.08
46.087,503.77,675.26
46.1115,514.01,683.01
46.132,522.21,678.81
46.1525,526.77,666.45
46.1729,528.82,648.56
46.1935,528.45,629.65
46.218,529.16,612.52
46.2386,527.53,596.61
46.2592,524.42,584.09
46.2797,521.34,574.27
46.3,517.67,567.22
46.3204,514.94,561.97
46.345,511.35,558.78
46.3655,509.28,554.42
46.386,506.62,551.34
46.4066,505.5,548.47
46.4269,502,546.18
46.4514,497.4,543.74
46.4722,496.92,538.99
46.4926,497.14,533.59
46.513,497.71,525.08
46.5335,497.77,519.46
46.5539,498.61,516.17
46.5785,499.89,514.33
46.5991,500.51,514.47
46.6195,499.01,515.37
46.64,498.81,519.7
46.6605,497.25,524.16
46.685,497.6,528.13
46.7054,497.08,533.1
46.726,494.86,536.28
46.7464,494.69,538.23
46.7671,493.95,538.18
46.7875,491.76,536.14
46.8119,490.81,532.72
46.8325,490.85,528.97
46.8529,489.68,524.98
46.8735,488.34,520.58
46.894,489.87,515.87
46.9184,491.9,512.69
46.9389,492.52,511.55
46.9595,493.42,511.84
46.9799,493.73,514.07
47.0003,494.39,517.06
47.0209,494.11,522.25
47.0454,493.89,526.8
47.0658,492.91,529.24
47.0865,489.73,530.99
47.1069,487.58,531.99
47.1273,483.07,532.39
47.1478,479.45,531.32
47.1723,479.16,529.65
47.1928,480.13,526.12
47.2134,481.1,521.7
47.2339,483.28,517.56
47.2543,483.03,515.05
47.2789,483.22,512.24
47.2993,483.78,510.59
47.3199,485.82,511.07
47.3403,486.46,513.26
47.3608,487.77,516.81
47.3814,489.61,521.64
47.4058,490.09,526.52
47.4264,491.27,531.81
47.4469,491.42,535.05
47.4674,490.73,536.24
47.4878,490.99,535.59
47.5124,489.19,533.87
47.5328,488.95,530.5
47.5532,489.76,527
47.5738,490.21,523.4
47.5942,488.97,519.32
47.6149,489.57,515.86
47.6393,490.66,513.28
47.6598,490.13,513.43
47.6804,492.1,513.94
47.7008,498.48,515.95
47.7213,503.79,519.76
47.7459,505.43,525.41
47.7663,507.34,529.33
47.7869,506.07,532.86
47.8073,505.86,535.49
47.8279,505.89,535.99
47.8482,505.11,535.79
47.8727,504.49,535.03
47.8933,502.59,531.83
47.9137,502.07,526.86
47.9342,500.86,523.49
47.9547,500.29,518.59
47.9793,500.03,514.07
47.9998,499.22,511.66
48.0204,499.58,510.73
48.0407,498.86,511.78
48.0612,497.09,514.03
48.0817,495.07,518.22
48.1063,494.86,522.58
48.1267,494.69,527.26
48.1471,493.35,530.21
48.1677,492.88,533.17
48.1881,491.9,532.93
48.2086,492.52,532.35
48.2332,491.42,531.08
48.2538,491.73,528.06
48.2742,491.79,523.45
48.2947,491.83,519.56
48.3153,493.06,515.65
48.3397,492.85,511.32
48.3601,492.68,508.85
48.3807,493.14,508.68
48.4012,492.52,509.55
48.4217,493.41,512.24
48.4421,496.73,516.99
48.4666,498.78,521.79
48.4871,500.43,526.63
48.5078,503.14,530.71
48.5282,503.51,532.97
48.5485,502.61,534.77
48.5731,502.29,534.62
48.5938,501.03,533.49
48.6144,501.02,531
48.6347,500.42,528.4
48.6551,498.74,525.92
48.6756,497.19,524.73
48.7001,496.55,520.59
48.7207,495.84,514.27
48.7413,493.87,505.42
48.7616,491.9,493.13
48.782,486.52,478.71
48.8066,481.61,463.96
48.8272,475.09,450.17
48.8475,470.27,438.74
48.868,466.82,430.19
48.8885,463.46,423.95
48.909,463.36,420.56
48.9335,462.09,419.25
48.9542,461.47,420.2
48.9746,461.18,420.76
48.9951,462.54,421.61
49.0155,463.43,423.49
49.04,464.95,425.59
49.0605,464.96,428.47
49.081,466.57,432.38
49.1015,469.05,437.9
49.122,472.24,445.32
49.1425,475.39,454.06
49.167,478.72,463.65
49.1876,480.97,474.52
49.208,483.78,484.41
49.2285,484.82,494.73
49.2492,488.26,503.78
49.2696,489.61,510.23
49.294,490.28,514.58
49.3146,490.63,516.87
49.335,491.1,517.89
49.3555,491.48,529.71
49.3759,492.19,560.57
49.4004,493.35,600.86
49.4209,498.08,641.09
49.4414,504.26,668.87
49.4619,513.01,678.89
49.4824,525.41,677.12
49.5029,531.53,668.69
49.5274,535.22,656.95
49.5479,535.98,643.56
49.5684,534.18,630.25
49.5889,531.95,617.6
49.6094,527.76,603.88
49.6339,523.8,591.3
49.6544,520.04,579.64
49.6749,517.64,567.91
49.6954,515.31,556.53
49.7158,511.25,546.83
49.7365,509.6,537.06
49.7609,506.88,528.05
49.7815,504.7,521.04
49.8019,502.76,516.03
49.8224,500.81,512.62
49.843,500.45,511.9
49.8673,498.76,514.12
49.8879,499.21,517.1
49.9085,499.17,520.88
49.9289,500.93,525.5
49.9494,500.35,528.8
49.9699,498.48,532.24
49.9943,496.18,533.79
50.0149,494.15,533.43
50.0353,493.52,531.15
50.0558,493.41,527.32
50.0763,493.53,523.25
50.1009,493.62,519.6
50.1214,493.9,515.48
50.1419,493.72,511.19
50.1624,493.78,507.35
50.1828,494.22,506.88
50.2032,495.18,507.9
50.2277,494.74,510.52
50.2483,494.39,515.62
50.2688,493.31,520.69
50.2894,494.85,525.16
50.3098,494.48,528.92
50.3302,493.98,531.94
50.3548,489.59,533.35
50.3753,481.07,532.08
50.3957,475.26,530.07
50.4163,471.81,527.25
50.4368,469.84,523
50.4612,468.88,519.6
50.4819,469.1,515.08
50.5025,471.08,511.86
50.5229,471.86,508.49
50.5434,474.09,507.39
50.5639,476.87,509.71
50.5883,478.5,512.77
50.6088,480.6,517.22
50.6293,481.68,521.97
50.6497,481.14,527.38
50.6702,483.11,531.3
50.6947,484.89,534.04
50.7152,485.31,534.83
50.7357,485.85,534.67
50.7564,491.08,533.53
50.7767,500.86,530.63
50.7972,505.89,527.1
50.8217,509.91,522.28
50.8423,512.13,517.83
50.8629,512.9,514.06
50.8832,513.12,511.85
50.9039,511.3,510.28
50.9281,511.24,509.82
50.9487,509.19,512.06
50.9692,508.15,516.85
50.9899,505.72,521.08
51.0102,502.58,526.06
51.0311,500.06,529.45
51.0551,499.85,532.76
51.0757,498.08,533.81
51.0962,497.26,530.45
51.1167,496.41,525.36
51.1372,495.33,520.49
51.1577,495.46,515.59
51.1823,494.77,511.47
51.2028,494.82,506.38
51.2231,492.25,503.5
51.2437,492.8,502.2
51.2641,492.84,501.96
51.2887,492.27,504.17
51.3091,492.82,507.53
51.3297,495.66,512.03
51.3504,495.92,517.82
51.3708,495.74,523.46
51.3912,495.19,527.97
51.4156,495.55,530.97
51.4362,495.84,532.38
51.4566,495.47,533.1
51.4771,494.58,531.68
51.4976,492.06,528.35
51.522,493.05,523.68
51.5427,492.04,520.34
51.5632,492.83,516.47
51.5837,492.47,512.38
51.604,492.77,510.1
51.6246,491.62,509.28
51.6492,493.29,510.63
51.6696,493.04,514.5
51.6902,494.23,518.4
51.7107,495.98,523.32
51.731,499.79,527.86
51.7556,501.43,531.29
51.7761,500.94,533.83
51.7965,500.95,534.46
51.8172,499.76,534.37
51.8375,498.61,533.1
51.8582,495.89,530.08
51.8825,495.71,525.46
51.9031,493.77,521.37
51.9235,491.82,519.3
51.9441,492.45,515.64
51.9646,492.96,506.11
51.9851,493.97,488.09
52.0096,492.58,466.47
52.0302,490.86,446.18
52.0506,488.49,428.54
52.071,484.59,416.43
52.0915,480.87,410.15
52.116,475.7,408.52
52.1365,472.36,409.41
52.157,469.69,413.13
52.1774,468.95,420.7
52.198,469.56,427.16
52.2185,467.45,431.73
52.243,467.76,436.18
52.2637,468.61,442.35
52.284,470.49,448.68
52.3045,470.79,454.14
52.325,472.83,460.91
52.3496,475.86,469.33
52.37,476.49,477.47
52.3906,479.99,497.57
52.4111,482.59,541.06
52.4314,481.48,600.65
52.452,477.98,663.92
52.4765,475.58,711.73
52.4969,473.07,735.39
52.5174,467.05,736.71
52.5378,466.64,720.57
52.5584,468.91,696.45
52.5828,473.13,667.56
52.6034,477.91,635.45
52.6239,482.52,604.76
52.6444,484.82,576.41
52.6648,487.66,551.33
52.6853,489.72,529.86
52.7098,492.38,515.49
52.7304,492.9,506.59
52.7508,494.92,505.27
52.7713,495.14,507.42
52.7918,499.31,509.13
52.8163,500.65,511.31
52.8368,502.12,513.05
52.8574,501.1,515.24
52.8778,500.28,516.59
52.8983,499.82,518.07
52.9189,499.86,514.66
52.9435,497.89,510.73
52.9638,498.11,506.38
52.9843,500.69,503.1
53.0048,501.75,500.28
53.0253,500,497.23
53.0458,495.6,495.58
53.0703,494.28,497.67
53.0908,494.82,497.33
53.1113,495.46,500.67
53.1318,492.77,507.13
53.1522,489.21,514.11
53.1768,489.57,519.88
53.1973,487.06,524.91
53.2178,484.65,528.53
53.2383,482.72,529.22
53.2587,481.57,527.78
53.2792,479.66,526.02
53.3037,479.53,524.02
53.3243,481.02,520.01
53.3448,481.82,517.81
53.3652,482.85,513.65
53.3858,483.68,509.92
53.4102,486.35,508.54
53.4307,489.08,509.63
53.4512,491.86,512.7
53.4719,492.49,516.36
53.4922,491.19,520.89
53.5127,491.35,526.91
53.5373,490.28,532.13
53.5578,490.23,535.3
53.5782,491.38,538.84
53.5987,491.9,539.67
53.6192,493.52,538.54
53.6438,495.62,536.63
53.6642,495.3,532.71
53.6847,494.24,528.56
53.7052,493.19,524.85
53.7261,492.75,519.68
53.7464,491.4,514.54
53.7709,491.92,512.44
53.7913,491.74,513.35
53.8117,493.59,515.08
53.8321,493.07,517.46
53.8529,493.06,519.97
53.8772,494.25,523.38
53.8979,494.8,527.5
53.9183,496.04,531
53.9388,495.43,532.6
53.9591,495.14,534.08
53.9796,493.92,533.86
54.0042,494.73,532.29
54.0247,495.59,528.83
54.0451,495.07,523.67
54.0658,494.65,517.93
54.0862,494.72,513.55
54.1067,495.58,509.84
54.1312,496.06,508.27
54.1516,495.85,507.02
54.1721,495.48,508.01
54.1926,494.58,510.61
54.2131,494.27,515.49
54.2376,494.01,520.99
54.2581,492.81,524.99
54.2786,490.65,528.79
54.2992,490.72,531.04
54.3196,491.18,532.23
54.3401,491.54,532.38
54.3646,491.63,529.51
54.3852,492.51,522
54.4056,496,515.4
54.4261,511.2,509.12
54.4466,526.36,503.1
54.4712,535.09,498.48
54.4916,539.27,496.58
54.5122,539.22,496.07
54.5326,538.57,498.05
54.5531,535.86,502.24
54.5735,532.29,507.99
54.5982,528.43,512.8
54.6186,525.94,518.64
54.6391,520.96,524.11
54.6596,519.36,3.6172e-29
54.6801,516.89,9.59889e-43
