Program Time [s],data 0,data 1
3.03414,508.8,516.18
3.03415,509.44,521.54
3.03416,513.85,511.88
3.03417,507.93,508.3
3.03418,506.15,506.04
3.03419,508.32,505.63
3.0342,509.85,506.91
3.03421,508.68,511.73
3.03422,508.75,516.18
3.03423,508.8,521.54
3.03424,509.44,511.2
4.5489,514,509.56
4.56945,512.2,509.05
4.59387,511.76,508.44
4.61441,513.21,509.75
4.6349,512.57,512.2
4.65542,512.65,515.36
4.67585,512.92,519.49
4.70035,511.94,525.99
4.72093,510.75,529.79
4.74144,510.6,531.63
4.76192,510.28,531.91
4.78238,508.82,530.93
4.80282,509.46,531.14
4.82738,507.17,530.71
4.84786,505.93,526.37
4.86845,505.35,523.9
4.88886,508.08,518.12
4.90935,507.26,516.89
4.92983,506.21,514.31
4.95433,507.17,513.85
4.97489,506.13,513.88
4.99536,507.31,516.51
5.01582,509.05,520.4
5.03632,510.24,523.52
5.06083,509.59,527.42
5.08141,509.87,532.93
5.10186,510.9,535.15
5.12228,511.32,536.32
5.14278,510.65,536.65
5.16328,511.72,536.32
5.18781,510.98,534.06
5.20837,509.58,532.05
5.22888,510.07,529.64
5.24928,509.85,526.51
5.26984,508.68,527.01
5.29424,508.55,525.61
5.31484,509.44,516.69
5.33529,508.95,503.15
5.35578,507.76,488.92
5.3763,507.81,471.73
5.39674,505.45,456.19
5.42134,503.56,442.95
5.44183,502.65,432.96
5.46239,500.92,427.97
5.48274,498.13,427.17
5.50338,498.11,427.14
5.52783,498.89,429.71
5.54829,501.31,434.77
5.5689,499.65,440.02
5.58922,499.72,445.01
5.60972,500.37,450.81
5.6302,501.1,458.05
5.65472,501.28,463.04
5.67525,502.02,469.43
5.69576,503.02,491.94
5.7162,504.42,531.36
5.73669,506.53,576.28
5.7572,508.43,617.23
5.78169,509.94,644.38
5.80222,513.15,655.71
5.8228,514.92,655.96
5.84321,517.14,649.37
5.86366,518.31,635.5
5.88818,516.85,620.8
5.90877,513.88,604.24
5.9292,513.5,588.79
5.94968,513.6,574.23
5.97014,513.08,559.59
5.99066,511.67,546.87
6.01517,514.33,536.1
6.03575,514.27,530.88
6.05619,514.81,527.7
6.07664,514.25,526.16
6.09717,514.6,527.33
6.12161,514.48,528.86
6.14215,515.78,530.69
6.16266,515.43,534.15
6.18312,514.14,535.92
6.20368,510.51,535.74
6.22417,509.41,535.59
6.24867,509.73,534.47
6.2692,509.18,532.58
6.28979,507.95,526.46
6.31017,505.36,520.97
6.33058,508.09,517.18
6.35511,509.27,513.14
6.3757,511.21,511.71
6.39622,512.57,511.57
6.41666,512.86,511.26
6.43713,515.29,514.2
6.45758,515.03,516.96
6.48213,513.02,520.57
6.50259,512.22,524.26
6.52312,511.77,528.81
6.54366,511.42,532.04
6.56412,509.74,533.64
6.58851,508.19,534.11
6.6091,508.75,531.69
6.62965,508.2,527.35
6.65016,508.16,523.28
6.6707,508.73,519.42
6.69104,508.78,515.14
6.7155,507.23,511.31
6.7361,505.98,509.45
6.75658,506.98,509.36
6.77711,507.99,511.49
6.79753,508.59,514.59
6.82196,510.07,517.07
6.84253,509.46,522.46
6.86322,509.77,526.77
6.88354,508.21,531.01
6.90412,509.37,532.61
6.92445,507.3,534.29
6.94903,507.84,533.03
6.96948,505.87,530.42
6.99,508.1,529.34
7.01052,506.88,525.07
7.03098,506.5,521.66
7.05144,504.6,516.33
7.076,503.88,513.46
7.09652,504.1,511.37
7.117,504.48,512.49
7.13753,505.59,514
7.15798,504.67,516.2
7.18244,504.14,520.36
7.20298,505.91,524.69
7.22357,506.33,529.55
7.24392,507.86,531.84
7.26447,505.69,533.87
7.2849,499.15,535.9
7.30945,495.32,535.72
7.32995,492.26,533.97
7.35043,492.21,530.38
7.371,494.16,527.5
7.3914,495.33,524
7.41592,495.27,520.6
7.43645,497.21,517.08
7.45704,499.97,515.07
7.47748,498.98,514.25
7.49794,499.98,515.2
7.51839,504.18,518.56
7.543,504.15,521.45
7.56346,510.72,525.96
7.58404,514.97,530.97
7.60441,518.38,534.37
7.62493,520.1,536.1
7.64939,520.48,536.48
7.66992,517.59,534.98
7.69042,517.67,533.59
7.71094,516.34,529.87
7.73138,514.87,526.3
7.75189,513.49,522.64
7.77645,511.4,517.11
7.7969,510.72,513.49
7.81745,508.97,511.19
7.83797,509.58,510.75
7.85832,510.06,513.8
7.88282,507.25,517.24
7.90338,508.4,514.19
7.92392,508.52,505.15
7.94443,509.42,490.72
7.96486,509.53,474.18
7.98537,510.43,458.94
8.00985,507.34,445.55
8.03039,508.67,436.44
8.05091,507.34,431.95
8.07144,507.07,430.56
8.09191,507.86,431.65
8.11228,509.29,434.12
8.13686,506.83,436.7
8.15735,508.46,440.56
8.1778,509.17,446.05
8.19831,508.14,452.64
8.21878,508.31,460.31
8.24326,508.85,470.45
8.26386,508.68,496.76
8.28439,510.14,539.41
8.3049,512.91,581.73
8.32529,516.73,608.78
8.34582,518.78,622.22
8.37027,521.43,624.98
8.39084,522.74,620.18
8.41128,522.19,610.75
8.43183,520.96,599
8.45224,518.76,587.6
8.47684,517.61,574.68
8.49727,517.29,562.34
8.51782,515.63,552.07
8.53826,512.3,544.26
8.55872,510.44,540.01
8.5792,509.76,536.01
8.6038,510.4,535.6
8.62426,511.52,535.88
8.64479,508.22,537.31
8.66523,507.77,539.05
8.6857,507.62,540.04
8.71022,508.5,540.23
8.73082,507.6,539.58
8.75123,507.48,537.67
8.7717,507.18,534.33
8.79228,508.35,529.27
8.81273,509.68,524.21
8.83723,509.54,518.17
8.85773,509.63,513.54
8.87822,508.71,510.83
8.89873,506.97,512.86
8.91917,507.37,515.49
8.94371,507.7,518.59
8.96418,509.96,522.87
8.98476,511.97,526.7
9.00537,512.57,529.16
9.02584,511.46,532.93
9.04616,512.97,534.94
9.07067,512.57,535.55
9.09117,512.86,535.44
9.11175,511.69,535.35
9.13216,510.95,531.88
9.15268,509.96,529.11
9.1731,510.97,523.89
9.19767,509.57,518.91
9.21819,508.66,515.93
9.23863,508.33,512.34
9.25916,508.66,510.67
9.27975,507.93,511.74
9.30417,507.54,511.79
9.32469,509.04,515.23
9.34521,510.43,520.39
9.36565,511.14,524.11
9.38618,509.91,528.69
9.40657,508.73,530.75
9.43113,510.38,533
9.45161,510.91,532.4
9.47214,510.13,530.92
9.49263,506.9,529.94
9.51315,505.72,525.55
9.53758,506.18,521.24
9.55813,507.14,517.39
9.5787,506.51,514.11
9.59914,504.41,511.29
9.61959,502.93,509.63
9.64016,505.34,510.11
9.66454,505.07,512.28
9.68513,504.26,516.23
9.70561,506.41,519.78
9.72611,508.13,523.63
9.74652,509.7,528.1
9.77106,507.56,531.48
9.79159,506.05,532.58
9.81227,507.04,534.87
9.83254,505.83,534.29
9.85309,509.06,532.44
9.8735,510.25,528.95
9.89812,512.2,524.76
9.91859,512.96,521.61
9.93903,512.57,517.29
9.95951,512.66,514.03
9.97998,511.12,511.62
10.0045,510.3,511.7
10.025,509.24,513.96
10.0457,509.39,517.77
10.0661,510.11,521.01
10.0866,510.69,525.61
10.107,511.55,530.09
10.1316,512.64,531.67
10.1521,513.11,532.54
10.1725,517.89,532.23
10.193,522.31,531.18
10.2134,525.85,529.55
10.238,526.68,526.04
10.2585,526.34,522.63
10.2791,524.68,518.1
10.2995,523.74,514.08
10.32,523.19,510.87
10.3404,522.55,509.49
10.3649,521.84,508.79
10.3856,521.07,510.24
10.406,517.86,512.99
10.4264,517.49,517.39
10.447,514.99,521.91
10.4675,515.59,525.73
10.492,513.87,529.78
10.5126,512.3,530.83
10.5331,510.24,530.06
10.5534,510.39,528.85
10.5739,511.91,525.68
10.5985,512.13,522.54
10.619,510.1,519.44
10.6395,508.88,515.95
10.66,508.51,512.96
10.6804,507.01,510.37
10.7009,508,509.49
10.7255,507.2,509.79
10.746,507.16,512.44
10.7665,506.93,516.55
10.787,507.54,521.44
10.8075,507.64,526.15
10.8319,508.11,530.92
10.8524,508.89,533.94
10.8729,507.11,534.95
10.8934,506.89,535.36
10.9139,506.31,533.89
10.9343,504.65,530.51
10.9589,505.12,526.41
10.9794,505.09,522.13
11,504.08,518.1
11.0205,505.46,514.68
11.041,505.17,513.14
11.0653,505.53,512.72
11.086,505.83,515.97
11.1064,506.86,521.38
11.1269,508.49,523.3
11.1473,505.79,520.04
11.1678,501.83,509.23
11.1924,498.07,493.99
11.213,495.85,475.99
11.2334,492.68,459.19
11.2538,486.95,446.15
11.2743,483.76,439.12
11.2989,481.81,435.7
11.3195,481.84,434.96
11.34,482.68,436.57
11.3604,485.14,439.65
11.381,486.31,443.72
11.4014,488.05,449.18
11.4259,490.04,455.14
11.4463,492.83,461.71
11.4668,495.07,469.17
11.4872,494.65,478.34
11.5078,494.72,500.87
11.5282,497.98,538.5
11.5527,502.18,577.6
11.5733,511.35,603.48
11.5937,524.88,614.58
11.6142,535.7,617.27
11.6347,538.16,613.21
11.6592,540.33,604.57
11.6798,540.86,594.06
11.7002,539.09,584.04
11.7208,536.87,571.24
11.7413,534.7,560.19
11.7617,531.56,550.95
11.7862,528.05,544.16
11.8068,526.44,538.53
11.8272,523.75,536.62
11.8477,522.2,535.9
11.8682,520.16,536.72
11.8927,522.33,539.77
11.9132,525.86,541.02
11.9338,527.49,541.42
11.9542,528.19,542.13
11.9748,528.35,540.91
11.9954,527.08,538.52
12.0198,524.47,534.62
12.0403,523.17,530.3
12.0608,523.94,525.64
12.0812,520.35,520.91
12.1017,518.68,515.93
12.1262,516.34,512.54
12.1466,514.28,512.23
12.1671,515.42,512.39
12.1877,513.54,513.71
12.2082,512.63,517.17
12.2287,511.9,521.93
12.2532,512.12,525.55
12.2737,511.3,528.64
12.2941,512.04,531.71
12.3147,511.83,532.37
12.3352,510.86,532.29
12.3597,509.69,530.64
12.3801,509.75,527.31
12.4007,507.8,523.85
12.4213,508.64,520.68
12.4417,508.31,516.14
12.4621,508.25,512.51
12.4866,508,509.01
12.5072,508.4,507.61
12.5278,508.92,509.09
12.5483,507.34,510.47
12.5687,506.47,514.58
12.589,506.98,519.06
12.6138,506.38,522.25
12.6342,508.3,526.6
12.6546,508.84,529.68
12.6751,508.27,530.54
12.6956,505.22,531.63
12.72,504.58,529.91
12.7407,504.06,527.13
12.7611,503.45,524.1
12.7815,501.36,520.28
12.802,501.89,516.62
12.8225,502.31,513.9
12.8472,502.65,511.72
12.8676,501.92,510.38
12.8881,501.33,511.5
12.9086,502.07,514.6
12.9291,501.85,517.88
12.9537,501.68,522.3
12.9741,503.55,526.84
12.9946,505.04,530.27
13.0151,505.23,532.42
13.0356,503.18,532.74
13.0561,503.75,532.39
13.0806,505,531.91
13.1011,506.8,529.13
13.1216,507.64,525.5
13.142,508.31,521.6
13.1628,508.25,517.88
13.1871,508,514.11
13.2076,506.2,511.28
13.2282,507.16,510.03
13.2485,507.73,513.22
13.2691,509.58,514.38
13.2895,510.07,517.7
13.314,509.85,520.96
13.3346,508.28,525.37
13.355,508.43,529.9
13.3755,509.14,533.52
13.396,507.51,534.81
13.4204,507.61,533.65
13.4409,508.09,531.32
13.4616,508.87,528.66
13.482,509.1,525.13
13.5024,509.08,522.7
13.5229,508.86,518.96
13.5476,507.89,515.77
13.568,508.91,513.61
13.5885,507.53,511.89
13.6089,508.42,513.11
13.6294,510.74,515.49
13.6499,511.19,519.19
13.6744,510.95,522.95
13.6951,511.56,530.16
13.7156,511.05,535.33
13.736,511.64,540.46
13.7566,510.31,540.57
13.781,507.85,533.06
13.8014,506.88,520.85
13.822,503.5,501.68
13.8426,499.2,480.54
13.8631,495.56,461.03
13.8835,493.25,445.43
13.9078,493,436.34
13.9284,489.6,433.27
13.9489,489.08,433.02
13.9694,487.86,438.01
13.99,487.89,445.61
14.0144,489.51,455.89
14.0348,490.81,466.11
14.0554,491.85,473.29
14.0759,494.08,476.23
14.0964,493.86,478.99
14.1168,490.89,481.99
14.1414,490.91,484.79
14.1619,491.13,487.43
14.1824,491.7,488.95
14.203,491.16,490.36
14.2235,492.13,490.69
14.2478,493.3,489.75
14.2684,496.24,490.2
14.2888,496.19,491.56
14.3093,498.76,499.45
14.3298,500.4,525.56
14.3503,508.92,559.45
14.3748,523.74,587.96
14.3954,538.39,605.17
14.416,548.71,613.13
14.4364,553.37,616.71
14.4569,553.7,612.56
14.4774,553.36,604.85
14.5019,550.29,597.28
14.5225,545.23,589.43
14.5429,541.78,579.14
14.5633,542.23,568.51
14.5839,538.38,556.81
14.6083,532.5,545.85
14.6288,526.2,536.48
14.6493,522.76,531.58
14.6699,520.21,529.07
14.6903,518.97,528.45
14.7107,520.17,530.36
14.7354,518.34,532.49
14.7557,515.07,536.19
14.7764,513.46,536.95
14.7967,510.37,540.56
14.8172,511.29,541.25
14.8417,510.43,541.8
14.8622,511.55,541.04
14.883,514.64,537.43
14.9032,515.91,532.75
14.9237,515.53,527.6
14.9443,515.22,523.68
14.9688,514.78,520.94
14.9892,514.82,517.15
15.0098,515.46,515.12
15.0302,515.77,512.1
15.0509,515.21,511.88
15.0752,514.17,514.3
15.0957,515.14,518.64
15.1163,515.31,523.11
15.1367,515.05,528.09
15.1572,511.04,532.27
15.1776,508.43,534.42
15.2022,507.94,537.13
15.2226,507.56,536.11
15.2433,506.64,534.69
15.2638,505.32,531.75
15.2842,504.85,528.6
15.3087,505.28,525.28
15.3292,505.03,521.42
15.3497,508.62,517.14
15.3703,509.5,514.71
15.3906,508.8,513.17
15.4113,508.44,513.74
15.4357,509.75,516.19
15.4562,510.2,518.55
15.4769,508.56,522.64
15.4972,507.05,527.71
15.5176,510.24,531.97
15.5421,512.19,532.98
15.5626,512.75,531.98
15.5832,512.8,531.38
15.6037,512.64,529.51
15.6242,513.31,525.01
15.6447,513.25,520.6
15.6691,513.2,517.08
15.6897,512.76,513.27
15.7102,510.61,510.41
15.7306,510.29,509.73
15.751,509.23,509.18
15.7756,509.58,510.15
15.796,510.67,512.12
15.8165,510.53,516.49
15.8371,510.23,521
15.8576,509.98,525
15.8784,510.99,528.8
15.9027,509.99,530.84
15.9231,509.79,530.87
15.9436,509.43,531.1
15.9642,508.75,529.28
15.9847,509.8,526.02
16.0051,509.44,521.62
16.0298,509.55,517.89
16.0502,508.84,514.12
16.0705,507.47,511.09
16.0912,506.38,509.07
16.1114,506.7,509.06
16.136,505.56,510.45
16.1565,507.85,513.16
16.177,508.48,517.53
16.1975,509.78,520.82
16.2181,511.23,524.86
16.2386,510.78,528.49
16.2631,510.23,530.59
16.2836,509.58,531.47
16.3043,509.66,530.78
16.3245,510.13,529.62
16.345,509.91,526.1
16.3695,510.12,522.08
16.39,510.3,518.46
16.4106,510.84,513.57
16.4311,510.67,510.26
16.4514,510.14,509.8
16.472,510.71,510.44
16.4965,511.57,512.76
16.5171,511.25,518.6
16.5375,510.6,524.88
16.5583,510.68,528.31
16.5786,509.55,526.85
16.6029,507.84,519.68
16.6235,503.87,507.34
16.6439,497.3,490.27
16.6645,490.84,472.42
16.6849,484.67,455.33
16.7054,482.34,439.07
16.73,478.87,427.25
16.7505,475.89,420.8
16.771,477.52,418.64
16.7915,478.41,421.31
16.8121,480.53,426.25
16.8363,483.62,432.6
16.8569,486.5,443.48
16.8775,490,453.58
16.8979,492.4,465.27
16.9184,494.72,477.61
16.9388,494.98,488.49
16.9634,496.18,497.79
16.9839,498.94,505.23
17.0043,499.96,520.19
17.0248,500.56,546.55
17.0453,504.25,576.44
17.0658,512.4,603.35
17.0904,523.72,620.88
17.1109,534.38,628.71
17.1314,541.5,624.76
17.1519,545.8,617.41
17.1723,544.44,606.13
17.1968,540.35,594.7
17.2174,535.68,583.16
17.2378,532.95,575.33
17.2585,530.76,569.86
17.2788,530.21,565.89
17.2994,526.96,562.51
17.3239,524.37,559.41
17.3443,523.7,555.53
17.3648,521.16,550.62
17.3853,519.53,545.1
17.4058,516.82,540.28
17.4302,514.86,534.42
17.4508,513.49,529.94
17.4713,514.59,524.55
17.4918,512.87,521.04
17.5122,512.1,517.43
17.5327,509.28,516.75
17.5573,508.22,515.6
17.5777,509.58,516.88
17.5983,509.46,518.1
17.6188,509.57,522.28
17.6393,509.86,527.23
17.6637,510.88,531.58
17.6842,510.91,535.46
17.7047,510.33,537.17
17.7252,510.46,535.74
17.7458,508.77,533.99
17.7662,510.22,531.39
17.7908,510.17,529.11
17.8114,509.34,525.49
17.8317,508.87,520.59
17.8522,510.1,515.87
17.8728,510.28,512.1
17.8973,508.82,510.88
17.9178,509.66,511.9
17.9383,510.73,513.72
17.9587,513.58,517.18
17.9793,513.66,521.54
17.9997,512.53,525.23
18.0243,510.03,529.19
18.0447,511.22,533.35
18.0652,512.18,535.28
18.0857,509.94,535.82
18.1062,509.75,534.66
18.1308,509.2,532.33
18.1512,510.56,528.86
18.1716,511.05,523.69
18.1922,509.24,519.95
18.2127,507.99,515.76
18.2332,505.79,512.81
18.2578,505.03,511.05
18.2782,506.03,510.64
18.2987,505.62,512.11
18.3192,505.3,516.29
18.3397,507.24,520.63
18.3603,507.99,524.1
18.3846,506.39,527.88
18.4052,504.51,533.11
18.4257,503.61,534.29
18.4461,502.49,534.83
18.4666,505.39,533.66
18.4911,506.31,531.13
18.5117,507.05,527.9
18.5324,507.04,524.92
18.5528,508.03,522.54
18.5732,507.83,520.03
18.5937,508.46,519.82
18.6181,508.77,522.06
18.6387,508.21,521.45
18.6591,507.37,519.96
18.6796,508.1,519.77
18.7002,506.48,519.01
18.7246,502.98,513.61
18.7451,499.19,503.89
18.7657,495.55,489.91
18.7861,491.24,476.73
18.8067,489.19,463.58
18.8271,486.15,450.67
18.8515,485.72,440.33
18.8721,485.38,432.27
18.8926,485.5,429.21
18.9131,486.8,429.17
18.9335,488.04,432.74
18.9581,490.43,437.99
18.9787,492.15,443.59
18.9992,492.92,450.07
19.0197,493.53,459.06
19.04,495.43,468.25
19.0606,497.34,479.2
19.085,500.87,489.36
19.1057,501.7,499.49
19.1261,503.16,519.79
19.1468,504.53,553.43
19.1673,511.62,584.55
19.1915,522.7,603.44
19.212,530.36,607.75
19.2325,534.89,605.4
19.2531,534.71,599.72
19.2735,537.37,590.18
19.294,537.09,580.94
19.3185,535.48,571.75
19.339,529.38,563.6
19.3596,527.3,558.28
19.38,526.24,557.03
19.4004,526.99,557.82
19.4209,525,558.46
19.4454,521.8,558.76
19.4661,520.04,558.81
19.4866,519.83,559.45
19.507,519.66,558.56
19.5274,516.53,555.25
19.552,514.02,551.2
19.5725,514.02,545.36
19.593,515.02,539.49
19.6136,515.21,533.39
19.634,514.37,527.51
19.6545,511.7,522.01
19.6789,510.36,519.21
19.6995,510.69,517.37
19.7199,511.55,516.89
19.7404,509.04,517.71
19.7609,508.83,520.77
19.7854,508.86,525.22
19.8061,510.29,528.57
19.8266,509.43,533.06
19.847,507.75,534.85
19.8675,508.4,536.08
19.8879,507.52,536.26
19.9126,508.41,534.21
19.933,507.73,531.17
19.9536,507.19,528.33
19.974,506.55,525.87
19.9945,507.64,521.09
20.019,507.91,517.08
20.0395,505.93,515.46
20.06,508.54,514.57
20.0804,509.23,514.65
20.101,508.99,516.92
20.1213,507.99,520.94
20.146,508.19,524.55
20.1664,509.75,527.84
20.1869,508.4,532.27
20.2074,507.52,533.82
20.2279,507.02,535.05
20.2523,508.61,533.64
20.2729,510.89,533.51
20.2935,509.91,531.01
20.3138,509.13,527.61
20.3343,507.1,523.69
20.3549,506.48,518.35
20.3793,506.79,514.68
20.3998,506.63,512.54
20.4203,505.3,510.84
20.4407,505.04,510.67
20.4612,502.43,512.53
20.4819,503.95,515.23
20.5062,506.16,519.38
20.5268,507.93,524.71
20.5473,505.94,527.96
20.5678,504.55,529.77
20.5883,507.64,531.22
20.6127,508.71,530.77
20.6333,507.57,529.42
20.6538,508.46,528.14
20.6745,508.57,525.11
20.695,509.65,520.89
20.7152,508.72,517.11
20.7398,507.78,514.29
20.7603,511.02,512.63
20.7808,512.62,511.5
20.8012,512.29,511.6
20.8217,513.24,513.48
20.8462,513.99,517.19
20.8667,514.99,520.95
20.8872,514.99,524.96
20.9077,513.79,527.77
20.9282,510.84,529.61
20.9488,510.67,530.29
20.9733,508.93,531.03
20.9939,510.35,529.03
21.0142,509.28,526.02
21.0348,509.42,522.22
21.0553,508.34,517.57
21.0797,509.87,513.26
21.1003,509.7,510.41
21.1208,509.56,508.93
21.1412,508.85,508.54
21.1619,508.68,510.23
21.1823,510.74,513.59
21.2067,511.19,518.07
21.2273,511.15,523.05
21.2477,510.92,527.04
21.2681,510.14,530.44
21.2888,509.71,534.15
21.3133,509.77,534.52
21.3338,507.02,534.01
21.3544,507.01,532.41
21.3748,507.41,531.13
21.3952,507.33,530.7
21.4157,505.66,528.16
21.4402,504.73,520.93
21.4608,500.78,508.74
21.4813,498.03,493.2
21.5017,493.22,475.76
21.5221,488.58,460.41
21.5466,485.06,447.72
21.5671,483.45,439.98
21.5876,481.36,438.78
21.6081,480.29,442.23
21.6286,479.03,447.78
21.6492,477.22,454.43
21.6737,478.18,461.74
21.6942,479.14,468.79
21.7146,480.51,474.43
21.7352,481.81,478.75
21.7556,484.45,480.8
21.7801,487.96,482.84
21.8006,489.97,483.27
21.8211,490.37,493.42
21.8416,497.7,519.53
21.862,504.76,549.63
21.8826,516.61,574.5
21.907,529.09,590
21.9276,538.47,596.8
21.9481,545.18,600.04
21.9685,547.34,599.43
21.989,547.47,596.15
22.0096,545.78,589.72
22.034,543.42,583.77
22.0548,540.34,576.02
22.0753,537.27,567.82
22.0956,534.42,560.05
22.1161,530.73,552.84
22.1406,525.99,543.67
22.1611,522.19,535.94
22.1815,520.95,529.75
22.202,518.16,525.8
22.2225,517.33,523.84
22.2431,518.26,523.07
22.2674,519.01,524.86
22.2882,519.81,527.29
22.3086,520.05,530.63
22.329,517.24,533.9
22.3495,514.59,536.32
22.3741,513.67,537.26
22.3945,513.74,536.81
22.415,510.99,535.65
22.4355,510.39,533.52
22.456,508.51,529.61
22.4764,507.81,526.89
22.5009,508.45,521.51
22.5215,507.76,517.01
22.542,507.81,513.61
22.5626,507.85,511.89
22.5831,508.48,511.91
22.6074,508.78,512.93
22.6279,509.23,516.54
22.6486,509.18,521.23
22.669,507.34,524.99
22.6895,509.48,528.79
22.7101,508.98,531.03
22.7344,509.98,532.03
22.7551,511.59,532.62
22.7754,512.67,530.9
22.796,513.34,528.32
22.8163,513.07,524.85
22.841,511.86,521.48
22.8615,510.48,516.79
22.8821,509.19,513.23
22.9025,508.75,510.98
22.9229,509.2,511.39
22.9434,509.56,510.91
22.9679,510.25,512.53
22.9885,509.6,515.62
23.0089,509.48,520.7
23.0295,507.78,524.96
23.0499,508.83,528.57
23.0703,508.46,532.45
23.0949,509.17,534.36
23.1154,508.74,533.69
23.1358,509.19,532.75
23.1564,507.95,529.6
23.1768,508.36,527.28
23.2013,508.29,523.43
23.2218,509.03,518.54
23.2424,509.02,515.23
23.2628,507.82,512.39
23.2833,509.66,511.91
23.3037,509.32,512.73
23.3284,510.26,514.78
23.349,509.81,518.23
23.3694,511.85,523.38
23.3899,512.08,527.1
23.4104,510.06,530.48
23.4347,509.85,532.79
23.4553,508.28,534.43
23.4758,508.22,533.74
23.4964,507.38,533.79
23.5168,507.3,530.24
23.5373,507.84,526.19
23.5619,507.47,522.15
23.5824,508.98,518.32
23.6028,508.98,514.06
23.6233,509.19,511.45
23.6437,507.75,510.56
23.6682,508,511.05
23.6887,507.2,515.04
23.7093,507.36,518.63
23.7297,508.69,521.9
23.7503,508.15,526.92
23.7707,508.72,529.34
23.7952,508.38,532.07
23.8158,508.7,533.06
23.8363,509.76,532.85
23.857,509.81,530.68
23.8774,510.05,527.94
23.9017,507.84,525.35
23.9223,508.27,521.28
23.9428,507.02,517.23
23.9634,506.61,514.18
23.9837,506.89,511.54
24.0042,506.31,509.84
24.0286,506.65,509.67
24.0493,505.92,512.33
24.0698,507.54,516.87
24.0901,507.63,521.49
24.1106,507.9,526
24.1312,507.72,530.4
24.1557,506.98,534.52
24.1763,508.38,535.61
24.1969,508.11,535.09
24.2172,508.28,533.47
24.2376,509.03,531.38
24.2621,508.82,530.1
24.2827,508.06,529.48
24.3032,506.25,526.59
24.3236,506.8,518.27
24.3442,503.44,506.61
24.3647,499.95,491.89
24.3893,497.76,476.11
24.4098,495.01,463.49
24.4303,490.41,456.39
24.4508,486.53,453.11
24.4712,483.42,455.49
24.4956,481.74,460.79
24.5161,482.19,467.83
24.5367,482.95,473.27
24.557,482.56,477.41
24.5775,483.25,480.53
24.5982,485.6,487.03
24.6225,489.68,508.22
24.6431,498.14,533.38
24.6636,511.31,549.7
24.684,524.65,557.36
24.7047,534.12,558.89
24.7291,538.1,558.71
24.7497,541.08,556.97
24.7701,541.46,556.17
24.7906,540.57,555.74
24.8112,539.66,554.79
24.8315,536.12,556.23
24.8561,530.9,555.99
24.8767,528.72,554.19
24.8972,526.58,552.15
24.9177,525.86,549.72
24.938,524.49,545.18
24.9625,522.59,539.94
24.983,521.07,533.95
25.0036,518.06,528.96
25.0241,515.85,522.57
25.0446,514.68,518.86
25.0651,516.14,516.48
25.0895,514.51,514.19
25.11,513.81,515.35
25.1306,513.25,517.28
25.151,513.6,520.22
25.1715,513.48,523.78
25.196,513.58,527.62
25.2166,514.27,529.9
25.2372,513.61,532.32
25.2576,512.49,533.06
25.2781,514.19,533.24
25.2986,513.35,532.8
25.323,512.48,529.84
25.3436,511.79,524.87
25.364,510.03,519.7
25.3845,509.82,516.16
25.4051,508.46,513.32
25.4294,508.57,511.46
25.4499,507.45,510.77
25.4706,507.56,512.01
25.4909,507.45,514.81
25.5114,508.16,519.45
25.5319,506.13,523.76
25.5565,509.5,527.41
25.5769,509.6,530.73
25.5975,508.68,532.58
25.618,507.15,532.86
25.6384,507.92,532.29
25.659,508.93,529.43
25.6834,509.15,525.95
25.704,508.12,522.16
25.7243,507.89,518.33
25.7451,508.72,513.86
25.7655,509.17,511.09
25.79,509.14,510.47
25.8105,509.91,510.58
25.831,509.33,511.26
25.8514,509.26,514.21
25.8718,507.21,518.37
25.8924,504.17,523.09
25.9168,504.33,527.48
25.9375,504.87,532.18
25.958,508.49,533.54
25.9784,508,531.84
25.9988,507.2,530.67
26.0234,508.36,528.53
26.044,506.29,526.03
26.0644,504.83,522.22
26.085,505.26,519.18
26.1053,506.81,515.14
26.1258,506.05,512.71
26.1503,503.24,511.57
26.1708,503.79,511.66
26.1913,506.63,513.13
26.2119,506.51,516.7
26.2325,506.6,521.76
26.2568,507.08,524.81
26.2773,507.67,528.05
26.2978,507.53,531.04
26.3183,506.23,531.83
26.3388,505.18,532.26
26.3593,506.35,530.61
26.3837,505.88,527.89
26.4044,504.7,524.71
26.4248,504.96,521.17
26.4452,504.97,517.34
26.4657,504.97,513.87
26.4902,505.58,511.49
26.5107,505.86,510.6
26.5313,506.89,512.08
26.5518,507.11,514.06
26.5723,507.89,519.65
26.5927,509.91,524.92
26.6174,509.33,530.34
26.6379,507.66,528.67
26.6584,506.53,523.13
26.6787,504.22,512.51
26.6993,501.98,499.21
26.7198,497.58,482.56
26.7442,494.27,464.65
26.7647,489.01,450.52
26.7853,486.81,440.02
26.8058,484.25,435.01
26.8263,482.6,433.21
26.8508,484.28,434.77
26.8713,485.62,439.82
26.8919,486.7,446.65
26.9124,490.76,453.92
26.9328,492.61,463.94
26.9532,495.89,474.15
26.9777,497.31,483.32
26.9982,500.05,491.26
27.0187,499.44,499.4
27.0392,502.75,509.92
27.0596,505.8,534.54
27.0841,510.44,567.43
27.1047,518.75,591.95
27.1252,527.4,601.96
27.1458,532.32,603.16
27.1662,536.86,598.33
27.1867,538.29,591.27
27.2112,537.43,582.81
27.2318,534.74,574.25
27.2523,533.59,568.4
27.2728,533.48,564.52
27.2933,530.18,561.82
27.3176,526.54,559.25
27.3381,524.24,558.2
27.3586,521.19,556.56
27.3793,519.55,556.65
27.3996,517.04,555.72
27.4202,517.83,554.18
27.4447,516.67,552.14
27.4653,516.33,547.11
27.4857,514.47,541.89
27.5062,513.77,536.11
27.5266,514.02,530.69
27.551,513.81,525.75
27.5716,511.85,522
27.5922,512.08,521.2
27.6126,513.27,520.96
27.633,511.81,522.57
27.6535,511.45,523.66
27.6781,511.56,526.92
27.6987,510.45,531.54
27.7191,510.96,534.83
27.7397,509.37,537.07
27.76,508.29,536.65
27.7806,508.63,535.32
27.805,509.91,533.06
27.8256,509.33,530.25
27.8461,509.46,527
27.8665,507.97,522.8
27.8871,506.77,519.44
27.9116,506.22,514.75
27.9321,506.98,512.2
27.9525,506.98,511.76
27.9732,508.58,512.41
27.9935,509.07,514.73
28.0141,509.45,518.78
28.0385,509.76,520.83
28.059,509.61,524.86
28.0795,508.29,528.69
28.1,506.63,530.55
28.1205,505.3,531.84
28.145,505.24,532.87
28.1656,505.8,533.5
28.1859,506.84,529.8
28.2065,506.27,526.04
28.227,506.42,521.83
28.2474,506.53,517.86
28.272,508.83,514.49
28.2926,508.46,512.19
28.3129,507.17,511.75
28.3335,507.13,512.6
28.3541,507.71,515.88
28.3785,510.37,519.31
28.3989,509.49,522.85
28.4195,507.99,526.88
28.44,507.2,531.7
28.4604,507.76,533.36
28.4809,510.21,533.29
28.5054,511.16,533.23
28.5259,513.73,530.98
28.5467,513.59,527.39
28.5669,512.87,523.31
28.5875,511.29,519.85
28.612,510.24,516.08
28.6325,508.79,513.06
28.6529,509.63,510.65
28.6736,509.5,509.12
28.6939,509.6,510.5
28.7145,510.68,513.8
28.7388,511.55,517.24
28.7595,510.64,521.99
28.78,511.91,526.99
28.8004,510.93,530.59
28.821,510.94,532.88
28.8453,509.95,533.3
28.866,510.16,532.44
28.8864,509.33,530.15
28.9069,509.26,526.72
28.9274,508.21,522.78
28.9478,507.37,520.82
28.9725,509.5,516.86
28.993,508.6,513.09
29.0135,507.28,511.27
29.0338,507.22,511.02
29.0544,507.18,511.61
29.0748,507.74,514.49
29.0993,509.19,519.59
29.1199,508.55,524.47
29.1404,509.24,528.98
29.1608,510.6,531.38
29.1815,510.48,532.91
29.2058,509.18,533.53
29.2263,509.14,533.62
29.247,507.72,533.1
29.2674,506.57,530.48
29.2879,507.66,522.18
29.3083,504.33,507.55
29.333,500.66,488.64
29.3535,494.73,469.91
29.3739,490.38,451.33
29.3945,485.11,436.26
29.4148,481.49,427.41
29.4393,480.39,424.73
29.4599,480.71,428.18
29.4803,481.17,435.35
29.5008,482.73,445.48
29.5212,484.19,455.58
29.5417,485.35,465.07
29.5662,489.88,475.65
29.5869,492.7,499.72
29.6072,498.76,534.18
29.6279,507.81,562.14
29.6482,518.85,577.11
29.6727,525.88,580.49
29.6932,531.1,578.79
29.7137,534.68,572.83
29.7343,535.75,567.07
29.7548,534.2,561.45
29.7752,532.36,558.16
29.7998,531.09,554.53
29.8202,528.67,553.02
29.8408,524.94,553.82
29.8613,523.15,553.66
29.8818,522.52,553.92
29.9062,524.21,553.54
29.9268,524.57,552.03
29.9474,523.46,548.63
29.9679,522.37,543.7
29.9883,521.49,538.56
30.0088,521.19,532.65
30.0332,519.16,526.32
30.0537,517.52,521.45
30.0742,516.02,517.16
30.0948,514.02,514.93
30.1153,513.01,515.14
30.1396,515.21,515.92
30.1602,515.77,518.33
30.1807,515.81,521.67
30.2012,514.05,525.13
30.2217,513.84,527.91
30.2422,513.07,531.93
30.2666,513.46,533.14
30.2871,511.57,534.51
30.3076,511.65,533.41
30.3283,511.52,530.93
30.3486,510.62,527.14
30.3732,511.69,523.51
30.3936,510.96,520.81
30.4141,510.56,517.25
30.4346,513.05,513.6
30.455,513.64,512.28
30.4756,514.11,511.42
30.5001,514.49,512.74
30.5207,512.99,516.19
30.5412,511.59,520.35
30.5616,511.88,524.08
30.5821,511.7,527.87
30.6025,511.16,531.49
30.6271,509.93,532.79
30.6477,509.14,533.44
30.6681,507.71,532.55
30.6886,506.57,529.64
30.7092,505.66,526.71
30.7336,506.13,522.77
30.754,504.7,519.81
30.7745,505.76,515.25
30.795,505.01,512
30.8157,505.41,509.6
30.8361,505.33,511.08
30.8607,505.06,512.46
30.8812,506.45,515.77
30.9017,507.36,519.42
30.9221,505.89,523.33
30.9425,506.51,527.27
30.967,507.01,530.61
30.9876,508.81,531.69
31.008,509.44,532.15
31.0286,508.36,531.52
31.0492,508.88,528.62
31.0696,509.91,524.89
31.0939,509.73,520.52
31.1145,508.18,516.41
31.1352,507.94,512.93
31.1557,508.76,510.54
31.1762,508.2,509.64
31.2006,508.96,510.11
31.2211,509.77,513.09
31.2416,510.22,517.47
31.262,509.57,521.98
31.2825,510.26,526.38
31.303,509.81,530.3
31.3275,509.65,533.24
31.348,509.52,533.79
31.3685,509.01,533.24
31.389,508.81,531.99
31.4094,508.05,529.79
31.4339,511.64,525.63
31.4544,512.51,521.11
31.475,512.01,517.08
31.4954,511.81,512.67
31.516,511.45,511.13
31.5364,509.76,509.51
31.561,510.21,509.41
31.5814,511.96,513.12
31.602,512.37,517.5
31.6225,512.7,520.6
31.643,512.96,525.68
31.6674,512.57,528.14
31.6879,511.65,530.52
31.7086,512.12,531.81
31.7291,510.5,532.85
31.7494,511,532.08
31.77,510,529.26
31.7943,509.2,525.41
31.8148,507.36,521.33
31.8355,505.49,517.06
31.8561,505.59,514.25
31.8764,506.87,512
31.8969,507.1,512.4
31.9214,509.08,513.12
31.9419,509.86,515.3
31.9624,508.89,518.64
31.983,507.31,523.11
32.0034,505.65,527.49
32.0279,506.92,531.79
32.0484,506.94,535.43
32.0689,508.75,535.95
32.0894,508.6,535.36
32.1099,508.48,533.09
32.1304,507.58,530.47
32.1551,508.27,526.17
32.1754,506.21,523.34
32.1959,506.57,517.87
32.2163,505.06,514.5
32.2369,504.25,511.8
32.2612,504,512.04
32.2818,505.4,514.83
32.3024,506.72,519.06
32.3229,507.77,524.45
32.3433,507.22,524.16
32.3639,503.38,517.33
32.3884,499.5,507.26
32.4088,494.4,491.81
32.4294,489.72,473.65
32.4498,484.98,456.52
32.4703,482.18,443.42
32.4949,481.14,432.53
32.5154,480.12,426.63
32.5358,479.69,426.1
32.5563,481.75,428.28
32.5768,483.2,431.82
32.5973,484.16,438.46
32.6217,485.93,445.97
32.6422,488.14,453.97
32.6628,490.72,463.58
32.6833,492.97,477.06
32.7038,494.98,508.85
32.7243,501.38,549.68
32.7487,513.51,583.54
32.7692,528.4,602.24
32.7898,538.52,610.59
32.8101,545.02,611.67
32.8306,546.42,606.14
32.8551,544.33,597.71
32.8758,542.87,586.77
32.8964,541.09,575.81
32.9168,537.47,564.65
32.9373,537.78,556.32
32.9578,536.42,548.06
32.9823,532.54,541.65
33.0028,530.43,538.72
33.0232,528.54,538.17
33.0438,526.64,538.94
33.0642,523.71,541.55
33.0887,524.37,544.24
33.1092,523.89,545.39
33.1298,521.91,546.51
33.1503,522.33,546.41
33.1706,520.27,543.93
33.1913,518.21,541.14
33.2156,516.37,535.71
33.2362,515.1,530.97
33.2568,515.28,525.18
33.2772,514.62,521.14
33.2977,513.5,518.51
33.3221,513.2,516.21
33.3427,513.36,514.97
33.3633,513.29,515.77
33.3837,511.63,517.42
33.4041,513.5,520.94
33.4246,512.6,525.35
33.449,511.08,530.08
33.4696,509.07,533.26
33.4901,510.05,535.21
33.5106,508.84,535.37
33.5311,507.47,534.29
33.5556,506.58,532.24
33.5761,507.66,529.99
33.5967,508.73,525.19
33.6171,507.98,521.15
33.6375,505.59,516.72
33.658,505.87,513.38
33.6826,506.1,511.9
33.703,505.48,511.12
33.7236,504.18,511.9
33.744,504.95,515.12
33.7645,505.96,518.89
33.789,505.96,523.52
33.8095,506.77,527.81
33.83,506.22,529.45
33.8505,504.37,531.56
33.8711,505.3,530.65
33.8915,504.04,530.12
33.916,504.23,529.09
33.9365,504.99,527.08
33.957,505.59,522.26
33.9775,504.47,518.21
33.998,504.18,514.37
34.0225,503.74,511.29
34.043,503.19,510.43
34.0636,504.95,509.95
34.084,506.36,511.36
34.1046,506.89,514.69
34.1251,507.51,518.75
34.1495,507.21,523.2
34.17,507.77,527.36
34.1906,509.61,530.49
34.2113,510.89,532.39
34.2314,509.71,533.31
34.2519,509.37,532.85
34.2764,509.7,530.68
34.297,510.56,527.34
34.3174,510.65,524.08
34.338,509.32,519.46
34.3584,508.25,516.37
34.383,510.2,512.89
34.4035,510.36,512.12
34.4241,509.89,512.09
34.4444,508.11,513.07
34.465,509.09,516.06
34.4854,508.47,520.05
34.5099,507.78,524.24
34.5307,507.62,527.39
34.5509,508.5,530.91
34.5715,509.2,533.33
34.5919,508.76,533.86
34.6163,508.01,534.89
34.6368,505.61,530.71
34.6574,503.48,517.37
34.6778,500.19,497.5
34.6983,494.15,475.6
34.7188,487.32,454.68
34.7435,481.66,438.74
34.7642,479.12,430.39
34.7845,479.1,429.31
34.8048,479.48,433.65
34.8254,480.98,442.52
34.8498,483.39,452.02
34.8705,485.91,462.01
34.8908,487.13,472.21
34.9114,488.5,480.57
34.9319,490.8,488.26
34.9525,492.44,494.2
34.9769,494.95,498.16
34.9973,497.16,500.33
35.018,498.13,500.66
35.0384,497.7,500.53
35.0588,498.16,499.23
35.0793,500.13,494.98
35.1038,498.3,492.38
35.1244,493.64,491.91
35.1449,490.31,494.13
35.1654,489.25,498.1
35.1859,488.6,503.08
35.2102,488.48,509.06
35.2309,489.59,514.25
35.2513,491.67,519.6
35.2719,493.33,523.48
35.2924,494.27,527.78
35.3127,494.41,540.43
35.3372,501.33,564.54
35.358,515.47,588.03
35.3783,533.77,603.83
35.3987,547.42,606.66
35.4193,554.13,602.93
35.4438,556.31,595.54
35.4642,555.05,588.43
35.4847,553.24,580.15
35.5052,551.79,573.32
35.5258,548.83,567.65
35.5461,543.87,563.92
35.5708,538.49,560.94
35.5914,536.39,559.15
35.6118,532.91,560.32
35.6324,527.33,561.86
35.6527,526.87,561.09
35.6773,524.09,558.27
35.6977,523.47,553.81
35.7182,522.58,549.65
35.7387,520.06,543.92
35.7592,516.65,537.54
35.7797,515.92,532.23
35.8042,515.54,525.98
35.8248,514.03,521.39
35.8451,512.42,519.51
35.8658,512.14,519.21
35.8862,512.11,520.17
35.9108,512.49,522.73
35.9312,511.59,526.59
35.9518,511.07,530.67
35.9723,509.86,533.54
35.9927,509.89,535.43
36.0133,509.71,535.94
36.0377,508.77,535.75
36.0581,507.81,533.6
36.0787,507.65,530.28
36.0992,506.72,525.43
36.1197,505.58,521.54
36.1441,507.06,517.03
36.1647,506.65,513.43
36.1852,506.92,512.94
36.2057,509.34,510.75
36.2263,509.87,511.8
36.2466,509.29,514.04
36.2712,509.44,517.23
36.2918,509.75,521.59
36.3123,509.6,526.07
36.3326,510.88,528.46
36.3532,510.3,530.96
36.3735,509.84,533.17
36.3981,509.07,533.94
36.4188,507.66,531.55
36.4393,507.13,527.44
36.4596,506.5,523.75
36.4802,507,519.2
36.5047,506.6,515.36
36.525,506.48,512.49
36.5457,505.78,510.39
36.5662,505.83,509.51
36.5866,507.66,511.21
36.6071,506.53,514.57
36.6316,506.82,518.65
36.652,507.06,523.32
36.6725,506.25,527.86
36.693,505.4,531.49
36.7135,506.92,534.19
36.7381,506.13,534.75
36.7586,505.71,533.4
36.779,506.37,531.32
36.7996,507.49,529.06
36.8201,506.59,526.05
36.8406,506.48,521.04
36.8649,504.98,515.23
36.8855,506.18,512.58
36.9062,507.35,510.87
36.9266,507.48,509.89
36.947,507.78,511.31
36.9715,507.63,512.85
36.9922,509.3,516.48
37.0127,510.84,521.59
37.0332,510.47,526.27
37.0535,510.78,530.81
37.0741,512.02,533.65
37.0986,511.62,535.12
37.1192,508.69,534.3
37.1396,507.36,531.84
37.1601,506.88,528.67
37.1804,505.91,525.34
37.205,505.33,522.67
37.2255,503.46,517.94
37.2461,502.17,514.95
37.2664,502.13,514.16
37.2869,505.31,512.13
37.3075,505.85,512.7
37.332,505.68,518.56
37.3524,506.74,525.05
37.3729,508.19,529.64
37.3934,510.35,531.71
37.4139,512.68,532.57
37.4345,513.55,533.06
37.4589,514.64,532.64
37.4796,515.11,530.92
37.5001,514.69,527.93
37.5205,514.75,524.15
37.541,516,521.12
37.5653,515.4,517.29
37.586,513.32,514.63
37.6065,512.46,512.71
37.6269,511.96,510.97
37.6475,510.97,510.57
37.6679,510.98,512.66
37.6924,511.18,514.93
37.713,511.55,518.94
37.7334,511.64,524.15
37.7538,511.91,529.12
37.7744,512.33,533.3
37.7989,511.66,537.04
37.8194,509.13,534.83
37.84,509.3,526.86
37.8605,506.44,515.29
37.881,502.55,498.43
37.9014,497.04,479.75
37.926,492.43,464.2
37.9464,486.35,451.36
37.967,483.48,443.29
37.9873,482.38,441.03
38.0078,483.51,443.62
38.0323,484,450.9
38.0528,485,458.92
38.0734,487.4,469.94
38.0939,489.72,478.15
38.1143,491.18,486.32
38.1349,492.94,494.25
38.1594,495.75,502.6
38.1799,497.2,525.68
38.2003,500.76,552.55
38.2209,510.61,571.84
38.2413,521.49,580.47
38.2658,529.39,581.58
38.2864,533.71,577.06
38.3069,535.17,570.25
38.3274,536.14,563.4
38.3477,535.91,556.92
38.3682,533.13,552.74
38.3927,530.5,550.79
38.4133,530.2,549.03
38.4338,527.96,549.02
38.4544,524.57,550.22
38.4748,521.26,549.98
38.4953,520,549.58
38.5198,518,548.06
38.5403,519.2,546.45
38.5607,520.56,543.56
38.5812,522.85,538.65
38.6016,522.08,533.52
38.6261,520.06,529.02
38.6467,518.85,524.01
38.6672,517.88,519.21
38.688,517.7,516.17
38.7083,516.56,515.53
38.7288,514.05,515.23
38.7532,513.44,517.38
38.7738,513.15,520.11
38.7943,514.52,523.88
38.8148,512.62,529.11
38.8354,512.09,531.89
38.8597,512.48,536.11
38.8802,511.78,536.89
38.9008,510.02,538.31
38.9212,510.22,536.45
38.9416,508.18,532.96
38.9621,508.54,530.57
38.9869,509.03,527.85
39.0073,509.23,516.88
39.0279,505.58,501.51
39.0483,499.46,490.6
39.0687,496.37,484.68
39.0931,496.1,483.15
39.1136,496.28,486.32
39.1342,494.62,490.05
39.1547,493.3,495.84
39.1752,495.04,501.47
39.1958,497.43,506.58
39.2202,498.34,512.06
39.2406,497.88,514.25
39.2612,498.1,516.8
39.2816,500.88,529.64
39.3022,506.7,543.31
39.3267,514.56,548.85
39.3471,519.25,550.08
39.3677,522.6,547.06
39.3882,523.48,541.85
39.4086,523.18,536.68
39.429,523.95,533.34
39.4536,522.56,531.48
39.474,521.45,532.18
39.4946,522.16,533.34
39.5151,519.53,535.08
39.5356,520.02,539.86
39.556,519.82,534.89
39.5806,516.05,520.31
39.601,509.84,501.25
39.6217,501.27,482.6
39.6421,493.62,465.08
39.6626,487.9,451.26
39.687,486.32,444.01
39.7076,484.85,439.61
39.7283,482.48,437.89
39.7485,483.59,439.31
39.769,484.67,443.85
39.7894,487.54,449.28
39.814,488.63,456.62
39.8346,493.5,466.1
39.8551,493.4,475.28
39.8755,494.72,484.22
39.8962,495.18,493.18
39.9204,495.34,501.54
39.941,497.27,508.03
39.9615,498.22,513.43
39.9822,501.18,515.94
40.0025,501.34,520.35
40.023,503.87,540.08
40.0474,509.7,565.07
40.068,519.16,580.25
40.0884,527.33,585.2
40.109,533.66,583.36
40.1294,535.33,580.49
40.154,535.86,573.99
40.1746,534.69,569.59
40.1949,535.75,566.07
40.2155,534.8,563.46
40.236,532.24,561.17
40.2564,530.99,560.13
40.2809,528.59,558.91
40.3015,527.88,558.73
40.322,524.7,558.38
40.3426,523.56,555.9
40.3629,522.65,552.52
40.3874,521.72,547.62
40.4079,520.97,541.7
40.4285,519.78,534.96
40.4489,518.42,528.76
40.4694,517.14,524.01
40.4899,515.71,521.01
40.5144,516.17,519.21
40.5351,514.74,519.77
40.5555,513.79,522.41
40.576,510.63,524.93
40.5964,510.7,526.94
40.6169,510.96,530.16
40.6415,512.57,531.92
40.662,513.26,534.14
40.6823,511.61,533.71
40.7028,510.48,532.77
40.7233,509.79,530.42
40.748,508.43,525.93
40.7683,508.34,522.95
40.7889,507.88,518.76
40.8093,509.3,514.81
40.83,507.84,511.64
40.8503,507.47,510.32
40.8749,507.58,510.65
40.8954,507.86,512.12
40.916,507.69,514.9
40.9364,508.95,519.52
40.9568,507.76,523.61
40.9813,506.41,528.09
41.0018,507.53,530.87
41.0223,509.02,531.7
41.0429,509.62,531.96
41.0633,509.29,531.57
41.0838,508.44,530.65
41.1082,509.15,526.52
41.1288,510.52,523.82
41.1494,510.41,519.65
41.1698,508.53,516.32
41.1903,507.83,513.26
41.2147,506.86,511.41
41.2353,505.29,511.33
41.2558,503.63,513.46
41.2763,503.7,516.97
41.2967,503.76,521.17
41.3172,505.21,524.94
41.3417,505.77,527.95
41.3623,506.62,530.56
41.3828,506.89,532.85
41.4034,507.11,532.48
41.4238,505.49,529.58
41.4482,504.79,527.67
41.469,504.23,524.53
41.4892,502.99,521.43
41.5099,504.79,519.14
41.5303,506.03,515.71
41.5507,509.43,512.97
41.5754,511.34,512.78
41.5957,511.87,513.42
41.6162,513.3,516.34
41.6368,514.24,520.87
41.6572,515.59,524.3
41.6818,514.87,528.24
41.7023,513.5,531.99
41.7228,512.4,534.39
41.7433,511.12,536.51
41.7637,509.3,537.21
41.7842,509.04,535.17
41.8087,508.03,530.93
41.8294,508.82,526.55
41.8499,508.46,522.64
41.8702,508.17,518.31
41.8907,506.33,513.85
41.9151,504.87,511.88
41.9357,505.89,510.7
41.9563,506.11,511.16
41.9767,505.09,513.73
41.9972,504.47,517.78
42.0177,505.98,521.23
42.0421,507.18,526.38
42.0627,506.75,530.11
42.0833,506.8,533.08
42.1037,507.44,533.27
42.1242,508.15,533.41
42.1446,508.52,531.33
42.1692,506.62,527.86
42.1897,504.69,523.89
42.2102,505.75,519.91
42.2308,505.2,515.53
42.2512,505.56,512.82
42.2757,504.85,510.46
42.2961,506.68,510.17
42.3167,508.54,511.33
42.3372,508.44,513.67
42.3577,507.95,517.53
42.3781,509.16,522.23
42.4027,509.53,525.78
42.4233,509.22,530.63
42.4437,507.98,533.9
42.4641,508.38,536.32
42.4845,509.51,536.66
42.5092,509.6,528.12
42.5295,510.08,513.1
42.5501,507.07,495.88
42.5706,505.05,474.3
42.5911,502.24,452.24
42.6116,498.19,436.39
42.636,493.96,428.32
42.6565,491.76,425.85
42.6771,490.81,430.28
42.6975,491.25,437.23
42.7182,492.4,446.38
42.7426,493.32,456.5
42.763,494.26,466.8
42.7836,494.8,476.04
42.804,495.64,483.03
42.8245,495.71,489.23
42.8449,496.17,493.78
42.8695,497.54,497.63
42.8901,498.03,515.3
42.9106,505.02,545.44
42.9311,512.62,568.75
42.9516,522.7,580.4
42.9721,529.16,583.52
42.9965,533.93,582.62
43.0172,535.94,579.49
43.0376,535.55,578
43.058,536.44,575.4
43.0786,534.15,574.92
43.1031,532.12,573.33
43.1235,531.7,572.27
43.1441,527.96,570.41
43.1646,525.17,565.93
43.1849,521.73,561.54
43.2055,520.39,556.64
43.23,517.71,550.91
43.2506,516.17,546.93
43.271,517.13,542.14
43.2915,517.91,535.31
43.3119,515.13,529.25
43.3364,515.1,524.2
43.357,513.48,522.16
43.3775,512.98,520.93
43.398,510.79,521.54
43.4185,510.03,523.43
43.439,511.22,526.75
43.4633,512.38,529.4
43.4841,513.3,532.12
43.5044,513.44,535.09
43.5249,512.15,535.48
43.5454,510.32,535.58
43.57,510.66,534.06
43.5904,511.53,531.65
43.6109,510.02,526.92
43.6314,511.02,522.74
43.6519,509.41,518.59
43.6726,511.53,514.67
43.697,512.02,512.14
43.7175,510.82,511.51
43.738,509.66,511.61
43.7584,509.92,514.29
43.7789,509.54,517.03
43.8034,510.63,521.82
43.8238,508.91,525.66
43.8444,507.92,528.93
43.8648,509.14,531.74
43.8854,508.31,533.59
43.906,507.65,533.07
43.9305,508.52,532.26
43.951,506.82,528.81
43.9714,506.05,525.25
43.9918,505.44,521.4
44.0123,505.55,516.92
44.0368,505.84,513.73
44.0573,506.67,510.99
44.0778,506.54,509.79
44.0985,507.43,510.23
44.1187,508.35,513.19
44.1393,509.68,516.95
44.1638,508.74,521.36
44.1843,508.79,525.69
44.2049,508.83,529.15
44.2254,509.47,531.92
44.2459,508.77,532.94
44.2663,509.82,532.35
44.2909,510.46,530.88
44.3113,509.96,527.5
44.3318,510.97,523.2
44.3523,512.98,519.56
44.3727,513.38,515.65
44.3971,512.91,512.92
44.4177,512.92,510.74
44.4383,511.34,510.39
44.4589,510.27,511.91
44.4795,510.42,514.93
44.5001,510.13,519.94
44.5243,511.31,523.95
44.5449,511.45,528.96
44.5653,510.76,532.17
44.5859,509.01,534.34
44.6062,507,534.87
44.6308,507.6,535.3
44.6512,505.28,533.04
44.6717,505.83,531.03
44.6923,506.66,527.22
44.7128,505.93,522.78
44.7332,507.34,518.62
44.7577,507.07,515.3
44.7782,507.86,513.24
44.7988,510.49,512.59
44.8193,511.39,513.87
44.8398,512.71,516.9
44.8641,513.17,520.32
44.8846,512.34,524.25
44.9052,511.87,526.6
44.9258,511.89,530.08
44.9463,509.32,531.07
44.9666,510.05,531.25
44.9911,508.84,531.2
45.0118,509.07,529.36
45.0322,509.66,526.29
45.0527,509.33,523.23
45.0732,508.26,519.19
45.0977,504.81,514.75
45.1183,504.65,512.4
45.1388,504.32,510.12
45.1593,505.65,509.9
45.1798,505.72,512.72
45.2001,506.18,515.57
45.2247,504.74,520.26
45.2451,505.39,526.61
45.2658,506.92,533.09
45.2861,507.33,538.87
45.3066,507.67,538.29
45.331,505.13,531.64
45.3516,498.71,521.11
45.3722,492.37,505.29
45.3927,483.69,487.83
45.4131,476.15,471.26
45.4335,470.12,455.61
45.4582,466.9,444.29
45.4787,466.32,438.83
45.4991,465.45,438.06
45.5196,469.16,441.85
45.54,472.93,448.28
45.5607,476.34,457.43
45.5851,479.48,467.94
45.6056,481.38,477.75
45.6261,483.3,486.8
45.6466,486.24,504.04
45.6671,491.2,533.23
45.6915,506.56,560.99
45.712,523.04,575.39
45.7327,537.44,579.31
45.7531,546.15,577.25
45.7736,549.32,571
45.7941,550.86,563.6
45.8185,549.88,555.28
45.839,546.51,549.62
45.8597,544.41,544.9
45.8799,540.92,541.52
45.9005,537.74,540.02
45.9249,535.39,540.21
45.9456,532.51,541.57
45.966,530.21,542.86
45.9866,526.17,546.08
46.007,525.73,548.27
46.0274,523.79,548.81
46.0519,522.83,546.85
46.0726,521.66,544.48
46.093,520.33,539.58
46.1135,516.87,534.67
46.134,514.49,529.33
46.1584,513.59,524.27
46.179,511.87,519.61
46.1994,510.1,516.69
46.22,510.48,515.15
46.2404,511.38,515.52
46.2611,511.11,518.22
46.2854,509.29,521.37
46.3061,508.83,525.9
46.3266,509.06,528.72
46.347,508.85,531.58
46.3676,509.28,533.46
46.3919,509.42,533.97
46.4125,510.14,533.37
46.4329,510.11,531.9
46.4534,508.69,529.12
46.474,508.95,524.7
46.4943,510.16,519.76
46.5189,509.73,515.81
46.5395,509.98,512.64
46.5599,509.79,511.12
46.5803,509.43,510.69
46.601,506.54,511.95
46.6214,507.43,514.56
46.6459,509.15,518.45
46.6665,508.72,522.36
46.687,508.57,526.49
46.7075,509.46,530.59
46.7278,510.17,532.67
46.7525,509.53,532.74
46.773,507.63,532.59
46.7935,507.7,531.07
46.8139,507.96,528.26
46.8345,508.37,524.21
46.8548,507.3,520.17
46.8792,507.44,516.53
46.8999,509.15,514.23
46.9204,510.12,512.78
46.9409,507.9,512.82
46.9612,506.52,515.06
46.9858,508.21,517.45
47.0063,507.77,521.56
47.0268,507.62,527.05
47.0474,507.49,529.84
47.0678,506.19,533.47
47.0884,506.16,535.38
47.1127,506.92,536.9
47.1334,506.94,536.72
47.1539,507.15,534.98
47.1743,507.92,532.58
47.1949,508.54,528.46
47.2192,508.63,524.57
47.2398,507.7,521.26
47.2603,508.56,517.61
47.2807,508.05,515.48
47.3014,507.44,515.79
47.3218,506.35,517.43
47.3462,506.08,519.94
47.3668,506.67,524.36
47.3872,506.93,527.68
47.4077,508.15,530.35
47.4282,508.92,533.08
47.4526,508.33,534.46
47.4733,509.07,528.57
47.4937,509.65,522.66
47.5143,506.92,518.12
47.5348,505.54,512.9
47.5552,505.03,509.52
47.5797,505.82,505.22
47.6002,507.26,501.37
47.6208,507.41,499.7
47.6413,507.13,499.96
47.6618,509.1,501.37
47.6821,507.88,507.09
47.7066,508.7,517.27
47.7272,510.96,528.82
47.7477,514.57,539.46
47.7682,518.66,546.36
47.7887,519.33,550.69
47.8133,517.86,552.35
47.8336,516.89,552.48
47.8542,516.91,551.79
47.8746,517.53,544.63
47.8952,516.02,530.5
47.9156,512.22,512.4
47.9401,505.17,489.72
47.9607,498.14,467.58
47.9812,495.71,449.06
48.0016,491.57,435.45
48.0221,486.86,424.36
48.0465,484.28,419.09
48.0672,481.23,421.27
48.0876,480.78,427.42
48.1082,481.63,437.33
48.1286,482.3,447.27
48.1491,482.24,457.81
48.1736,485.79,465.45
48.1942,487.43,472.76
48.2146,491.55,479.01
48.2351,494.24,482.21
48.2555,495.19,483.97
48.28,496.75,488.17
48.3005,497.6,508.14
48.3211,501.28,542.11
48.3417,509.63,572.09
48.362,522.3,590.47
48.383,532.24,598.78
48.407,536.59,601.22
48.4276,538.67,600.78
48.4482,538.54,598.02
48.4687,538.63,594.82
48.4891,536.5,590.85
48.5135,533.4,585.68
48.534,529.52,580.75
48.5546,528.22,573.6
48.575,526.77,566.08
48.5955,525.22,557.66
48.6159,522.38,548.33
48.6405,519.7,540.86
48.661,517.76,533.09
48.6816,514.21,527.67
48.702,514.77,524.54
48.7225,514.01,521.63
48.743,514.81,521.5
48.7676,514.25,524.8
48.788,515.2,528.64
48.8085,514.56,531.71
48.829,515.45,534.77
48.8495,514.56,536.62
48.874,513.05,537.09
48.8945,514.84,537.87
48.915,511.87,536.7
48.9355,510.1,532.96
48.956,509.08,529.77
48.9764,507.66,527.21
49.001,507.73,522.77
49.0216,507.58,518.42
49.042,506.67,514.73
49.0625,505.93,511.99
49.083,507.15,511.99
49.1074,507.52,513.39
49.128,507.41,517.11
49.1484,505.33,520.49
49.1689,505.86,525.39
49.1895,507.29,528.91
49.2099,507.03,531.93
49.2344,507.03,533.35
49.255,505.42,534.68
49.2754,504.54,532.94
49.2958,505.63,530.55
49.3163,505.3,527.44
49.3408,504.64,523.35
49.3614,503.71,519.48
49.3819,506.57,515.59
49.4025,507.66,512.47
49.4229,508.13,510.18
49.4433,508.5,509.54
49.4679,511.2,511.83
49.4885,512.16,516.47
49.5089,512.53,520.77
49.5293,510.02,525.02
49.5499,510.22,529.01
49.5743,509.17,531.41
49.5949,510.74,532.33
49.6154,509.99,531.86
49.6358,509.99,531.29
49.6564,510.39,529.63
49.6768,509.52,526.51
49.7013,509.41,523
49.7219,508.73,520.2
49.7424,507.98,516.36
49.7629,507.59,513.89
49.7833,509.87,513.11
49.8039,510.5,513.09
49.8284,511.4,514.47
49.849,512.12,518.58
49.8693,512.09,522.06
49.8898,511.68,526.05
49.9104,510.94,530.44
49.9348,512.75,532.55
49.9553,510.8,533.04
49.9759,511.44,533.43
49.9964,511.35,532.15
50.0168,511.88,529.32
50.0372,512.51,527.45
50.0617,512.8,523.76
50.0823,510.84,519.61
50.1028,510.28,516.49
50.1232,510.02,514.19
50.1437,510.62,511.95
50.1682,509.09,511.36
50.1888,509.27,512.49
50.2092,513.22,515.59
50.2298,514.18,520.07
50.2502,514.34,524.26
50.2707,514.07,528.01
50.2952,514.06,531.01
50.3157,512.65,531
50.3363,510.72,531
50.3568,510.77,529.8
50.3771,509.22,527.24
50.4017,508.38,524.59
50.4222,509.3,520.48
50.4427,509.44,516.18
50.4631,509.35,512.74
50.4837,509.28,510.4
50.5041,510.43,509.92
50.5287,509.74,511.93
50.5492,508.39,515.55
50.5697,509.71,519.64
50.5901,509.97,523.91
50.6107,509.78,528.73
50.6351,508.82,532.18
50.6557,510.26,534.55
50.6763,510.01,535.04
50.6968,509,534.83
50.7172,506.6,532.66
50.7376,507.68,529.33
50.7621,509.15,525.66
50.7826,508.92,520.93
50.8031,508.93,517.15
50.8237,509.35,514.92
50.8441,508.28,512.73
50.8646,508.42,512.99
50.8892,508.74,514.99
50.9097,509.99,518.99
50.9302,511.39,523.99
50.9506,511.91,525.19
50.9713,511.73,523.16
50.9956,508.98,514.72
51.0162,505.19,501.78
51.0366,498.95,488.22
51.0572,492.16,476.18
51.0777,487.33,466.34
51.0982,481.26,461.47
51.1226,480.01,459.38
51.1432,478.01,458.1
51.1636,478.01,457.68
51.1841,479.41,459.55
51.2046,481.72,461.84
51.229,484.58,467.47
51.2496,488.26,468.18
51.2701,488.41,469.54
51.2906,485.33,473.03
51.311,483.86,479.23
51.3315,483.89,485.78
51.3561,485.91,492.82
51.3766,486.93,506.66
51.3971,489.54,535.13
51.4176,497.84,563.9
51.4381,512.47,582.52
51.4625,526.97,589.02
51.483,534.58,588.61
51.5035,537.26,583.89
51.5241,538.61,576.31
51.5445,537.29,569.05
51.5651,537.03,562.64
51.5895,534.62,557.71
51.6102,532.9,554.17
51.6306,530.92,552.94
51.6511,529.14,554.15
51.6716,528.31,556.72
51.696,528.85,556.98
51.7165,528.28,557.98
51.737,527.42,556.78
51.7575,525.54,554.43
51.778,525.03,551.34
51.7984,525.42,546.07
51.8229,524.94,540.66
51.8437,521.95,534.93
51.864,518.36,529.14
51.8845,516.49,523.91
51.905,514.79,520.33
51.9294,513.63,519.06
51.9501,512.91,517.65
51.9704,511.93,518.92
51.991,509.54,521.94
52.0115,509.43,524.75
52.0319,510.15,529.2
52.0564,511.72,533.36
52.077,511.97,536.29
52.0975,510.18,537.23
52.1179,510.34,536.38
52.1385,509.07,534.71
52.159,507.26,531.17
52.1834,508.01,526.33
52.2039,509.61,521.07
52.2244,508.88,517.05
52.2449,508.51,514.04
52.2653,507.81,510.63
52.2898,509.25,509.31
52.3104,510.2,510.25
52.3309,511.36,513.4
52.3513,512.49,517.72
52.3719,511.79,521.57
52.3923,510.03,524.26
52.4169,508.82,520.61
52.4373,508.26,520.49
52.4579,505.81,520.39
52.4783,504.85,519.51
52.4988,504.08,516.81
52.5234,503.66,513.65
52.5439,504.33,511.72
52.5644,503.86,508.37
52.5848,499.49,504.7
52.6053,499.59,502.56
52.6258,502.07,501.85
52.6503,501.26,502.28
52.6708,502.81,503.82
52.6913,504.25,507.46
52.712,503.8,511.77
52.7322,504.04,516.41
52.7568,506.23,522.13
52.7773,508.78,531.5
52.7978,503.63,544
52.8183,487.9,547.6
52.8388,474.32,546.48
52.8592,465.66,541.99
52.8838,459.53,535.79
52.9043,459.42,528.23
52.9248,460.94,520.78
52.9453,464.15,513.83
52.9657,467.72,508.86
52.9902,471.18,507.09
53.0107,475.94,505.67
53.0313,482.15,508.14
53.0517,484.72,510.91
53.0722,488.58,514.53
53.0927,490.26,519.42
53.1172,491.61,523.74
53.1377,495.49,527.99
53.1582,497.39,530.79
53.1787,500.71,532.23
53.1992,501.37,532.99
53.2237,501.9,530.99
53.2442,502.92,528.19
53.2647,504.13,524.15
53.2853,505.91,519.92
53.3057,506.73,515.94
53.3262,508.58,513.55
53.3507,507.46,511.64
53.3712,507.77,511.91
53.3918,507.42,513.73
53.4123,508.93,516.18
53.4327,509.55,520.35
53.4531,509.04,525.68
53.4777,508.83,529.14
53.4983,508.86,533.31
53.5187,508.29,536.25
53.5392,508.43,537.4
53.5598,509.15,535.72
53.5842,509.72,532.98
53.6049,509.57,530.18
53.6252,509.86,526.54
53.6458,509.69,521.64
53.6661,507.95,517.11
53.6866,508.96,513.89
53.7111,511.57,512.31
53.7317,512.65,513.85
53.7522,512.12,515.48
53.7727,513.1,518.18
53.7933,513.48,521.75
53.8176,512.98,526.2
53.8381,513.19,529.96
53.8586,512.95,531.37
53.8791,511.76,532.09
53.8996,511.61,531.47
53.92,511.89,530.38
53.9446,512.31,527.5
53.9653,511.45,523.6
53.9856,508.16,518.08
54.0061,515.33,511.87
54.0266,532.66,506.49
54.0511,547.53,503.79
54.0716,556.62,505.04
54.0922,558.7,5.66125e-43
