Program Time [s],data 0,data 1
6.99531,508.76,502.99
6.99532,508.8,505.79
6.99534,509.44,508.64
6.99535,509.15,511.71
6.99536,509.12,512.57
6.99537,508.5,512.65
6.99538,506,512.52
6.99538,497.74,499.99
6.99695,508.19,502.99
6.99697,508.76,505.79
6.99698,508.8,508.64
6.99699,509.44,511.71
6.997,509.15,512.57
6.99701,509.12,512.65
6.99702,508.5,512.52
6.99703,506,499.99
6.99704,497.74,502.99
6.99705,508.19,505.79
6.99706,508.76,508.64
6.99707,508.8,511.71
6.99708,509.44,512.57
6.99709,509.15,512.65
6.9971,509.12,512.52
6.99711,508.5,515.2
6.99712,506,517.76
8.51195,509.2,520.41
8.53246,507.36,521.93
8.55291,505.69,520.74
8.57347,505.35,520.39
8.59797,504.28,518.91
8.61844,503.82,516.33
8.63895,502.26,512.87
8.65938,500.81,508.89
8.6799,500.05,504.91
8.7044,502.44,501.13
8.72492,509.35,498.7
8.74546,513.88,498.16
8.76596,516.7,499.53
8.78646,517.76,502.82
8.80693,519.41,506.46
8.83138,518.93,508.97
8.85194,519.14,511.97
8.87247,518.71,514.78
8.89289,517.77,517.22
8.9134,516.82,518.18
8.93786,515.05,517.34
8.95837,513.24,515.27
8.97891,511.39,512.62
8.9994,508.92,509.9
9.01982,506.73,506.72
9.04042,505.19,503.37
9.06487,503.55,501.1
9.08541,502.24,499.68
9.10592,502.19,499.54
9.12644,501.55,500.23
9.14687,501.64,502.59
9.17134,501.51,505.27
9.19179,501.21,508.62
9.2124,501.77,512.09
9.23285,502.62,513.87
9.25332,503.09,514.7
9.27376,503.67,515.16
9.29828,503.74,514.13
9.31882,503.39,512.5
9.33938,502.31,509.4
9.35981,501.65,506.32
9.38046,501.52,502.66
9.40475,500.02,499.53
9.4253,499.21,497.62
9.44579,498.37,496.9
9.46634,497.7,497.12
9.48685,497.36,497.89
9.50725,497.49,499.72
9.53175,499.39,502.17
9.55226,499.51,505.34
9.57277,498.81,508.07
9.59331,499.45,508.06
9.61379,500.16,507.64
9.63426,499.33,507.32
9.65873,497.46,506.05
9.67928,496.97,503.64
9.69982,496.77,500.91
9.72029,495.62,498.53
9.74085,493.5,495.22
9.76522,492.2,493.78
9.78576,490.96,493.82
9.80627,490.57,494.06
9.8267,491.05,496.05
9.84718,491.84,499.64
9.86767,494.07,503.11
9.89222,496.06,507.09
9.91276,498.05,510.27
9.93318,501.24,513.02
9.95368,502.39,514.61
9.97418,504.31,514.89
9.99865,505.65,514.51
10.0192,506.32,513.21
10.0397,505.66,511.17
10.0602,505.52,508.33
10.0807,504.22,505.07
10.1012,502.78,502.45
10.1256,502.82,500.96
10.1462,502.06,499.97
10.1667,502.85,500.18
10.1871,503.28,501.74
10.2076,502.82,503.99
10.2321,504.46,506.59
10.2526,505.17,509.48
10.2733,506.73,511.38
10.2937,506.99,513.7
10.3141,507.39,514.96
10.3347,507.71,515.17
10.3592,507.97,514.14
10.3797,507.98,512.71
10.4003,506.38,508.97
10.4206,504.9,505.37
10.4411,503.12,502.3
10.4616,502.1,499.44
10.4861,501.28,497.35
10.5066,501.22,496.08
10.5271,499.98,495.66
10.5476,500.58,498.13
10.5682,502.47,500.51
10.5927,503.17,504.2
10.6132,504.14,507.76
10.6337,505.51,509.81
10.6541,506.81,511.85
10.6747,507.45,513.68
10.695,507.36,514.34
10.7196,507.49,512.87
10.7401,506.99,510.1
10.7606,506.79,508.28
10.7811,505.03,505.42
10.8017,504.43,502.54
10.826,503.14,499.63
10.8465,501.51,498.31
10.8671,501.21,498.84
10.8876,500.77,500.68
10.908,501.21,502.94
10.9285,502.57,505.95
10.9531,503.86,509.16
10.9736,504.49,512.53
10.9942,506.39,515.62
11.0147,508.71,519.3
11.035,507.57,522.04
11.0594,509.26,522.43
11.08,511.4,521.35
11.1005,511.52,518.68
11.121,511.02,515.14
11.1415,510.21,510.91
11.1619,508.77,507.13
11.1865,508.22,504.5
11.2071,507.97,503.2
11.2275,507.38,502.16
11.248,506.5,502.53
11.2685,505.4,504.02
11.293,506.72,506.62
11.3135,509.18,510.3
11.3342,509.34,513.24
11.3545,509.27,514.99
11.3749,509.62,515.19
11.3955,510.1,515.35
11.42,508.88,513.88
11.4406,509.1,512.11
11.461,507.48,508.68
11.4815,506.58,504.55
11.502,505.07,501.24
11.5225,503.05,497.99
11.5469,501.44,496.79
11.5674,501.55,496.03
11.5879,501.84,496.23
11.6084,500.88,497.38
11.6289,502.1,500.11
11.6535,503.68,503.48
11.674,505.34,507.39
11.6945,505.68,509.91
11.7149,505.74,510.33
11.7354,500.19,510.46
11.756,492.75,510.37
11.7805,487.8,509.7
11.8015,485.44,507.96
11.8214,483.95,505.97
11.8419,483.16,503.97
11.8624,482.53,501.78
11.8868,482.02,499.42
11.9073,480.82,497.74
11.9279,482.06,496.19
11.9484,482.64,496.35
11.9689,484.92,498.28
11.9894,486.73,501.23
12.0139,489.99,504.58
12.0344,492.79,508.26
12.0548,495.43,511.61
12.0754,498.34,512.49
12.0959,500.48,513.39
12.1203,502.58,513.11
12.1409,503.06,511.49
12.1614,503.65,509.19
12.1818,502.92,506.15
12.2024,501.34,503.52
12.2228,500.27,500.62
12.2473,499.62,498.89
12.2679,499.49,497.92
12.2884,498.59,497.33
12.309,497.88,498.27
12.3293,498.7,500.41
12.3497,499.56,502.53
12.3743,500.45,505.42
12.3948,503.56,507.94
12.4153,504.85,509.75
12.4357,506.68,511.2
12.4563,507.34,510.76
12.4808,507.87,510.21
12.5013,507.5,508.37
12.5218,506,506.29
12.5423,504.6,505.03
12.5627,502.48,506.63
12.5832,506.38,506.3
12.6077,519.11,506.04
12.6282,531.49,506.03
12.6487,538.99,506.03
12.6694,542.39,507.62
12.6899,542.91,508.7
12.7143,542.53,511.36
12.7347,541.22,513.49
12.7552,539.58,515.39
12.7757,537.26,516.51
12.7963,534.61,516.61
12.8168,532.89,514.89
12.8413,530.71,512.91
12.8619,527.97,509.73
12.8823,523.97,506.98
12.9028,520.98,503.79
12.9232,517.18,500.03
12.9476,513.95,497.82
12.9682,511.56,496.66
12.9887,510.05,495.93
13.0093,508.84,496.54
13.0298,508.47,498.23
13.0503,507.58,500.99
13.0746,507.86,504.19
13.0953,508.89,507.95
13.1157,508.71,511.16
13.1362,508.77,512.53
13.1566,509.81,512.42
13.1812,509.45,511.54
13.2018,508.56,510.63
13.2222,507.05,508.7
13.2428,506.24,505.56
13.2632,504.79,501.85
13.2838,502.83,499.28
13.3081,502.07,496.42
13.3287,500.85,495.34
13.3492,501.68,495.27
13.3696,501.55,496.42
13.3902,502.04,500.13
13.4106,502.63,503.11
13.4351,503.9,507.09
13.4556,505.32,509.47
13.4761,504.46,511.77
13.4966,504.77,513.02
13.517,505.41,513.02
13.5416,505.53,511.61
13.5621,504.42,509.89
13.5827,504.34,507.11
13.6032,503.87,504.29
13.6235,502.5,501.03
13.6441,500.8,496.83
13.6686,499.24,494.86
13.6892,498.99,495.09
13.7096,498.19,497.27
13.7301,497.75,515.62
13.7505,497,556.09
13.7751,498.8,608.87
13.7955,498.44,653.7
13.8161,495.15,681.76
13.8366,489.92,697.61
13.8571,485.74,698.09
13.8776,481.19,683.87
13.902,475.95,662.5
13.9226,468.36,636.2
13.9433,461.89,608.96
13.9636,457.11,584.77
13.9841,456.29,563.01
14.0085,458.03,543.01
14.0291,457.83,527.61
14.0497,459.46,516.69
14.07,462.97,510.35
14.0905,469.57,508.08
14.1109,474.66,508.66
14.1357,478.93,512.53
14.1561,482.74,528.22
14.1765,485.99,553.98
14.1971,490.2,578.38
14.2175,493.96,579.71
14.238,497.96,547.97
14.2625,506.97,495.37
14.283,518.58,438.5
14.3035,533.66,390.2
14.324,546.93,361.16
14.3445,555.34,346.53
14.3689,558.67,341.22
14.3895,556.74,343.38
14.4099,555.79,351.3
14.4304,551.83,363.44
14.4509,548.07,376.95
14.4715,544.45,391.36
14.4959,542.36,405.69
14.5165,539.69,420.15
14.537,535.75,433.52
14.5575,531.8,445.62
14.5779,529.84,454.89
14.6024,527.67,462.92
14.6229,524.54,468.33
14.6434,521.63,472.27
14.6639,518.3,475.61
14.6845,515.04,479.69
14.7049,510.44,481.55
14.7294,511.35,484.04
14.7499,510.68,486.03
14.7704,510.54,487.83
14.7909,509.23,490.86
14.8114,508.59,495.69
14.8359,509.27,499.75
14.8564,510.22,504.6
14.8769,511.17,508.48
14.8975,511.54,511.58
14.918,511.43,512.47
14.9385,511.74,513.17
14.9629,510,512.54
14.9834,508.8,511.03
15.004,507.44,508.83
15.0245,505.75,505.66
15.0448,503.8,502.73
15.0693,502.24,499.18
15.0898,500.59,497.75
15.1104,499.07,497
15.131,499.26,497.4
15.1515,499.21,498.92
15.172,500.37,501.53
15.1964,500.09,504.83
15.217,502.47,509.26
15.2376,503.98,514.01
15.2579,503.78,516.41
15.2784,503.63,517.93
15.2989,503.3,518.34
15.3233,503.84,516.87
15.344,503.07,514.5
15.3643,502.06,512
15.3848,500.25,508.2
15.4055,499,504.16
15.4298,498.4,501.33
15.4505,497.32,499.06
15.471,496.45,498.45
15.4914,497.36,498.76
15.5119,498.89,499.61
15.5323,499.91,501.89
15.5569,500.53,504.11
15.5774,502.42,506.89
15.5977,504.14,509.91
15.6182,504.11,511.53
15.6387,504.49,513.22
15.6632,504.79,512.98
15.6838,504.63,512.78
15.7043,503.91,510.43
15.7249,503.73,507.54
15.7452,501.98,504.63
15.7658,499.78,500.91
15.7903,498.23,498.72
15.8108,497.38,496.58
15.8312,497.51,496.66
15.8519,499,497.73
15.8722,500.4,499.98
15.8967,501.92,502.99
15.9173,503.14,506.59
15.9377,504.91,509.67
15.9583,505.93,511.74
15.9788,506.54,513.79
15.9993,506.63,515.03
16.0236,506.71,514.43
16.0443,505.77,513.14
16.0648,504.41,510.91
16.0853,504.13,508.53
16.1058,502.5,505.22
16.1263,501.4,501.58
16.1508,500.12,499.26
16.1711,498.1,498.01
16.1918,497.48,497.41
16.2122,498.58,498.33
16.2327,499.87,501.26
16.2573,500.49,504.41
16.2777,502.19,507.33
16.2983,503.36,510.06
16.3187,504.68,512.45
16.3392,505.15,513.16
16.3597,505.12,513.33
16.3843,505.29,511.46
16.4047,505.24,509.77
16.4253,503.99,507.02
16.4456,501.99,504.41
16.4662,501.19,501.33
16.4906,498.95,499.66
16.5112,497.96,497.73
16.5316,497.77,497.19
16.5521,497.22,497.75
16.5726,497.57,499.6
16.5931,498.06,502.48
16.6176,500.05,506.38
16.6381,501.64,509.91
16.6587,502.31,513.33
16.679,503.25,515.46
16.6996,504,516.17
16.724,504.4,516.33
16.7446,505.12,514.47
16.7651,504.5,511.97
16.7856,503.4,508.78
16.8061,502.32,506.62
16.8266,501.25,503.1
16.851,499.8,501.08
16.8715,498.84,499.26
16.8922,498.67,498.61
16.9125,498.74,498.89
16.933,499.19,502.71
16.9575,500.55,518.57
16.9782,501.84,552.45
16.9987,501.67,594.36
17.019,497.34,637.89
17.0396,489.07,662.11
17.06,478.66,672.09
17.0845,468.13,667.47
17.1051,459.5,651.98
17.1255,452,626.78
17.1461,449.2,602.83
17.1667,448.56,581.26
17.187,449.85,561.01
17.2116,453.08,543.61
17.232,456.46,531.09
17.2526,461.17,520.47
17.2731,465.34,514.77
17.2936,470.67,510.42
17.318,474.74,509.14
17.3384,479.59,507.51
17.3591,484.27,510.21
17.3795,488.02,519.37
17.4001,490.81,543.09
17.4204,493.25,576.27
17.4449,493.2,599.82
17.4655,495.76,596.06
17.4859,503.81,563.84
17.5064,516.45,513.48
17.5269,532.56,457.78
17.5514,549.05,409.02
17.572,560.04,379.62
17.5925,568.83,364.9
17.6131,571.26,359.92
17.6335,571.81,362.53
17.654,569.25,372.03
17.6785,566,382.42
17.6991,562.4,394.74
17.7194,558.32,407.39
17.7399,553.86,420.71
17.7605,549.48,431.37
17.785,544.59,440.9
17.8054,539.27,448.12
17.8259,534.22,453.29
17.8464,529.37,457.43
17.8669,525.5,461.15
17.8875,521.8,464.52
17.9119,516.84,468.21
17.9325,513.67,470.57
17.9529,510.74,473.06
17.9734,509.79,477.05
17.9938,508.43,482.44
18.0144,508.55,488.55
18.0389,507.84,493.64
18.0595,508.27,499.11
18.0799,509.62,503.09
18.1004,509.49,507.07
18.1209,509.19,509.26
18.1453,508.96,509.61
18.1659,507.76,509.08
18.1864,506.01,506.87
18.2069,504.81,505.29
18.2273,503.45,502.84
18.2478,502.96,500.07
18.2723,501.57,498.85
18.2929,500.25,498.08
18.3134,499.2,498.07
18.3338,499.16,499.65
18.3543,499.33,501.52
18.3788,500.46,504.42
18.3993,501.97,507.13
18.4198,503.38,510.51
18.4403,504.3,513.81
18.461,503.04,515.64
18.4814,503.83,515.92
18.5059,503.67,514.53
18.5264,502.33,512.03
18.5467,501.67,510.02
18.5673,500.33,507.22
18.5877,499.67,503.97
18.6122,498.73,500.98
18.6328,498.19,498.38
18.6533,497.55,497.71
18.6738,496.84,496.97
18.6943,498.87,498.57
18.715,499.5,500.86
18.7392,501.4,503.69
18.7597,503.72,506.55
18.7802,504.77,509.24
18.8007,506.02,510.99
18.8212,506.82,512.59
18.8456,506.65,512.47
18.8662,505.52,511.58
18.8867,505.02,510.26
18.9072,503.01,507.81
18.9276,501.81,504.45
18.9482,501.25,501.16
18.9726,501.4,498.33
18.9932,499.32,497.26
19.0137,498.66,496.21
19.0342,498.52,496.77
19.0547,499.82,498.41
19.0751,501.06,502.13
19.0997,503.24,505.1
19.1202,505,509.68
19.1407,506,512.95
19.1612,505.4,515.56
19.1819,506.52,516.85
19.2061,505.01,517.08
19.2267,504.81,516.26
19.2472,504.65,514.61
19.2677,503.12,511.09
19.2881,502.7,507.67
19.3087,500.76,504.74
19.3332,500.81,501.99
19.3537,499.44,499.59
19.3744,499.36,499.27
19.3947,499.88,500.42
19.4151,500.31,501.93
19.4397,501.65,505.15
19.4602,503.92,508.12
19.4807,505.53,510.69
19.5012,507.23,513.56
19.5217,509.78,515.04
19.542,509.83,516.24
19.5667,509.46,515.19
19.5871,508.37,512.95
19.6077,506.89,510.96
19.6281,504.52,507.77
19.6486,503.21,504.21
19.673,501.37,501.37
19.6936,499.7,499.7
19.7141,498.36,498.76
19.7346,498.09,498.41
19.7552,497.67,499.53
19.7755,498.33,501.42
19.8001,499.87,504.74
19.8206,501.69,507.99
19.841,503.96,510.39
19.8616,505.16,512.11
19.882,507.33,513.69
19.9026,508.27,514.35
19.9271,507.61,513.88
19.9476,506.29,512.51
19.9681,505.43,509
19.9886,503.75,505.8
20.009,503,502.84
20.0336,499.8,500.47
20.054,497.84,498.98
20.0746,496.47,498.58
20.0952,496.38,498.27
20.1157,496.9,499.41
20.136,497.52,501.73
20.1606,498.62,505.58
20.181,500.29,509.07
20.2015,501.83,511.65
20.222,502.07,514.32
20.2424,503.65,515.26
20.2669,503.92,515.61
20.2875,504.34,513.89
20.3082,504.67,511.71
20.3286,503.54,508.37
20.349,501.83,504.89
20.3696,501.26,500.71
20.3939,499.81,497.77
20.4146,498.25,495.62
20.435,498.2,495.09
20.4554,499.76,496.08
20.4759,501.01,509.66
20.5004,501.61,541.53
20.5209,500.88,580.42
20.5414,497.71,616.74
20.5619,491.77,640.39
20.5824,484.41,651.11
20.6029,474.13,645.89
20.6274,466.1,632.71
20.6481,459.88,616.17
20.6685,457.31,598.34
20.689,456.45,580.47
20.7094,457.16,563.77
20.7338,458.93,549.02
20.7545,461.94,537.62
20.7749,465.55,527.89
20.7955,469.64,523.91
20.8159,472.71,532.93
20.8364,476.57,557.55
20.8609,480.06,589.24
20.8814,482.85,610.19
20.9019,487.48,609.15
20.9224,494.78,583.72
20.9429,506.42,541.18
20.9674,522.94,492.14
20.9879,538.15,444.51
21.0085,551.32,409.01
21.0289,559.46,387.81
21.0493,562.77,377.85
21.0698,564.41,373.28
21.0944,561.73,374.02
21.115,557.58,378.82
21.1354,552.27,386.05
21.1559,547.81,394.84
21.1764,543.25,405.67
21.1968,539.4,417.54
21.2214,535.12,429.83
21.2418,533.7,441.87
21.2623,531.16,452.69
21.2828,529.73,462.15
21.3033,528.38,468.32
21.3278,525.5,473.26
21.3483,523.4,476.81
21.3689,521.32,479.05
21.3893,518.26,480.24
21.4098,514.81,480.19
21.4303,512.65,480.55
21.4548,509.72,481.44
21.4753,507.77,481.75
21.4958,505.02,483
21.5163,504.21,485.6
21.5367,503.57,489.48
21.5612,503.46,494.59
21.5818,505.17,499.27
21.6024,506.13,503.41
21.6227,506.71,507.53
21.6433,507.97,510.23
21.6639,507.17,511.58
21.6882,506.74,511.46
21.7087,506.59,511.17
21.7292,505.67,509.14
21.7497,505.74,507.11
21.7702,504.19,504.49
21.7946,502.15,501.79
21.8152,502.12,500.63
21.8358,501.3,499.51
21.8563,501.24,498.8
21.8768,501.79,500.04
21.8972,503.23,501.63
21.9217,505.19,504.51
21.9422,504.75,507.41
21.9627,505.2,510.33
21.9833,505.56,512.86
22.0036,506.65,514.49
22.0281,507.52,514.79
22.0487,507.21,514.63
22.0692,506.17,512.91
22.0897,505.54,510.32
22.1102,505.43,507.26
22.1308,504.94,502.41
22.1551,502.56,498.93
22.1757,501.44,497.34
22.1962,500.56,496.47
22.2167,499.64,496.78
22.2371,499.92,498.02
22.2617,499.73,500.82
22.2821,500.79,504.05
22.3027,501.43,507.64
22.3232,502.94,511.11
22.3436,504.55,513.09
22.3641,504.64,514.27
22.3886,504.91,513.42
22.4092,504.33,512.34
22.4297,504.27,510.07
22.4501,502.41,507.25
22.4706,501.13,504.2
22.4912,500.3,500.76
22.5156,500.04,498.01
22.5361,499.03,496.41
22.5566,498.23,495.33
22.5771,498.78,495.26
22.5975,500.23,497.01
22.6221,500.58,500.21
22.6425,504.26,503.97
22.6631,505.81,506.37
22.6835,507.45,508.5
22.704,507.76,511.2
22.7245,507.61,512.16
22.749,506.49,512.93
22.7697,506.39,511.74
22.7901,506.51,509.59
22.8107,505.61,506.67
22.831,504.49,504.14
22.8555,502.99,501.31
22.876,500.79,499.85
22.8965,500.23,499.48
22.917,499.19,499.18
22.9375,500.15,500.95
22.958,500.92,503.36
22.9825,501.74,507.49
23.0031,502.79,511.79
23.0235,503.63,515.03
23.0441,503.7,517.82
23.0647,505.36,519.66
23.089,506.89,519.93
23.1096,507.51,519.34
23.1301,506.41,517.67
23.1506,505.13,515.54
23.171,504.7,512.83
23.1916,503.36,509.67
23.2161,502.89,506.73
23.2366,500.71,504.19
23.2571,498.97,502.55
23.2775,499.38,502.44
23.298,499.9,502.95
23.3185,500.52,504.96
23.3431,501.82,507.57
23.3635,502.85,510.05
23.384,504.68,512.44
23.4045,505.55,514.56
23.4249,506.84,514.44
23.4495,506.07,515.16
23.47,505.46,514.12
23.4904,504.36,512.3
23.5109,502.29,510.04
23.5314,501.83,506.43
23.5519,500.27,503.55
23.5764,498.81,500.84
23.5969,497.65,499.67
23.6175,496.12,500.54
23.638,497.5,501.03
23.6584,498,501.62
23.6831,499.2,502.7
23.7035,500.56,507.56
23.7241,501.65,528.85
23.7445,502.92,566.88
23.7649,499.53,602.9
23.7855,494.43,633.72
23.8098,486.54,645.38
23.8305,478.63,655.5
23.8509,472.11,650
23.8714,466.89,640.4
23.8919,462.51,621.12
23.9164,460.01,601.7
23.9369,460.41,582.76
23.9575,461.32,567.21
23.9779,462.66,555.76
23.9984,466.13,545.41
24.019,469.7,538.33
24.0433,473.56,532.46
24.064,477.65,530.37
24.0843,482.12,529.7
24.1048,486.7,534.96
24.1253,489.36,557.57
24.1498,491.49,585.85
24.1704,491.79,607.48
24.1908,493.43,611.79
24.2114,495.94,591.43
24.232,502.96,550.34
24.2522,510.96,495.27
24.2769,521.97,439.42
24.2974,532.78,392.74
24.3179,541.42,363.99
24.3384,549.54,349.79
24.3588,552.43,348.03
24.3793,552.74,354.43
24.4037,553.2,364.34
24.4243,551.56,376.27
24.4448,548.44,389.62
24.4652,544.56,402.89
24.4857,540.84,415.52
24.5102,537.68,426.41
24.5308,534.54,435.93
24.5514,530.23,443.54
24.572,526.59,450.44
24.5922,522.47,455.35
24.6128,521.78,460.28
24.6372,519.42,463.62
24.6578,517.14,467.5
24.6782,514.31,471.6
24.6988,512.65,475.88
24.7192,511.72,481.5
24.7436,510.77,486.6
24.7642,510.42,492.68
24.7847,511.34,498.35
24.8052,512.67,503.28
24.8257,512.13,507.22
24.8462,510.91,510.18
24.8707,508.93,511.14
24.8913,508.54,511.31
24.9119,508.03,509.65
24.9322,506.63,507.52
24.9528,504.9,504.02
24.9773,502.52,501.01
24.9977,500.82,498.61
25.0183,499.05,497.29
25.0388,499.44,497.23
25.0592,499.55,498.18
25.0796,501.04,500.75
25.1041,501.03,502.6
25.1248,503.23,506.88
25.1453,505.18,510.3
25.1659,505.75,513.84
25.1862,506,514.67
25.2106,506.2,514.94
25.2312,506.96,514.55
25.2519,505.77,513.64
25.2721,504.21,511.71
25.2926,502.77,508.57
25.3131,502.22,504.86
25.3376,502.57,501.48
25.3581,501.26,498.79
25.3786,499.41,497.63
25.3992,499.73,497.5
25.4197,500.78,498.6
25.4402,502.22,500.68
25.4646,502.78,503.55
25.4853,503.22,506.84
25.5056,504.18,509.87
25.5261,505.34,512.5
25.5467,505.27,513.8
25.5711,506.02,514.04
25.5918,504.82,514.03
25.6121,504.45,511.62
25.6326,503.56,509.1
25.6531,502.05,506.28
25.6735,500.04,503.42
25.698,499.03,500.34
25.7185,499.03,498.27
25.7391,498.62,497.62
25.7597,498.1,498.89
25.7802,498.48,501.71
25.8046,499.38,504.77
25.8251,498.91,507.22
25.8456,499.52,510.97
25.866,500.62,514.38
25.8866,502.1,517.7
25.9072,502.28,518.76
25.9316,500.82,518.41
25.952,499.66,517.33
25.9726,499.73,515.26
25.9931,499.18,511.81
26.0135,498.34,507.65
26.038,496.88,503.72
26.0585,496.7,501.57
26.079,496.76,500.06
26.0996,495.81,499.45
26.1201,496.25,500.16
26.1405,495.8,501.93
26.165,496.44,504.54
26.1856,498.55,506.83
26.2061,500.04,509.47
26.2266,501.23,512.57
26.2471,502.39,513.86
26.2675,503.31,514.89
26.2921,503.05,514.51
26.3126,502.84,512.41
26.3329,502.27,510.93
26.3535,500.42,508.34
26.374,499.73,504.07
26.3985,498.99,500.66
26.419,498.39,498.53
26.4394,497.11,497.02
26.46,497.29,496.02
26.4805,498.03,498.41
26.501,498.82,501.13
26.5255,499.86,504.5
26.5461,500.69,507.8
26.5666,501.75,510.64
26.587,503.6,513.11
26.6075,503.88,514.09
26.6319,504.1,514.47
26.6524,504.48,513.58
26.6729,502.39,512.46
26.6934,502.11,509.57
26.7139,500.69,506.86
26.7345,499.75,503.09
26.7588,499.8,500.07
26.7795,500.44,497.65
26.8,499.95,496.32
26.8205,498.96,496.86
26.8409,499.17,498.49
26.8654,499.14,500.79
26.8859,500.91,503.03
26.9065,501.93,506.63
26.9268,503.14,509.3
26.9473,504.51,511.24
26.9679,504.81,512.19
26.9924,504.65,512.15
27.0129,505.12,513.92
27.0335,504.09,526.74
27.0538,502.48,556.39
27.0744,499.58,592.11
27.0949,491.66,618.89
27.1193,478.93,632.91
27.1399,465.55,639.33
27.1604,454.44,635.46
27.1808,448.15,630.77
27.2014,444.12,617.22
27.2258,442.7,601.57
27.2463,445.96,586.66
27.2668,452.17,573.53
27.2873,457.13,563.62
27.3078,461.91,555.3
27.3282,466.92,546.04
27.3528,470.94,537.63
27.3733,475.15,530.5
27.3938,478.32,522.4
27.4144,480.26,516.72
27.4349,483.61,513.38
27.4593,484.08,507.7
27.4798,484.27,503.56
27.5002,484.61,502.05
27.5208,486.69,502.04
27.5412,489.55,506.43
27.5619,492.04,523.75
27.5864,496.03,551
27.6067,497.03,574.6
27.6272,499.02,579.28
27.6477,501.82,556.22
27.6683,509.85,517.78
27.6928,520.48,472.22
27.7133,534.99,429.98
27.7339,547.79,399.38
27.7543,559.03,382.31
27.7747,565.03,374.64
27.7952,566.62,373.32
27.8197,565.5,375.45
27.8403,561.6,380.76
27.8607,557.48,389.61
27.8812,552.38,400.09
27.9019,548.71,410.87
27.9263,544.56,422.9
27.9467,541.65,435.32
27.9672,538.92,447.25
27.9877,535.74,459
28.0083,531.99,468.6
28.0288,531.79,476.28
28.0532,530.23,480.83
28.0738,528.39,484.06
28.0942,526.31,486.65
28.1148,523.25,487.12
28.1351,519.4,487.49
28.1597,516.72,486.8
28.1802,513.97,486.04
28.2008,511.78,486.23
28.2211,510.22,487.38
28.2418,508.78,489.71
28.2623,506.22,493.37
28.2867,505.38,496.69
28.3073,506.9,500.15
28.3277,508.32,504.32
28.3481,510.66,508.86
28.3687,512.33,511.69
28.3891,513.26,513.15
28.4137,512.61,513.52
28.4341,510.89,512.62
28.4546,509.31,510.69
28.4751,507.45,508.35
28.4956,504.96,504.48
28.52,503.77,501.19
28.5407,502.41,499.15
28.5611,500.93,497.92
28.5816,500.94,497.74
28.6021,500.36,498.99
28.6226,501.28,501.39
28.6471,501.43,503.91
28.6675,502.74,506.93
28.688,503.39,510.74
28.7086,502.51,512.8
28.729,501.81,513.84
28.7535,502.25,514.47
28.774,502.2,513.58
28.7947,502.36,512.06
28.8152,500.89,509.45
28.8355,499.31,505.96
28.856,498.05,502.57
28.8805,497.44,499.45
28.9014,497.35,497.56
28.9216,497.28,497.25
28.942,496.62,497
28.9626,496.9,499.2
28.987,497.12,501.36
29.0075,498.3,504.69
29.0282,500.84,508.55
29.0486,501.67,511.04
29.0691,504.34,513.03
29.0895,505.67,514.43
29.1141,506.33,515.54
29.1346,506.47,513.23
29.1551,506.17,510.59
29.1755,505.34,508.87
29.1961,503.67,507.5
29.2165,503.34,503.8
29.2411,502.27,502.84
29.2615,501.82,502.07
29.282,501.05,502.86
29.3024,500.44,506.68
29.323,494.75,509.15
29.3474,487.8,512.32
29.3679,482.44,515.25
29.3884,481.55,517.6
29.409,482.64,520.88
29.4295,482.31,521.31
29.4499,483.65,522.25
29.4744,484.92,520.6
29.4949,485.34,518.48
29.5154,486.47,515.58
29.5359,487.18,510.27
29.5565,486.74,506.01
29.581,493.99,501.81
29.6014,501.99,498.45
29.6218,506.6,496.36
29.6425,509.48,494.49
29.6629,511.38,494.79
29.6834,512.9,496.63
29.7079,514.12,499.11
29.7288,515.1,502.88
29.7489,516.08,506.31
29.7694,516.26,509.25
29.7899,515.21,511.8
29.8143,513.17,512.64
29.8348,512.73,512.11
29.8555,512.79,510.69
29.8759,512.43,507.55
29.8964,511.14,504.04
29.917,508.52,501.23
29.9414,506.81,498.39
29.9619,505.45,496.91
29.9823,504.36,496.53
30.0028,503.69,496.82
30.0234,502.35,498.26
30.0478,502.28,501.01
30.0684,502.62,504.2
30.0888,503.5,507.56
30.1094,504.6,510.85
30.13,505.68,512.48
30.1504,506.54,514.18
30.1749,507.03,514.35
30.1953,507.63,513.48
30.2159,506.1,510.98
30.2363,503.88,507.99
30.2568,502.11,504.79
30.2772,501.28,501.23
30.3018,500.23,498.38
30.3224,498.98,497.31
30.343,499.19,497.25
30.3633,499.55,497.8
30.3838,499.24,499.84
30.4082,500.19,502.27
30.4288,502.15,505.02
30.4494,503.92,508.81
30.4699,505.34,515.25
30.4903,506.47,537
30.5108,507.98,569.6
30.5355,505.98,627.08
30.5558,496.98,671.06
30.5763,483.79,692.85
30.5968,470.63,701.28
30.6173,461.5,686.42
30.6418,452,662.94
30.6622,447,638.75
30.6827,444.8,611
30.7033,445.24,588.2
30.7237,448.59,568.56
30.7442,452.87,552.85
30.7688,457.7,539.68
30.7893,464.16,531.94
30.8097,470.53,526.15
30.8302,475.62,521.12
30.8507,479.7,518.1
30.8752,483.36,516.28
30.8957,486.49,512.82
30.9162,488.79,508.66
30.9367,488.83,505.13
30.9572,490.47,504.7
30.9778,491.77,502.96
31.0022,493.02,507.97
31.0228,492.21,524.78
31.0433,491.77,545.42
31.0637,491.02,550.34
31.0842,494.61,532.87
31.1047,502.89,498.1
31.1292,517.91,456.48
31.1497,535.13,419.58
31.1701,550.3,397.46
31.1907,562.64,388.37
31.2112,567.91,386.5
31.2356,569.33,388.4
31.2563,567.67,392.92
31.2767,564.33,398.73
31.2972,558.67,405.39
31.3177,553.33,411.71
31.3382,547.87,418.37
31.3626,541.29,421.29
31.3831,535.23,425.84
31.4037,532.79,432.07
31.4241,530.23,439.05
31.4445,527.58,447.44
31.4691,526.27,456.76
31.4896,525.21,465.4
31.5101,524.77,473.92
31.5306,523.82,481.34
31.5511,523.25,486.67
31.5716,521.8,491.34
31.596,518.44,494.47
31.6166,516.75,496.18
31.6372,514.8,496.54
31.6576,512.24,496.23
31.6781,510.19,494.39
31.7025,508.16,492.51
31.723,505.32,492.41
31.7436,504.06,492.53
31.764,502.25,493.82
31.7846,502.8,495.46
31.805,503.64,498.17
31.8296,504.71,500.93
31.8501,505.57,505.55
31.8706,506.25,509.04
31.8913,506,512.83
31.9115,507.2,514.86
31.936,508.36,515.49
31.9565,508.09,514.19
31.9771,507.47,511.95
31.9977,506.78,509.16
32.0181,505.42,507.13
32.0385,503.94,504.1
32.0629,501.95,501.28
32.0835,500.56,498.63
32.104,499.65,497.1
32.1245,498.32,497.48
32.1449,499.65,498.19
32.1655,500.52,499.75
32.19,502.62,503.4
32.2106,505.1,506.72
32.231,506.48,510.38
32.2517,508.18,512.9
32.2719,508.94,513.92
32.2965,508.96,514.74
32.3169,508.16,513.79
32.3375,507.13,511.63
32.3579,506.51,508.7
32.3785,504.8,505.76
32.399,503.84,502.41
32.4234,503.07,500.53
32.4441,502.26,498.42
32.4645,501.41,496.74
32.485,500.73,496.39
32.5054,501.38,497.91
32.53,501.5,500.93
32.5505,501.8,503.54
32.571,502.24,506.84
32.5914,502.59,509.87
32.612,503.28,512.69
32.6324,503.22,514.16
32.6568,502.78,515.12
32.6775,502.82,515.5
32.6979,501.66,514
32.7184,501.33,510.2
32.7388,500.86,507.56
32.7633,501.09,505.05
32.7839,499.67,503.24
32.8044,498.14,501.79
32.825,498.11,500.83
32.8454,497.69,501.27
32.8659,497.75,503.21
32.8904,499.8,506.77
32.911,501.44,510.62
32.9313,502.15,513.89
32.9518,502.32,516.71
32.9724,503.86,517.97
32.9929,504.09,518.58
33.0173,503.27,518.26
33.0378,502.41,516.81
33.0586,501.53,513.85
33.0789,500.23,509.88
33.0994,499.18,505.3
33.1239,498.14,501.24
33.1445,496.92,498.39
33.1649,496.33,496.71
33.1854,496.47,495.57
33.2058,497.37,495.46
33.2263,498.1,497.17
33.2509,499.48,500.33
33.2714,502.18,503.27
33.292,504.15,506.21
33.3124,506.12,508.37
33.333,507.29,509.9
33.3573,508.03,511.52
33.3779,508.43,511.01
33.3983,507.34,510.01
33.4188,506.27,508.21
33.4393,505.22,505.57
33.4598,503.38,502.45
33.4843,502.3,499.76
33.5048,500.64,497.61
33.5256,497.71,496.29
33.546,498.37,495.83
33.5662,497.7,497.26
33.5908,497.56,499.61
33.6112,499.45,503.09
33.632,500.36,506.07
33.6523,502.09,509.46
33.6727,504.27,511.97
33.6932,504.81,512.77
33.7178,505.25,514.22
33.7382,505.2,526.37
33.7588,504.56,558.7
33.7793,502.65,599.76
33.7997,497.92,636.81
33.8242,489.54,656.25
33.8447,481.03,655
33.8653,470.82,648
33.8857,461.06,632.4
33.9062,454.25,613.52
33.9267,451.8,591.61
33.9512,453.44,577.89
33.9718,456.95,562.71
33.9922,460.76,552.17
34.0127,465.41,544.14
34.0332,469.33,543.71
34.0537,473.26,543.57
34.0782,473.41,539.45
34.0987,472.53,535.36
34.1191,473.22,531.49
34.1398,475.18,526.39
34.1603,476.74,521.31
34.1846,477.79,518.25
34.2051,480.03,518.4
34.2257,482.63,526.92
34.2461,483.9,541.54
34.2667,482.92,548.43
34.2872,489.94,529.74
34.3117,503.15,491.79
34.3323,521.32,450.04
34.3527,539.46,414.23
34.3732,553.76,393.78
34.3937,563.61,385.83
34.4181,567.69,384.06
34.4387,567.55,385.85
34.4591,565.04,390.88
34.4796,561.23,396.9
34.5001,554.79,403.12
34.5205,549.23,409.7
34.5451,543.38,416.96
34.5656,538.11,423.57
34.5863,532.09,429.25
34.6066,526.27,436.6
34.6272,526.61,444.08
34.6515,526.49,453.07
34.6722,526.79,462.25
34.6926,525.83,470.8
34.7131,524.07,477.84
34.7335,523.65,484.87
34.7541,522.52,490.3
34.7786,521.42,494.04
34.7992,519.33,496.83
34.8196,516.47,498.06
34.84,513.97,497.65
34.8606,510.98,496.92
34.885,508.18,495.74
34.9055,506.55,494.19
34.926,503.64,492.95
34.9465,502.31,493.36
34.9671,502.45,494.69
34.9874,502.16,496.55
35.0119,502.53,500.44
35.0326,503.42,504.75
35.0532,504.74,508.8
35.0736,505.39,512.04
35.094,506.31,514.83
35.1145,506.65,516.47
35.139,506.72,516.37
35.1595,506.58,515.9
35.18,507.06,514.52
35.2004,506.05,511.82
35.221,505.24,508.65
35.2455,503.59,505.52
35.266,502.27,502.02
35.2865,501.42,499.41
35.3069,501.13,497.53
35.3275,502.91,496.62
35.3479,499.53,497.1
35.3724,493.62,499.48
35.393,490.5,502.18
35.4135,490,505.15
35.4339,489.4,508.92
35.4544,489.92,511.93
35.4788,491.53,513.15
35.4995,491.23,512.72
35.52,491.18,512.17
35.5404,491.55,510.14
35.5609,492.64,508.31
35.5814,491.11,505.65
35.6059,492.09,501.92
35.6265,491.67,499.14
35.6469,491.94,497.11
35.6674,490.35,499.29
35.6879,493.28,500.83
35.7123,501.22,503.46
35.7329,506.78,506.57
35.7534,509.42,509.06
35.774,511.54,512.25
35.7945,514.43,514.6
35.8148,515.74,515.28
35.8393,515,515.82
35.8599,512,515.06
35.8805,509.6,513.25
35.9009,509.88,510.8
35.9213,509.3,506.64
35.9458,507.44,502.71
35.9663,507.15,500.17
35.9868,506.12,497.13
36.0073,504.5,493.91
36.0278,504.2,492.13
36.0484,506.36,494.1
36.0727,506.89,497.08
36.0934,505.91,497.66
36.1139,506.13,497.33
36.1343,509.7,499.27
36.1549,513.16,502.01
36.1753,514.73,504.01
36.1999,512.58,505.61
36.2203,510.67,505.89
36.241,510.73,504.91
36.2613,509.99,504.93
36.2819,508.39,502.94
36.3063,505.51,499.15
36.3268,503.61,496.72
36.3473,502.09,495.78
36.3678,501.87,494.82
36.3884,500.7,494.26
36.4088,500.56,495.21
36.4333,500.05,500.37
36.4537,501.04,509.89
36.4743,501.83,516.91
36.4947,503.46,521.73
36.5152,504.37,524.78
36.5398,504.1,526.83
36.5603,504.68,526.86
36.5808,504.54,524.89
36.6013,503.83,522.11
36.6218,502.67,518.89
36.6422,501.73,515.51
36.6667,501.59,511.21
36.6872,501.07,507.57
36.7077,500.26,504.85
36.7283,499.2,503.48
36.7487,499.16,502.79
36.7732,500.73,504.03
36.7938,501.38,506.62
36.8144,502.11,508.9
36.8348,503.69,511.12
36.8552,504.55,513.7
36.8756,506.04,516.16
36.9002,506.43,517.32
36.9207,506.55,516.66
36.9413,506.84,514.93
36.9617,506.67,512.34
36.9822,504.54,508.87
37.0067,502.43,505.1
37.0272,501.14,508.28
37.0477,499.71,530.62
37.0681,497.57,563.7
37.0886,491.26,596.16
37.1091,482.81,624.33
37.1337,472.44,640.86
37.1542,463.16,645.29
37.1747,454.92,643.23
37.1951,449.54,636.39
37.2156,445.83,628.71
37.2361,443.07,615.17
37.2606,442.45,601.13
37.2811,446.56,587.51
37.3017,449.85,572.41
37.3221,453.68,560.52
37.3426,458.14,548.82
37.3671,460.32,538.66
37.3876,464.45,530.32
37.4082,466.96,521.06
37.4287,468.37,514.45
37.4492,468.7,513.16
37.4697,470.36,516.53
37.4942,473.09,534.02
37.5146,475.67,563.02
37.5351,477.33,589.01
37.5556,482.07,589.21
37.576,493.05,559.57
37.6005,510.44,513.65
37.6212,531.75,461.52
37.6417,553.2,415.02
37.6621,571.76,385.82
37.6825,585.01,369.45
37.703,589.21,361.16
37.7275,588.57,360.53
37.7481,584.65,364.82
37.7686,579.12,371.06
37.789,572.1,380.45
37.8096,565.48,391.56
37.834,559.98,403.05
37.8545,553.39,415.84
37.8751,548.51,428.87
37.8956,543.61,441.5
37.9162,539.89,453.2
37.9365,537.11,463.36
37.961,532.89,471.89
37.9815,529.11,478.51
38.0021,526.29,483.81
38.0225,523.63,487.45
38.043,521.7,489.16
38.0675,518.16,489.73
38.088,514.33,489.78
38.1087,511.66,488.82
38.1291,509.93,488.46
38.1495,507.15,488.17
38.1699,506.52,489.93
38.1945,505.41,492.75
38.2149,505.93,496.8
38.2355,505.34,501.24
38.2559,504.88,505.39
38.2765,504.5,508.91
38.2969,506.2,512.13
38.3214,506.76,514.1
38.342,506.41,515.08
38.3626,506.33,514.47
38.3831,505.86,512.37
38.4035,505.29,509.5
38.428,504.43,507.2
38.4484,501.95,504.16
38.4689,501.56,500.93
38.4895,499.24,498.74
38.5099,498.2,497.99
38.5306,496.56,497.59
38.5548,496.65,499.28
38.5755,497.32,501.82
38.596,499.25,505.26
38.6166,502.4,508.21
38.637,503.52,511.56
38.6614,504.42,514.25
38.6819,505.13,514.6
38.7025,506.51,514.28
38.723,506.21,512.82
38.7435,505.76,510.46
38.7639,504.61,508.17
38.7883,503.29,504.73
38.8089,502.63,500.79
38.8294,500.71,498.03
38.85,499.16,496.02
38.8705,498.33,495.22
38.8949,497.67,494.98
38.9155,498.13,497.58
38.936,497.71,500.86
38.9564,498.16,504.09
38.9768,499.33,508.07
38.9975,500.67,510.26
39.0218,502.53,512.21
39.0423,501.83,512.97
39.063,502.26,512.97
39.0833,501.81,511.78
39.1038,502.05,509.62
39.1283,501.44,507.9
39.1488,500.95,504.72
39.1694,500.16,501.37
39.1899,499.33,498.9
39.2103,499.26,497.32
39.2307,499.01,497.26
39.2554,498.81,497.8
39.2757,498.85,499.84
39.2964,499.48,502.48
39.3169,500.98,504.78
39.3374,502.99,507.82
39.3578,504.59,511.06
39.3822,505.67,513.05
39.4028,506.94,513.64
39.4233,506.75,512.91
39.4439,506,510.93
39.4643,506.6,508.74
39.4888,505.08,505.99
39.5093,504.46,502.6
39.5298,503.57,498.68
39.5504,502.46,495.94
39.5708,500.97,494.15
39.5912,500.77,494.72
39.6157,500.62,496.38
39.6363,501.49,499.3
39.6568,502.2,503.24
39.6772,502.76,506.59
39.6977,503.61,510.27
39.7221,505.28,512.22
39.7427,506.23,513.98
39.7634,506.18,514.38
39.784,505.15,514.1
39.8043,505.12,513.28
39.8248,503.69,510.43
39.8493,502.75,508.14
39.8697,501.2,504.11
39.8904,499.76,500.69
39.9107,500.01,498.75
39.9312,499.41,497.4
39.9558,501.13,498.12
39.9762,501.1,499.5
39.9968,501.88,502.4
40.0171,502.1,505.52
40.0376,504.28,509.81
40.0583,505.83,513.65
40.0827,506.86,515.72
40.1033,507.09,517.18
40.1237,505.47,517.74
40.1441,504.98,516.79
40.1646,505.18,515.23
40.1851,505.35,512.59
40.2097,504.28,508.67
40.2302,501.62,504.54
40.2506,502.1,502.23
40.2711,501.28,499.58
40.2916,499.42,497.67
40.3161,498.74,497.73
40.3366,499.59,499.99
40.3572,500.07,507.99
40.3778,500.66,529.59
40.3982,502.13,564.07
40.4187,502.7,602.46
40.4431,498.16,646.17
40.4636,490.13,680.13
40.4843,481.3,692.31
40.5047,471.64,694.25
40.5251,464.51,681.6
40.5497,458.61,664.48
40.57,454.49,648.78
40.5906,453.19,631.43
40.6112,452.55,606.94
40.6316,452.44,587.35
40.6521,456.75,571.88
40.6766,461.4,555.11
40.6972,467.32,543.68
40.7175,472.06,538.95
40.7381,476.85,529.36
40.7586,480.88,528.89
40.7832,484.9,530.31
40.8037,490.12,526.45
40.8242,494.7,523.56
40.8445,496.36,523.85
40.865,495.89,527.28
40.8855,496.51,538.22
40.91,495.81,560.38
40.9305,494.25,583.7
40.951,491.8,599.76
40.9715,490.44,604.81
40.992,493.15,594.45
41.0165,503.32,564.16
41.037,517.46,521.73
41.0577,531.96,473.38
41.0781,545.17,424.3
41.0985,555.94,381.24
41.1191,561.95,353.8
41.1435,563.56,342.84
41.164,563.05,341.47
41.1845,560.04,344.98
41.205,557.63,351.98
41.2255,554.7,360.78
41.246,549.56,370.63
41.2704,544.05,379.3
41.2911,537.84,388.44
41.3115,532.27,398.95
41.3319,528.82,408.56
41.3526,526.05,419.05
41.377,522.84,430.04
41.3975,520.47,441.23
41.4181,520.78,451.79
41.4385,520.42,461.83
41.459,520.14,470.06
41.4794,518.71,477.45
41.5039,517.97,485.56
41.5244,517.58,490.85
41.5449,517.86,494.08
41.5655,516.49,495.66
41.586,514.19,495.53
41.6103,510.15,494.42
41.6312,507.72,492.94
41.6515,506.98,491.15
41.6719,505.38,489.52
41.6924,502.91,489.42
41.713,500.32,489.33
41.7375,500.86,490.27
41.758,499.89,492.21
41.7784,498.71,494.57
41.7989,498.37,498.06
41.8194,499.69,502.85
41.8438,502.96,507.08
41.8644,503.96,511.86
41.8849,504.17,513.29
41.9055,504.14,513.23
41.926,503.71,511.98
41.9464,504.57,510.79
41.9707,503.85,509.23
41.9916,502.28,506.38
42.0118,500.63,502.71
42.0324,499.1,499.57
42.0528,497.88,498.45
42.0733,497.7,496.76
42.0978,498.36,497.61
42.1184,498.29,499.09
42.1388,497.83,502.07
42.1593,499.87,504.66
42.1797,502.69,507.92
42.2042,504.95,510.14
42.2248,506.96,510.91
42.2453,507.17,511.93
42.2657,507.14,511.74
42.2862,506.31,511
42.3067,505.25,508.2
42.3312,504,505.96
42.3519,503.6,502.57
42.3722,503.68,499.05
42.3927,503.74,496.64
42.4132,502.59,494.91
42.4376,499.68,495.13
42.4584,498.34,495.9
42.4787,497.87,498.72
42.4993,501.1,502.58
42.5198,503.48,506.46
42.5402,504.78,509.57
42.5647,506.23,511.86
42.5852,507.98,513.89
42.6057,509.38,514.51
42.6262,509.71,514.21
42.6467,507.17,513.17
42.6711,505.13,509.93
42.6919,504.31,507.55
42.7122,502.65,504.44
42.7327,502.12,500.15
42.7532,498.09,498.12
42.7737,496.07,496.1
42.7984,495.66,496.68
42.8187,496.93,497.74
42.8391,499.54,499.79
42.8596,499.03,502.03
42.8802,500.43,504.43
42.9007,502.14,507.74
42.9251,503.51,510.39
42.9457,505.41,512.31
42.9661,504.73,513.45
42.9867,504.58,513.36
43.0071,505.47,513.29
43.0316,505.17,511.23
43.0521,503.14,508.39
43.0728,501.11,504.71
43.0933,498.69,501.57
43.1137,498.75,499.45
43.1343,499.2,498.76
43.1587,498.96,498.61
43.1791,499.17,500.69
43.1997,500.53,502.95
43.2201,500.63,506.16
43.2405,502.3,509.73
43.2651,502.64,512.78
43.2856,503.11,514.03
43.3062,504.89,514.62
43.3266,506.31,513.7
43.3471,506.25,512.36
43.3675,504.8,510.89
43.392,502.84,507.31
43.4126,502.27,504.05
43.4331,501.02,502.04
43.4535,499.21,499.03
43.4742,499.57,497.62
43.4985,498.46,496.7
43.5191,499.37,496.76
43.5396,500.49,499.01
43.5601,501.39,501.41
43.5805,502.12,504.32
43.601,505.69,507.26
43.6255,506.55,510.21
43.6461,507.44,512.37
43.6665,509.15,513.49
43.687,508.92,513.99
43.7075,508.14,513
43.732,508.51,510.2
43.7526,506.81,513.96
43.773,504.65,532.97
43.7936,503.12,569.97
43.814,502.29,607.78
43.8345,500.64,632.22
43.8591,498.31,648.78
43.8795,497.65,655.62
43.9,497.72,658.5
43.9204,497.57,661.6
43.9409,499.46,660.28
43.9614,498.17,642.22
43.9861,495.53,624.58
44.0065,493.83,613.46
44.0269,491.66,596.97
44.0474,489.13,588.78
44.0679,485.5,573.02
44.0924,483.4,558.22
44.1131,484.52,545.97
44.1334,482.42,536.98
44.1539,481.53,527.78
44.1744,480.63,524.23
44.1949,482.5,524.98
44.2194,483.4,540.18
44.2399,485.12,564.55
44.2605,485.5,587.04
44.2809,489,599.43
44.3015,495.6,596.74
44.3259,501.08,578.8
44.3464,505.86,548.24
44.3669,512.89,507.59
44.3875,520.51,460.27
44.4079,527.01,413.42
44.4284,530.21,374.13
44.4528,530.77,345.91
44.4735,531.41,330.53
44.494,530.93,324.42
44.5143,526.54,325.94
44.5348,522.44,331.55
44.5593,520.75,340.64
44.5798,518.8,353.11
44.6004,516.64,367.69
44.6209,514.31,383.15
44.6414,514.05,398.52
44.6619,516.04,415.02
44.6864,516.83,429.61
44.7068,518.27,442.69
44.7273,518.81,453.35
44.7478,517.85,462.48
44.7683,516.88,468.99
44.7928,515.1,473.59
44.8133,514.28,476.67
44.8338,511.63,478.34
44.8543,508.9,479.87
44.8748,507.12,481.5
44.8953,505.5,482.6
44.9199,504.4,483.88
44.9405,504.92,486.5
44.9609,504.53,489.4
44.9813,504.23,492.72
45.0019,505.38,496.98
45.0222,506.31,500.78
45.0468,507.84,504.23
45.0673,508.68,506.78
45.0878,508.14,508.02
45.1083,507.91,507.82
45.1288,507.93,507.86
45.1532,507.34,506.48
45.1738,505.68,504.39
45.1944,503.74,501.71
45.2148,500.99,499.57
45.2352,498.79,497.05
45.2557,498.43,496.04
45.2803,498.15,495.03
45.3008,498.32,496.43
45.3212,498.05,497.94
45.3418,499.84,501.35
45.3622,501.08,504.68
45.3868,502.66,508.15
45.4073,502.13,510.72
45.4279,501.5,511.57
45.4482,501.6,511.26
45.4687,502.48,510.41
45.4893,502.79,508.73
45.5137,501.43,505.58
45.5342,499.74,501.46
45.5548,497.39,497.77
45.5751,497.12,493.22
45.5956,496.29,491.17
45.6202,495.83,490.54
45.6407,496.67,491.63
45.6613,497.93,493.31
45.6818,499.15,495.64
45.7022,500.72,498.12
45.7227,501.17,501.09
45.7472,501.34,503.07
45.7677,501.67,505.66
45.7882,501.74,507.33
45.8087,502.79,506.66
45.8291,502.63,506.13
45.8536,502.11,504.7
45.8741,502.08,502.56
45.8947,502.27,501.45
45.9152,504.01,499.36
45.9356,502.81,498.69
45.9561,501.45,498.35
45.9806,500.56,498.88
46.0012,501.05,501.7
46.0216,500.64,504.56
46.0421,499.31,508.85
46.0626,498.65,507.88
46.0871,499.92,506.5
46.1075,501.53,504.4
46.1282,500.83,503.12
46.1486,500.86,501.7
46.1691,499.09,504.16
46.1896,497.07,504.93
46.214,493.66,507.14
46.2346,491.53,509.91
46.2551,490.22,513.73
46.2756,488.58,531.38
46.2963,490.26,565.31
46.3165,492.81,606.45
46.341,493.45,637.36
46.3616,491.76,647.29
46.3821,486.61,644.63
46.4026,483.09,636.3
46.423,476.87,627.64
46.4475,469.69,613.31
46.468,465.16,597.45
46.4886,461.72,581.76
46.5091,463.98,568.81
46.5295,466.98,556.65
46.55,471.39,546.92
46.5746,474.31,538.53
46.5951,477.25,530.63
46.6155,481.8,523.7
46.6361,487.04,519.76
46.6565,488.63,520.61
46.6809,491.3,518.69
46.7015,491.64,517.55
46.7221,492.52,520.04
46.7426,496.81,523.63
46.7631,500.25,528.51
46.7836,504.4,538
46.808,505.52,559
46.8285,505.02,581
46.849,503.01,590.6
46.8695,503.41,574.08
46.8899,508.13,535.27
46.9144,516.5,486.21
46.935,525.2,439.37
46.9556,530.76,406.3
46.9759,535.61,386.24
46.9964,538.09,376.39
47.0169,537.87,373.91
47.0414,538.3,376.13
47.062,536.04,384.1
47.0826,534.63,393.88
47.1029,534.5,405.11
47.1235,534.2,417.08
47.1439,531.56,428.07
47.1685,529.45,438.45
47.1889,528.16,447.56
47.2095,527.33,455.85
47.23,524.86,463.88
47.2505,521.89,470.3
47.2749,519.11,473.64
47.2954,517.29,479.11
47.3159,515.03,482.69
47.3365,512.83,484.15
47.3569,510.66,485.52
47.3774,508.73,486.82
47.402,508.58,487.85
47.4225,507.27,490.48
47.4429,505.61,492.99
47.4634,503.69,496.99
47.4839,501.55,501.19
47.5084,502.04,504.95
47.5288,502.03,508.36
47.5494,501.83,509.49
47.5698,502.86,511.79
47.5904,504.49,512.23
47.6108,504.59,512.39
47.6353,505.07,511.11
47.656,502.06,508.29
47.6764,501.05,506.03
47.6969,499.84,505.42
47.7173,498.67,502.94
47.7418,498.54,502.35
47.7623,495.83,502.28
47.7829,494.66,501.42
47.8033,494.93,501.94
47.8239,495.14,504.35
47.8443,497.12,505.68
47.8687,496.89,507.55
47.8893,497.11,509.44
47.9099,497.29,510.75
47.9304,497.83,511.8
47.9508,498.27,512.64
47.9752,496.61,512.11
47.9959,497.69,511.69
48.0163,498.15,510.35
48.0368,498.12,508.48
48.0573,498.9,505.98
48.0777,499.32,503.59
48.1023,499.05,502.27
48.1227,499.04,502.22
48.1433,501.23,502.97
48.1637,501.39,504.58
48.1843,500.91,506.26
48.2047,501.53,507.41
48.2292,503.02,508.33
48.2497,502.82,508.86
48.2702,502.45,508.89
48.2909,503.36,508.91
48.3112,503.49,508.53
48.3356,503.59,507.62
48.3562,504.07,506.1
48.3767,503.26,504.08
48.3972,501.81,501.46
48.4177,501.05,499.37
48.4381,499.64,498.1
48.4627,498.91,497.28
48.4832,499.73,498.42
48.5038,499.38,498.74
48.5242,499.91,500.39
48.5447,500.92,502.71
48.5691,502.14,504.37
48.5897,503.11,506.1
48.6102,502.49,508.08
48.6306,501.79,508.86
48.6511,502.43,509.09
48.672,502.75,509.07
48.6962,502.2,508.26
48.7167,501.56,507.81
48.7372,502.45,506.84
48.7578,501.36,505.48
48.7781,500.49,503.38
48.8026,499.99,502.3
48.8231,499.79,502.44
48.8437,498.83,503.55
48.8642,498.87,504.84
48.8846,499.29,507.28
48.9051,500.23,507.82
48.9297,500.99,508.46
48.9502,501.99,508.36
48.9707,501.79,508.09
48.9913,503.43,508.67
49.0116,503.75,509.34
49.0321,505.8,508.27
49.0565,507.04,507.62
49.0771,508.03,506.09
49.0976,507.62,504.07
49.1181,506.1,502.26
49.1385,504.48,503.01
49.1631,503.38,502.61
49.1836,500.91,505.49
49.2041,499.53,517.79
49.2246,500.02,544.83
49.245,497.02,572.46
49.2655,490.21,598.77
49.29,481.77,622.02
49.3107,473.82,630.41
49.3312,468.05,634.33
49.3515,465.04,622.86
49.372,463.23,615.49
49.3965,463.39,604.99
49.417,465.31,589.39
49.4376,469.85,577.12
49.458,473.68,563.29
49.4785,477.34,544.03
49.4991,479.67,536.63
49.5235,480.74,527.5
49.5441,484.19,520.8
49.5646,486.35,518.24
49.585,489.08,516.99
49.6055,491.47,518.39
49.63,493.17,517.52
49.6506,494.94,513.61
49.671,495.15,511.89
49.6915,497.32,512.31
49.712,498.26,511.85
49.7325,499.41,512.48
49.757,500.52,518.58
49.7775,500.82,535.07
49.798,500.06,555.65
49.8185,497.84,569.32
49.8389,498.28,560.66
49.8594,501.02,529.13
49.884,508.42,487.9
49.9045,518.93,444.72
49.925,530.55,408.78
49.9454,539.44,387.42
49.966,544.55,377.94
49.9905,548.24,376.15
50.011,549.39,380.52
50.0314,549.11,387.42
50.0519,546.29,396.53
50.0724,544.03,406.23
50.0929,539.63,416.38
50.1174,535.9,424.9
50.138,529.92,432.72
50.1585,526.14,440.18
50.179,521.91,446.74
50.1994,517.73,452.19
50.224,515.18,458.16
50.2444,512.55,462.72
50.2649,512.64,468.18
50.2854,513.31,472.94
50.3059,512.05,478.15
50.3263,512.84,483.92
50.3508,512.87,489.14
50.3714,512.7,493.91
50.3921,513.76,498.13
50.4123,512.81,501.5
50.4329,512.04,502.8
50.4575,510.84,503.64
50.478,509.47,503.91
50.4985,506.97,504.53
50.5188,504.18,504.42
50.5394,501.74,505.34
50.5598,499,505.67
50.5843,496,506.74
50.6048,495.8,507.59
50.6253,496.04,507.87
50.6458,497.23,508.1
50.6663,498.78,507.08
50.6908,501.03,507.06
50.7113,501.82,507.85
50.7321,502.26,508.68
50.7523,504.21,508.74
50.7729,504.36,509.4
50.7933,506.09,509.92
50.8178,506.67,509.13
50.8384,507.14,507.91
50.8589,505.51,505.53
50.8793,505.41,503.42
50.8998,503.53,501.14
50.9242,501.22,498.71
50.9448,498.78,497.17
50.9653,497.02,496.73
50.9858,496.42,496.39
51.0064,496.33,497.71
51.0267,495.87,499.37
51.0512,497.29,501.09
51.0719,498.64,503.88
51.0924,502.91,504.3
51.1128,504.13,506.04
51.1332,503.9,506.43
51.1537,503.52,505.95
51.1782,503.82,505.16
51.1988,503.05,504.73
51.2193,502.04,503.18
51.2397,503.23,501.34
51.2602,503.99,499.88
51.2847,503.59,499.3
51.3052,503.87,499.24
51.3259,502.3,500.19
51.3463,502.44,501.75
51.3667,503.15,504.2
51.3872,504.72,506.16
51.4118,505.98,507.53
51.4322,507.38,508.82
51.4527,508.1,510.06
51.4732,507.48,510.85
51.4936,507.59,510.88
51.5182,508.07,511.3
51.5387,508.06,510.24
51.5592,506.44,509.39
51.5797,504.56,507.71
51.6004,504.64,506.17
51.6207,502.92,503.94
51.6451,501.53,502.35
51.6657,501.03,501.08
51.6861,501.02,501.46
51.7067,502.42,502.57
51.7271,503.33,503.86
51.7517,504.07,504.09
51.7721,504.05,510.47
51.7927,505.44,532.97
51.8131,505.75,570.58
51.8336,502,603.46
51.8541,493.4,620.57
51.8785,481.12,632.66
51.8991,469.5,644.93
51.9196,459,645.54
51.9402,451,635.63
51.9606,444.8,620.51
51.9811,442.44,607.6
52.0056,442.15,593.48
52.0261,443.32,582.59
52.0467,445.46,570.67
52.0671,449.97,563.94
52.0876,455.77,556.35
52.112,463.02,551.68
52.1325,468.61,548.34
52.1532,474.29,542.67
52.1736,477.63,539.14
52.194,480.11,536.71
52.2146,483.69,532.97
52.2392,485.35,533.78
52.2596,486.68,547.02
52.2801,487.94,568.82
52.3006,487.55,584.05
52.321,489.44,579.44
52.3455,493.55,551.15
52.366,499.84,506.72
52.3865,509.48,457.98
52.4071,524.18,411.78
52.4276,536.54,374.83
52.448,548.24,354.26
52.4725,556.99,348.01
52.4931,560.99,349.61
52.5135,561.99,356.09
52.5341,560.99,365.47
52.5544,558.4,376.17
52.579,554.12,387.54
52.5995,549.49,399.03
52.62,544.19,410.43
52.6405,539.16,421.14
52.661,535.32,430.91
52.6814,530.26,439.53
52.706,526.01,446.82
52.7265,521.61,454.06
52.747,518.88,460.45
52.7674,515.91,467.36
52.7879,514.73,474.09
52.8124,513.58,479.87
52.8331,514.06,485.9
52.8536,513.25,491.52
52.874,511.4,496.01
52.8945,511.72,500.01
52.9149,511.98,502.21
52.9394,511.18,503.57
52.9599,510.75,503.85
52.9804,509.2,502.68
53.0009,508.16,501.55
53.0215,506.73,501.24
53.0421,505.38,501.39
53.0665,503.9,500.91
53.0869,502.12,501.33
53.1075,501.5,502.26
53.1279,501.4,504.01
53.1484,501.92,505.41
53.1729,502.94,507.53
53.1935,503.75,509.02
53.214,504.4,510.82
53.2345,503.92,511.65
53.2549,504.34,512.12
53.2754,505.47,512.3
53.2999,505.17,511.84
53.3206,505.14,511.47
53.3409,504.51,506.38
53.3613,504.21,501.9
53.3818,496.77,498.92
53.4064,491.61,496.94
53.4268,487.29,494.95
53.4477,486.23,494.56
53.4679,486.79,495.25
53.4884,487.83,496.4
53.5088,488.86,498.52
53.5333,491.09,500.81
53.5538,493.27,503.25
53.5743,495.42,505.6
53.5948,497.53,508.28
53.6153,499.03,512.63
53.6397,498.02,517.5
53.6603,503.42,519.8
53.6808,508.93,519.24
53.7013,510.95,517.99
53.7219,511.96,516.19
53.7422,512.57,513.35
53.7667,512.05,511.28
53.7873,511.84,510.23
53.8079,510.07,508.58
53.8284,509.26,508.27
53.8487,508.61,508.41
53.8693,507.49,509.53
53.8938,507.59,510.42
53.9143,508.87,511.74
53.9348,508.7,512.39
53.9552,509.36,512.31
53.9757,508.29,512.05
54.0002,507.63,510.64
54.0208,507.3,509.91
54.0413,506.24,509.13
54.0618,504.99,507.5
54.0823,503.6,504.8
54.1027,502.08,503.24
54.1272,500.26,501.19
54.1478,499.41,500.56
54.1682,499.53,501.04
54.1887,499.22,501.24
54.2093,499.58,502.39
54.2337,499.66,503.11
54.2544,501.13,504.49
54.2747,503.3,502.79
54.2952,505.24,501.63
54.3158,506.59,500.71
54.3362,508.08,500.96
54.3607,509.46,501.37
54.3812,508.57,501.5
54.4019,505.85,500.8
54.4222,505.08,500.04
54.4427,505.87,497.43
54.4672,506.49,494.34
54.4877,504.99,493.08
54.5082,503.6,492.06
54.5287,506.08,491.05
54.5492,507.06,490.44
54.5697,505.45,493.35
54.5941,504.76,496.88
54.6146,503.41,498.1
54.6351,504.53,502.68
54.6556,505.42,504.75
54.6761,504.74,505.2
54.7006,503.19,504.76
54.7213,501.55,502.01
54.7417,501.44,498.41
54.7621,501.15,497.32
54.7826,500.92,496.46
54.8031,498.74,495.97
54.8275,497.39,493.97
54.8482,497.51,494.38
54.8686,498.81,495.3
54.8891,501.45,496.04
54.9095,503.96,499.23
54.9301,505.37,501.99
54.9546,507.09,505.39
54.9751,508.67,511.91
54.9956,510.74,520.93
55.0161,513.19,524.94
55.0366,512.95,526.35
55.061,513.96,524.28
55.0815,512.57,521.63
55.1021,512.26,517.9
55.1226,511.01,526.92
55.143,507.8,553.54
55.1635,504.04,590.63
55.188,498.03,626.7
55.2086,487.43,649.56
55.229,478.54,655.85
55.2495,468.83,654.08
55.27,462.27,648.86
55.2944,459.01,638.89
55.315,458.81,624.51
55.3355,460.05,611.61
55.356,459.44,599.49
55.3765,460.15,590.59
55.397,462.92,581.87
55.4215,465.94,570.1
55.442,470.15,562.28
55.4625,471.12,554.82
55.483,472.7,548.86
55.5034,473.36,543.09
55.5279,475.29,538.67
55.5485,477.03,542.14
55.569,478.82,553.91
55.5894,480.06,545.53
55.61,485.65,515.22
55.6305,495.72,473.58
55.6549,512.97,433.06
55.6755,531.58,396.85
55.696,547.86,369.08
55.7164,558.69,356.66
55.7369,564.95,354.33
55.7574,567.56,357.66
55.782,566.45,364.73
55.8024,563.56,374.59
55.8229,557.85,385.07
55.8435,554.68,395.65
55.8638,551.54,406.32
55.8884,544.63,418.66
55.9089,538.71,430.53
55.9294,534.77,441.22
55.9499,532.41,451.58
55.9705,530.73,460.86
55.9909,528.58,470.09
56.0154,525.27,477.67
56.0359,523.81,483.94
56.0564,523.05,491.55
56.0768,523.64,497.64
56.0974,521.91,501.11
56.1218,519.73,505.29
56.1424,518.78,508.43
56.1629,516.63,509.75
56.1835,515.9,509.8
56.2038,505.52,507.64
56.2243,488.82,505.51
56.2488,478.65,503.61
56.2694,473.52,502.69
56.2899,471.22,501.55
56.3103,472.17,501.44
56.3308,473.94,502.55
56.3553,476.55,506.04
56.3758,479.84,508.83
56.3963,482.47,510.27
56.4168,484.98,512.01
56.4373,488.38,513.41
56.4578,490.31,514.33
56.4823,490.85,513.66
56.5028,491.68,511.13
56.5233,493.34,508.9
56.5438,494.27,506.92
56.5643,494.42,504.34
56.5887,495.73,502.87
56.6093,495.39,499.9
56.6298,496.51,497.72
56.6503,496.41,496.77
56.6707,497.33,498.02
56.6912,498.46,499.82
56.7157,500.57,502.65
56.7363,501.26,504.12
56.7568,502.8,507.7
56.7772,502.64,509.36
56.7978,502.31,509.49
56.8183,501.05,510.99
56.8427,499.64,510.59
56.8633,497.11,509.87
56.8838,496.89,509.1
56.9043,496.31,507.48
56.9248,496.65,504.98
56.9492,496.72,502.59
56.9697,497.98,500.87
56.9903,498.58,501.1
57.0107,499.66,500.88
57.0312,499.73,501.7
57.0518,497.59,502.36
57.0762,497.67,503.29
57.0967,498.33,504.03
57.1172,501.07,506.82
57.1378,502.85,507.66
57.1582,502.68,508.93
57.1827,502.75,509.14
57.2032,502.8,508.91
57.2237,500.84,506.33
57.2442,502.87,503.46
57.2647,503.1,501.17
57.2851,502.28,499.14
57.3096,500.82,499.31
57.3302,500.46,499.25
57.3507,500.17,499.4
57.3713,501.13,499.12
57.3917,502.31,499.9
57.4162,502.44,501.12
57.4367,504.96,503.09
57.4572,507.96,505.67
57.4776,508.77,507.94
57.4981,509.02,510.55
57.5186,508.81,511.44
57.5433,508.45,511.75
57.5637,509.76,511.4
57.5841,508.61,509.72
57.6046,506.09,507.18
57.6252,503.87,6.13769e-43
57.6495,503.9,4.8289e-39
