Program Time [s],data 0,data 1
5.36562,508.48,504.44
5.39002,506.18,502.95
5.41063,505.95,501.96
5.43109,507.56,502.97
5.45161,508.25,504.18
5.47202,507.2,505.14
5.49251,506.56,507.11
5.51701,507.05,509.29
5.5377,507.84,510.43
5.55808,508.07,511.35
5.57881,506.06,511.28
5.59907,505.04,510.62
5.61956,505.44,509.1
5.644,503.55,507.48
5.66462,503.64,506.18
5.68501,498.31,502.55
5.7055,493.65,499.64
5.72595,490.72,497.91
5.75049,490.18,497.73
5.771,491.94,498.18
5.7915,491.35,500.75
5.81197,492.48,503.2
5.83245,493.59,506.16
5.85295,494.67,509.13
5.8775,496.53,511.1
5.89805,497.23,512.88
5.91852,496.98,512.9
5.93905,496.39,512.12
5.95943,496.31,511.5
5.9839,495.05,508.8
6.00456,494.84,506.04
6.02503,492.87,503.43
6.04545,492.5,500.75
6.06598,491.8,499.4
6.0864,492.24,498.72
6.1109,493.39,499.17
6.13146,495.31,500.54
6.15202,497.45,503.83
6.17241,498.36,506.26
6.19294,500.89,509.01
6.21738,502.51,511.01
6.2379,502.81,512.41
6.25853,502.25,512.93
6.27891,502.6,512.74
6.29938,501.68,510.99
6.32015,501.34,509.19
6.34445,500.87,507.36
6.36493,498.9,504.88
6.38546,498.32,501.71
6.40592,498.86,499.77
6.42644,499.48,498.61
6.45083,500.39,498.89
6.47135,500.51,498.51
6.49194,501.01,500.01
6.51237,502.61,501.81
6.53289,503.89,505.25
6.55339,505.51,507.6
6.5778,504.01,511.68
6.59837,505.81,513.94
6.61885,514.44,514.35
6.63933,519.36,513.08
6.65985,521.88,510.87
6.68032,520.31,510.09
6.70485,517.05,507.47
6.72539,513.04,505.18
6.74599,508.03,503.34
6.7664,506.82,502.07
6.78686,506.06,500.06
6.81129,502.65,497.45
6.83192,499.72,498.56
6.85229,498.37,500.85
6.87279,498.9,502.48
6.89328,499.32,504.98
6.9138,498.86,507.79
6.9383,497.68,509.23
6.95883,497.75,509.98
6.97931,497.6,510.59
6.99979,498.88,511.67
7.0204,497.5,510.14
7.04491,496.6,508.71
7.06554,497.08,508.57
7.08579,497.07,508.05
7.10625,495.05,505.84
7.12673,494.24,503.87
7.14729,494.79,501.9
7.17171,496.43,499.92
7.1923,498.75,501.14
7.21279,499.2,503.91
7.23323,499.16,506.93
7.25387,500.13,509.34
7.27819,501.7,510.67
7.29886,503.36,510.34
7.31952,503.89,509.27
7.33983,502.11,507.82
7.36024,499.69,507.05
7.38078,498.75,504.64
7.40524,500.6,503.11
7.42583,500.48,500.69
7.4464,500.38,497.35
7.46695,499.71,494.48
7.48739,500.17,493.19
7.50784,501.53,492.95
7.53223,502.43,494.16
7.55275,505.54,501.33
7.5734,508.43,526.66
7.59391,511.15,568.53
7.61421,516.72,609.82
7.63863,520.57,639.86
7.65916,522.86,659.89
7.67984,521.29,672.11
7.70038,519.03,670.49
7.72068,514.22,663.19
7.74126,507.18,648.95
7.76577,501.94,627.76
7.78634,498.95,606.01
7.8067,496.96,589.21
7.82731,496.57,570.77
7.8476,495.66,556.81
7.87218,496.13,546.65
7.89275,495.7,537.52
7.91335,496.96,530.82
7.93372,499.37,526.05
7.95426,499.29,525.04
7.97476,500.04,533.23
7.99919,500.63,553.99
8.0198,502.5,580.39
8.04028,501.6,599.11
8.06064,500.28,604.29
8.08127,496.23,589.63
8.10573,494.18,558.71
8.12609,493.14,515.16
8.14661,494.52,465.73
8.16707,496.01,414.19
8.18761,497.41,371.15
8.20805,497.93,343.32
8.23257,499.54,331.85
8.25316,502.63,331.08
8.27364,505.51,337.87
8.29404,506.61,349.49
8.31455,505.88,364.19
8.33907,506.51,379.56
8.35958,508.61,395.24
8.38008,509.88,409.2
8.40068,508.91,421.96
8.42105,506.33,433.97
8.44158,503.86,442.17
8.46608,502.49,449.14
8.48663,499.99,454.71
8.50703,499.59,458.77
8.52751,497.87,463.41
8.54799,496.1,467.33
8.56847,496.88,470.67
8.59299,498.9,474.33
8.61353,499.32,479.07
8.63399,500.66,484.85
8.65452,502.33,490.48
8.67494,505.46,495.39
8.6995,507.37,499.91
8.71998,506.9,503.13
8.74049,503.92,505.5
8.76101,503.13,506.6
8.78144,502.51,507.28
8.80203,502.21,507.42
8.82647,501.36,506.74
8.84716,498.89,504.79
8.86746,498.71,502.03
8.88794,498.57,499.63
8.90842,499.86,497.9
8.93289,500.09,498.32
8.95349,500.67,499.86
8.97394,502.33,501.49
8.99446,504.87,503.59
9.0149,506.69,506.67
9.03541,506.96,508.94
9.05989,504.96,510.95
9.08044,505.37,512.16
9.10094,505.1,513.33
9.1214,505.48,513.46
9.14206,504.58,512.37
9.16641,501.67,511.1
9.187,499.73,509.08
9.20743,499.39,506.46
9.22794,500.51,503.37
9.2484,501.21,501.7
9.26884,500.77,500.36
9.29347,501.41,501.29
9.31387,503.13,502.23
9.33444,504.1,503.78
9.35488,503.88,507.23
9.37542,504.31,509.78
9.39981,506.45,511.62
9.42041,506.96,513.9
9.44094,507.77,514.92
9.46148,506.41,515.14
9.48194,505.53,513.71
9.50231,505.22,512.17
9.52686,504.58,509.53
9.54748,503.06,508.23
9.56784,500.65,507.38
9.58837,499.32,506.31
9.60883,501.06,505.84
9.62935,502.25,505.68
9.65381,503.4,505.94
9.67436,503.52,507.15
9.69483,504.61,509.12
9.71529,506.09,510.9
9.73577,507.27,513.52
9.7603,507.82,514.81
9.78082,508.85,516.65
9.80132,508.88,516.12
9.82179,508.11,515.1
9.84228,508.49,513.48
9.86278,506.79,511.98
9.88729,506.03,508.59
9.90779,505.02,505.47
9.92831,503.82,503.17
9.94876,502.86,500.94
9.96922,503.88,499.75
9.99374,503.11,499
10.0143,502.89,499.4
10.0348,503.51,500.52
10.0553,505.01,502.62
10.0758,507.21,505.09
10.0962,506.96,507.07
10.1207,507.77,509.26
10.1413,506.82,511.21
10.1618,505.05,511.57
10.1822,504.44,512.25
10.2027,503.15,512.6
10.2272,500.52,510.08
10.2478,498.62,508.07
10.2683,497.9,505.45
10.2887,497.92,506.16
10.3092,496.73,511.93
10.3297,495.79,536.54
10.3543,494.43,577.83
10.3748,493.74,623.07
10.3953,492.19,644.65
10.4159,488.76,643.12
10.4362,489,657.5
10.4567,488.2,651.6
10.4812,488.16,649.28
10.5018,488.13,641.02
10.5222,489.3,623.62
10.5426,488.24,603.5
10.5631,486.79,585.2
10.5877,487.44,565.36
10.6082,487.75,548.69
10.6287,487.8,536.15
10.6492,488.44,521.72
10.6697,490.35,517.97
10.6902,493.08,512.38
10.7148,494.86,508.3
10.7352,496.69,505.64
10.7557,498.55,506.71
10.7763,498.84,507.97
10.7967,500.67,511.58
10.8212,503.14,520.66
10.8416,502.11,538.13
10.8621,501.69,559.7
10.8826,502.75,578.56
10.9032,505.4,580.65
10.9237,510.92,557.92
10.9482,513.74,517.74
10.9687,516.39,469.59
10.9891,518.91,419.67
11.0097,520.73,376.54
11.0302,522.98,350.23
11.0546,523.59,337.78
11.0752,522.67,336.03
11.0956,522.94,342.22
11.1161,521.75,353.78
11.1366,521,366.62
11.157,520,381.7
11.1816,518.2,396.96
11.2021,518.96,411.17
11.2226,516.97,422.73
11.2431,514.97,432.99
11.2637,512.38,442.39
11.288,510.3,449.51
11.3086,507.44,454.61
11.3291,506.15,458.69
11.3495,504.92,462.75
11.37,503.54,465.6
11.3905,503.83,469.28
11.415,504.06,473.42
11.4355,504.85,477.34
11.4561,505.08,482.67
11.4765,505.67,487.74
11.4971,506.53,493.19
11.5175,506.83,496.95
11.542,508.26,500.36
11.5625,506.61,504.89
11.583,506.49,506.11
11.6035,505.59,507.49
11.624,503.07,507.19
11.6485,501.86,505.95
11.669,498.89,505.36
11.6895,497.51,502.89
11.71,498.61,500.71
11.7305,498.89,499.97
11.7509,499.31,498.58
11.7755,498.85,498.66
11.796,500.68,500.33
11.8164,500.74,502.46
11.837,503.19,504.37
11.8574,504.15,506.5
11.882,503.72,509
11.9024,504.38,509.8
11.923,504.7,510.84
11.9435,504.36,511.27
11.9639,504.09,510.42
11.9844,503.67,508.33
12.0089,503.54,506.87
12.0294,501.63,505.49
12.0499,498.9,502.39
12.0704,489.12,497.92
12.0909,479.7,494.93
12.1114,473.96,494.75
12.1359,471.17,495.2
12.1565,472.53,496.96
12.1769,475.23,498.37
12.1974,476.98,501.09
12.2179,478.19,505.27
12.2424,483.55,509.62
12.2629,487.24,510.3
12.2834,489.19,511.64
12.3039,491.15,511.91
12.3244,490.52,510.93
12.3448,490.02,507.94
12.3695,488.21,505.55
12.3899,486.57,503.44
12.4104,485.66,500.95
12.4308,487.33,498.36
12.4514,489.06,496.89
12.4759,491.25,497.51
12.4966,493.8,499.21
12.5169,495.24,502.57
12.5375,497.39,505.05
12.5579,498.51,507.24
12.5783,499.01,508.59
12.6029,500.81,511.68
12.6234,501.05,513.54
12.6439,502.04,514.83
12.6643,512.43,514.27
12.6849,521.74,514.21
12.7093,526.2,513.57
12.7298,526.96,512.06
12.7504,526.16,509.25
12.7708,524.73,506.2
12.7913,523.39,504.16
12.8118,522.31,502.73
12.8363,521.65,502.38
12.8568,520.92,502.3
12.8773,520.93,504.24
12.8978,519.35,505.39
12.9183,517.68,508.12
12.9427,515.94,510.09
12.9632,514.55,511.47
12.9838,514.24,512.98
13.0043,513.19,512.78
13.0247,510.76,512.23
13.0452,508.8,512.18
13.0697,507.24,509.95
13.0903,505.39,507.16
13.1109,503.92,505.32
13.1312,501.13,502.66
13.1519,500.71,501.93
13.1762,500.57,501.14
13.1967,501.45,500.31
13.2173,502.96,501.45
13.2378,502.17,502.96
13.2582,502.94,505.97
13.2788,504.35,508.58
13.3032,505.08,510.86
13.3237,504.66,512.09
13.3442,504.93,513.07
13.3647,503.94,512.86
13.3852,502.56,512.69
13.4057,501.24,511.95
13.4302,500.6,509.96
13.4507,499.48,506.97
13.4712,498.58,503.17
13.4916,497.66,500.74
13.5121,498.33,500.39
13.5366,499.27,499.11
13.5572,499.21,498.49
13.5776,500.77,499.59
13.5982,501.82,500.67
13.6187,504.45,502.54
13.6392,506.96,505.63
13.6637,506.17,507.5
13.6842,505.34,507.8
13.7047,504.27,508.04
13.7253,504.01,508.23
13.7456,503.41,506.79
13.7701,500.93,506.03
13.7908,500.74,504.62
13.8112,498.39,502.7
13.8316,497.12,501.96
13.8521,497.29,507.17
13.8726,500.83,522.53
13.8971,502.47,557.83
13.9177,504.37,606.26
13.9381,506.7,642.21
13.9587,507.76,666.77
13.9791,505.21,683.61
14.0037,502.17,687.49
14.0241,497.53,683.19
14.0446,495.23,673.75
14.0652,491.38,656.8
14.0856,489.3,639.44
14.1062,488.04,615.95
14.1306,486.64,595.96
14.1512,484.11,576.57
14.1716,482.69,561.86
14.1921,483.15,546.89
14.2126,483.92,533.51
14.2331,485.54,527.21
14.2576,489.43,521.37
14.2781,492.94,517.29
14.2986,497.75,516.63
14.3191,499.8,516.51
14.3397,501.64,518.61
14.364,498.91,532.48
14.3846,497.13,558.59
14.405,498.11,586.47
14.4256,501.28,606.18
14.446,503.23,615.54
14.4664,503.98,615.63
14.491,509.19,600.91
14.5115,514.75,570.12
14.5321,520.8,525.3
14.5525,524.64,470.84
14.573,527.11,414.67
14.5974,530.49,364.34
14.618,531.79,328.47
14.6385,532.23,309.98
14.6589,528.39,306.38
14.6795,525.31,312.5
14.6999,525.05,323.6
14.7245,523.44,336.88
14.745,522.75,352.71
14.7655,520.4,369.17
14.7859,516.92,384.53
14.8064,513.74,397.63
14.8309,510.99,408.9
14.8515,507.59,419.92
14.872,504.27,428.94
14.8924,502.62,436.35
14.913,501.29,443.68
14.9334,502.64,449.74
14.9579,502.11,456.99
14.9786,502.89,463.8
14.999,503.51,470.64
15.0195,504.61,477.11
15.04,505.09,483.49
15.0644,504.67,489.79
15.0849,504.94,494.63
15.1054,504.55,497.91
15.1259,503.64,499.72
15.1464,502.11,500.58
15.1669,501.09,501.06
15.1914,499.67,500.85
15.212,499.34,498.68
15.2324,498.87,496.94
15.2529,497.1,495.36
15.2734,496.48,493.68
15.2939,497.18,493.15
15.3183,497.94,493.72
15.339,498.56,495.97
15.3594,499.44,499.78
15.3798,501.16,503.42
15.4003,502.92,506.54
15.4248,503.74,509.43
15.4454,504.19,510.75
15.4659,504.15,510.8
15.4864,503.32,510.04
15.5069,502.06,509.43
15.5273,502.05,507.14
15.5519,500.84,504.91
15.5724,500.47,503.93
15.5929,498.78,501.35
15.6133,498.62,499.48
15.6338,499.5,497.78
15.6583,500.4,497.42
15.6789,500.92,497.54
15.6994,501.93,500.03
15.7199,502.75,502.23
15.7403,502.8,505.18
15.7608,504.24,507.94
15.7853,504.39,509.96
15.8059,503.91,511.76
15.8263,504.53,511.21
15.8468,504.62,510.77
15.8672,502.3,510.42
15.8919,505.64,509.53
15.9123,506.91,507.23
15.9328,509.93,505.38
15.9533,510.54,503.7
15.9737,509.83,501.76
15.9942,510.07,501.01
16.0187,511.05,501.61
16.0392,510.84,502.69
16.0598,510.27,505.35
16.0803,510.22,508.68
16.1007,509.38,512.54
16.1212,508.7,514.84
16.1458,509.96,517.07
16.1663,509.97,517.25
16.1867,507.97,516.4
16.2072,504.58,515.72
16.2278,503.86,513.58
16.2523,503.49,510.66
16.2727,502.39,506.93
16.2932,501.71,503.74
16.3138,500.97,500.2
16.3342,500.78,498.56
16.3547,501.42,497.64
16.3792,503.14,497.52
16.3997,504.11,498.81
16.4203,505.09,501.25
16.4407,506.47,503.6
16.4612,506.78,506.68
16.4857,507.82,509.14
16.5062,506.66,510.72
16.5267,506.53,511.97
16.5473,505.82,511.78
16.5677,504.06,510.62
16.5881,503.25,508.3
16.6127,503,507.04
16.6332,500.4,504.23
16.6536,500.92,501.78
16.6741,500.53,499.63
16.6946,499.23,497.7
16.7192,499.98,497.36
16.7398,499.79,498.09
16.7602,501.43,499.87
16.7806,503.34,501.3
16.8011,504.27,504.84
16.8217,505.02,506.87
16.8461,504.22,509.9
16.8667,504.57,511.72
16.8872,504.06,512.17
16.9076,502.45,510.94
16.9281,500.56,508.95
16.9526,499.25,506.96
16.9731,499.2,504.97
16.9936,498.76,502.17
17.0141,498.21,506.74
17.0346,497.16,532.19
17.055,499.33,568.75
17.0796,501.67,606.6
17.1001,503.93,627.08
17.1207,503.15,646.07
17.1411,500.92,653.85
17.1616,500.33,649.28
17.182,498.87,644.03
17.2066,494.49,632.62
17.2271,491.19,620.1
17.2475,488.16,605.28
17.268,485.92,588.22
17.2885,485.34,574.98
17.3131,485.27,562.38
17.3337,483.82,549.91
17.354,484.85,540.92
17.3746,488.08,530.94
17.395,489.27,524.95
17.4156,489.61,519.76
17.44,490.89,515.61
17.4605,491.71,515.49
17.4811,495.77,515.19
17.5015,498.22,517.15
17.522,500.37,520.92
17.5465,499.9,535.94
17.567,502.32,558.75
17.5876,503.25,579
17.608,502.4,588
17.6286,503.52,577.2
17.649,507.42,548.16
17.6738,512.53,507.33
17.694,518.63,460.26
17.7146,521.3,415.21
17.735,521.24,377.37
17.7555,522.79,354.49
17.78,521.83,345.6
17.8004,522.87,345.48
17.821,523.29,351.38
17.8414,523.04,360.9
17.862,523.03,373.32
17.8825,521.62,387.66
17.9069,519.9,401.73
17.9274,518.92,414.78
17.9479,517.73,427.03
17.9685,515.99,437.42
17.9889,513.99,446.54
18.0135,511.59,453.03
18.0339,509.07,457.82
18.0544,508.06,461.26
18.0749,507.05,464.21
18.0954,506.84,466.97
18.1159,506.47,469.37
18.1405,506.38,472.7
18.1609,504.9,476.56
18.1814,505.72,481.65
18.2019,505.78,486.72
18.2223,507.22,491.97
18.2429,507.78,495.38
18.2674,508.22,500.1
18.2879,506.78,502.88
18.3084,505.62,505.51
18.3289,505.5,506.4
18.3493,504.4,505.32
18.3738,502.72,503.66
18.3944,501.37,501.53
18.415,500.7,499.82
18.4354,500.16,498.46
18.4559,500.13,496.77
18.4763,499.9,496.01
18.5008,499.12,495.21
18.5213,500.5,496.17
18.5419,502.6,498.73
18.5623,503.28,502.79
18.5828,503.62,506.23
18.6073,502.9,508.98
18.6278,503.12,511.59
18.6483,501.09,513.27
18.6688,500.28,513.02
18.6894,499.22,512.81
18.7098,498.58,510.45
18.7343,497.66,507.76
18.7548,496.93,504.61
18.7753,497.54,501.49
18.7958,497.63,499.39
18.8162,498.11,497.31
18.8407,498.69,496.05
18.8614,500.55,495.44
18.8818,502.04,496.55
18.9022,504.03,498.44
18.9227,506.03,500.55
18.9433,506.62,502.84
18.9677,505.9,505.27
18.9883,505.92,508.02
19.0088,504.93,508.62
19.0292,505.15,509.49
19.0497,505.52,509.99
19.0702,504.61,508.8
19.0947,502.89,506.44
19.1153,500.11,504.75
19.1357,499.49,502.4
19.1562,498.19,500.52
19.1767,499.35,499.82
19.2012,500.48,498.45
19.2217,501.59,498.56
19.2422,501.67,500.85
19.2627,503.74,502.68
19.2833,505.99,505.54
19.3037,505.39,507.23
19.3282,505.71,508.79
19.3487,506.37,509.83
19.3692,507.7,511.26
19.3897,507.36,512.81
19.4101,506.29,511.65
19.4346,504.03,510.12
19.4551,501.62,507.9
19.4757,499.1,505.72
19.4962,500.28,501.97
19.5167,500.42,498.78
19.5372,499.34,497.62
19.5616,499.87,497.9
19.5822,499.5,499.52
19.6026,500.8,502.01
19.6232,502.44,505.21
19.6437,503.15,507.97
19.6681,503.12,510.38
19.6886,504.1,512.9
19.7091,504.68,513.32
19.7296,505.34,514.06
19.7501,504.67,513.65
19.7706,503.54,512.12
19.7952,503.23,509.89
19.8157,500.78,507.91
19.8361,499.43,504.73
19.8566,498.34,502.39
19.8771,498.27,507.31
19.8976,497.02,532.45
19.9221,494.22,569.16
19.9426,489.97,601.53
19.9631,487.98,623.22
19.9837,485.58,635.38
20.0041,482.47,660.1
20.0285,478.97,665.68
20.0491,477.58,668.14
20.0696,475.26,661.32
20.0902,474.01,644.65
20.1106,474.01,633.12
20.1311,475.61,616.3
20.1556,476.69,600.64
20.1761,478.75,584.91
20.1966,482.2,568.33
20.217,482.76,555.86
20.2375,483.81,547.29
20.262,485.85,542.03
20.2825,487.28,541.23
20.3031,488.62,533.58
20.3235,492.1,534.66
20.3441,494.68,531.13
20.3645,496.14,533.11
20.389,496.31,529.08
20.4095,496.85,527.87
20.43,498.28,525.69
20.4506,499.82,523.76
20.4711,499.06,523.2
20.4954,499.85,519.96
20.516,498.28,523.17
20.5365,498.22,537.34
20.5571,495.58,559.67
20.5775,496.86,582.34
20.5979,498.89,594.07
20.6224,505.51,595.85
20.643,514.21,588.08
20.6635,524.97,567.67
20.684,534.37,537.33
20.7045,542.1,495.47
20.729,547.88,448.37
20.7494,550.1,398.9
20.7701,548.68,356.12
20.7907,543.15,325.7
20.811,539.12,311.56
20.8314,534.69,307.04
20.8559,530.55,310.84
20.8765,526.44,318.47
20.8969,521.16,328.98
20.9175,516.52,340.98
20.9379,514.42,354.58
20.9584,513.54,369.27
20.983,511.83,384.01
21.0035,510.26,399.01
21.0239,510.81,413.81
21.0444,511.05,428.05
21.065,511.44,440.84
21.0895,509.15,453.07
21.11,509.52,462.46
21.1304,509.02,470.16
21.1509,508.41,476.53
21.1714,508.53,480.43
21.1918,507.42,483.54
21.2164,505.94,485.63
21.2369,503.75,486.71
21.2573,502.6,486.96
21.2778,501.48,487.57
21.2983,501.58,489.06
21.3229,502.27,490.25
21.3433,502.41,492.8
21.364,503.13,495.64
21.3844,504.91,499.31
21.4048,506.52,502.25
21.4253,506.02,506.4
21.4498,504.02,507.92
21.4703,497.21,509.14
21.4908,492.57,508.91
21.5113,488.66,507.93
21.5321,486.72,507.34
21.5563,484.78,505.47
21.5769,484.22,503.98
21.5974,483.58,501.98
21.6178,484.26,499.59
21.6383,484.61,497.67
21.6587,485.49,497.54
21.6833,488.39,497.23
21.7038,491.11,498.58
21.7244,494.09,500.47
21.7448,495.07,502.77
21.7652,496.66,505.22
21.7897,496.93,507.97
21.8103,499.74,509.58
21.8308,500.19,512.06
21.8513,498.55,513.05
21.8719,498.84,511.84
21.8922,497.47,510.67
21.9167,497.58,509.14
21.9373,494.26,506.31
21.9578,486.41,503.65
21.9783,481.73,501.32
21.9988,479.58,500.26
22.0193,480.47,500
22.0437,481.17,499.4
22.0642,482.54,499.92
22.0849,485.43,501.54
22.1052,486.94,504.63
22.1257,488.76,506.7
22.1502,492,508.96
22.1707,493.4,512.97
22.1912,504.52,514.18
22.2117,516.22,516.94
22.2322,523.77,517.35
22.2527,526.02,515.88
22.2772,527.62,513.71
22.2977,526.49,510.36
22.3183,524.99,507.09
22.3387,522,504.87
22.3593,520.6,503.1
22.3837,518.08,502.28
22.4041,517.06,502.42
22.4247,514.65,504.54
22.4452,515.52,505.83
22.4657,515.02,509.06
22.4862,513.41,511.05
22.5108,512.33,512.64
22.5312,512.66,514.31
22.5517,510.93,514.05
22.5722,508.94,512.64
22.5927,507.36,510.71
22.6171,506.68,509.57
22.6376,504.75,506.26
22.6582,501.6,503.4
22.6787,501.28,500.52
22.6991,500.02,498.22
22.7196,500.02,497.98
22.7442,500.61,497.58
22.7647,501.49,498.86
22.7851,501.99,501.29
22.8056,503.19,503.23
22.8262,504.16,505.79
22.8466,503.12,508.63
22.8712,503.9,511.3
22.8916,502.52,512.84
22.9121,501.42,513.27
22.9325,499.93,512.22
22.9531,499.15,510.78
22.9776,497.72,509.02
22.9981,496.77,506.62
23.0186,495.62,503.29
23.0391,495.5,501.03
23.0595,496.8,499.43
23.0803,497.84,498.74
23.1045,498.07,498.79
23.1251,499.46,500.63
23.1456,500.76,502.51
23.1661,502.21,505.21
23.1866,503.17,507.57
23.2111,504.14,510.25
23.2316,503.31,512.4
23.252,502.65,514.12
23.2725,502.92,513.3
23.293,502.73,512.64
23.3135,501.79,511.91
23.338,501.23,511.53
23.3586,498.98,517.02
23.379,494.19,542.82
23.3995,490.35,588.25
23.42,486.88,624.6
23.4445,485.1,656.48
23.465,485.68,676.59
23.4856,485.35,682.07
23.5061,485.08,682.86
23.5265,486.46,673.48
23.5469,486.57,661.99
23.5714,487.66,645.99
23.592,486.32,629.59
23.6125,486.46,611.27
23.633,486.17,592.42
23.6535,487.13,574.14
23.6779,487.51,561.91
23.6985,487.61,548.53
23.719,487.28,539.62
23.7395,488.03,529.5
23.7601,488.22,521.8
23.7804,489.78,516.04
23.805,491.42,512.43
23.8256,493.54,511.14
23.846,495.43,511.52
23.8664,498.34,512.01
23.8869,500.08,514.41
23.9115,500.06,517.33
23.932,500.45,516.06
23.9525,500.56,512.45
23.9729,499.85,514.16
23.9935,500.88,511.93
24.0139,500.5,510.14
24.0385,498.8,508.51
24.059,496.44,505.41
24.0794,496.55,502.93
24.1,497.04,500.54
24.1204,495.83,497.23
24.1409,496.67,495.59
24.1654,496.73,495.87
24.1859,498.99,496.9
24.2064,499.19,499.32
24.2268,499.95,503.65
24.2474,500.76,513.52
24.2718,500.41,528.22
24.2924,502.33,547.97
24.3129,505.06,565.38
24.3333,509.45,571.7
24.3538,514.56,559.76
24.3745,521.25,530.61
24.3989,527.4,491.09
24.4194,531.72,445.87
24.4399,531.17,402.3
24.4603,531.74,363.84
24.4808,531.39,338.47
24.5052,532.31,328.78
24.5259,530.85,329.02
24.5463,529.48,335.42
24.5668,527.58,348.33
24.5873,526.47,361.87
24.6079,524.37,377.09
24.6323,521.7,391.87
24.6528,518.36,406.7
24.6733,514.49,419.16
24.6938,513.19,430.53
24.7143,514.35,439.42
24.7387,514.28,446.74
24.7593,512.03,453.19
24.7798,510.62,457.75
24.8003,508.1,462
24.8207,507.08,465.4
24.8412,506.66,469.92
24.8657,506.73,473.54
24.8863,507.18,478.23
24.9068,507.55,483.98
24.9273,508.44,489.99
24.9477,509.35,495.39
24.9682,508.28,499.11
24.9927,508.22,502.09
25.0133,507.78,503.67
25.0337,507.22,506.14
25.0543,505.78,506.11
25.0748,502.02,505.09
25.0992,500.62,504.27
25.1198,498.69,502.02
25.1402,497.76,499.81
25.1608,496.6,498.45
25.1812,495.88,496.96
25.2017,496.51,496.77
25.2261,496.41,497.41
25.2467,498.32,498.93
25.2673,499.86,501.35
25.2877,500.89,503.48
25.3082,502.71,506.18
25.3326,504.57,508.34
25.3532,506.45,510.28
25.3737,505.16,511.02
25.3941,503.73,510.82
25.4147,501.78,510.45
25.4351,500.83,509.96
25.4596,499.66,507.37
25.4803,497.93,505.3
25.5006,496.34,503.24
25.5212,496.68,501.79
25.5417,497.34,500.43
25.5661,498.87,499.95
25.5866,499.7,500.76
25.6072,499.96,501.81
25.6277,500.37,504.24
25.6481,502.89,506.2
25.6686,503.31,508.16
25.693,503.05,510.52
25.7136,502.04,511.22
25.7341,500.23,510.38
25.7546,499.19,509.9
25.7751,497.55,509.12
25.7956,494.64,507.1
25.8201,493.71,504.08
25.8406,492.37,500.46
25.8611,493.5,497.57
25.8816,494,496.26
25.902,494.4,494.2
25.9265,494.72,493.56
25.9471,496.17,494.45
25.9676,498.34,496.36
25.9881,500.27,499.49
26.0086,501.02,502.99
26.029,501.61,507.99
26.0536,501.89,512.39
26.0741,500.91,516.52
26.0945,501.73,519.01
26.115,500.98,520.41
26.1355,499.59,520.93
26.16,499.07,519.94
26.1806,497.86,516.35
26.201,495.48,512.08
26.2215,493.39,507.67
26.2421,491.71,503.93
26.2625,491.97,502.55
26.2872,491.97,502.24
26.3076,493.98,501.19
26.328,495.58,499.55
26.3485,496.67,499.64
26.3689,497.53,499.91
26.3935,499.63,500.73
26.414,503.7,500.18
26.4346,505.16,500.15
26.455,506.93,500.72
26.4755,508.14,499.17
26.4959,507.51,498.34
26.5207,507.21,498.67
26.541,503.37,498.54
26.5615,499.3,497.63
26.582,497.24,498.3
26.6025,495.79,500.44
26.6269,495.63,502.15
26.6474,495.91,503.12
26.6679,495.12,504.7
26.6885,495.7,504.16
26.709,496.56,503.53
26.7295,497.25,504.42
26.7539,496.2,505.54
26.7744,495.36,506.63
26.795,495.29,508.3
26.8154,494.83,507.44
26.8359,495.66,507.95
26.8564,496.93,508.56
26.8809,496.74,508.85
26.9016,497.6,508.68
26.9221,500.08,511.74
26.9424,503.26,522.6
26.9629,507.41,552.68
26.9874,506.53,595.94
27.0079,503.02,630.15
27.0285,502.02,658.12
27.0489,500.01,669.5
27.0697,498.21,674.8
27.09,494.37,672.04
27.1144,492.3,664.23
27.1349,488.24,652.78
27.1553,486.59,637.63
27.1759,485.67,621.3
27.1963,485.74,603.64
27.2211,486.39,587.71
27.2413,487.91,572.57
27.262,490.93,553.66
27.2823,493.94,540.53
27.3028,498.55,528.62
27.3233,502.24,520.9
27.3478,505.2,513.92
27.3685,509.56,507.53
27.3889,513.04,504.43
27.4093,514.24,504.94
27.4298,514.39,506.95
27.4543,514.11,508.36
27.4748,516.89,506.69
27.4953,517.71,508.95
27.5159,517.97,508.56
27.5363,516.98,507.05
27.5568,516.38,504.04
27.5813,517.1,503.23
27.6018,515.08,501.99
27.6223,514.07,499.19
27.6428,513.85,498.75
27.6632,513.28,498.4
27.6879,513.43,495.72
27.7083,513.54,499.78
27.7288,513.23,499.82
27.7493,514.99,502.46
27.7697,513.39,506.77
27.7903,511.11,508.61
27.8147,508.29,513.89
27.8353,503.83,527.31
27.8557,501.66,549.65
27.8763,500.13,570.12
27.8968,501.71,578.7
27.9172,504.16,569.56
27.9417,508.33,547.45
27.9622,513.47,513.56
27.9827,520.37,474.24
28.0032,524.3,433
28.0239,527.44,395.8
28.0482,529.55,364.84
28.0687,529.04,348.27
28.0892,527.63,343.62
28.1097,525.11,347.89
28.1301,523.08,357.51
28.1507,519.87,368.21
28.1751,516.09,380.17
28.1957,511.88,392.14
28.2162,508.3,403.91
28.2367,504.64,413.53
28.2572,500.31,422.82
28.2816,497.05,431.06
28.3021,495.84,437.45
28.3227,494.67,443.76
28.3432,493.74,450.41
28.3636,496.59,458.12
28.3842,498.87,464.7
28.4086,499.5,470.56
28.4291,501.8,476.85
28.4497,503.84,481.88
28.4701,504.87,486.7
28.4906,504.3,491.16
28.5151,503.24,494.93
28.5356,501.99,497.74
28.5561,502.19,499.39
28.5766,498.75,501.12
28.5971,496.6,502.09
28.6176,494.08,501.87
28.6421,493.67,500.9
28.6626,494.73,501.12
28.6831,493.79,500.5
28.7036,494.03,499.6
28.724,494.82,499.88
28.7486,497.26,500.9
28.7692,499.81,501.92
28.7897,500.85,503.74
28.8101,501.68,506.19
28.8307,500.74,509.15
28.8512,500.19,511.32
28.8755,498.75,512.46
28.8961,498.2,512.97
28.9166,497.76,512.37
28.9371,498.81,511.7
28.9576,498.85,510.36
28.978,498.68,509.49
29.0025,497.34,507.19
29.0231,496.87,505.15
29.0435,496.7,503.52
29.0641,496.56,502.02
29.0845,496.85,502.01
29.109,497.68,502.81
29.1295,498.14,504.45
29.15,499.51,506.16
29.1706,501.01,507.73
29.1911,501.41,510.38
29.2115,502.33,511.71
29.236,501.26,512.16
29.2566,501.61,511.73
29.2771,500.69,511.59
29.2976,500.35,510.47
29.3179,501.68,508.57
29.3424,502.54,505.66
29.363,503.24,502.73
29.3835,502.99,500.78
29.404,502.79,499.63
29.4245,503.03,500.3
29.4449,501.83,500.24
29.4694,500.66,501.39
29.4901,503.13,502.71
29.5105,503.9,504.57
29.531,506.12,507.26
29.5515,506.7,509.21
29.576,506.96,510.76
29.5965,505.57,511.21
29.617,505.25,511.37
29.6375,503.4,510.1
29.6579,502.52,508.88
29.6785,502.62,507.5
29.7029,501.89,506
29.7234,501.92,504.4
29.744,502.53,503.72
29.7644,502.83,501.98
29.7849,503.86,501.78
29.8054,505.09,501.62
29.8299,505.87,502.5
29.8505,507.1,504.6
29.8709,506.48,506.28
29.8914,506.98,508.02
29.912,506.39,510.22
29.9364,504.71,511.78
29.9569,504.17,512.82
29.9775,503.93,514.46
29.9979,502.75,516.57
30.0184,500.4,518.65
30.0388,499.52,522.12
30.0634,498.21,527.7
30.0839,496.57,536.16
30.1044,497.86,543.53
30.1249,497.49,553.82
30.1454,496.19,564.86
30.1698,495.35,581.29
30.1904,490.48,605.23
30.2109,485.18,632.58
30.2314,476.35,660.07
30.2518,464.88,682.85
30.2723,452.1,701.68
30.2969,441.08,715.75
30.3174,432.67,724.8
30.3378,425.73,726.24
30.3583,421.19,722.79
30.3788,419.35,713.03
30.4033,420.88,702.03
30.4238,425.5,689.22
30.4443,430.8,677.58
30.4648,439.64,666.46
30.4853,452.31,657.77
30.5058,466.05,650.82
30.5303,483.64,643.65
30.5508,500.11,637.72
30.5713,516.09,625.78
30.5917,528.07,603.82
30.6122,539.26,574.66
30.6368,547.21,548.93
30.6573,554.56,512.94
30.6778,562.85,458.95
30.6983,567.08,394.76
30.7187,568.47,328.81
30.7393,570.97,273.65
30.7637,568.98,238.72
30.7843,564.38,225.97
30.8049,559.31,226.78
30.8254,554.64,237.02
30.8458,549.52,253.02
30.8663,544.81,272.22
30.8908,538.65,293.97
30.9113,533.92,316.38
30.932,530.94,338.7
30.9523,527.95,360.16
30.9727,525.56,379.73
30.9972,521.45,397.58
31.0179,520.36,415.47
31.0383,518.89,431.77
31.0588,516.51,443.62
31.0793,514.01,453.7
31.0998,511.61,461.56
31.1243,510.48,468.24
31.1447,508.59,472.8
31.1654,507.87,476.64
31.1857,507.5,479.71
31.2061,507.4,483.97
31.2307,507.52,487.37
31.2512,508.01,491.5
31.2717,508.01,495
31.2921,507.61,498.2
31.3126,509.49,501.96
31.3332,508.79,504.57
31.3577,507.83,506.65
31.3782,502.87,507.32
31.3987,495.89,506.26
31.4191,491.31,505.01
31.4396,488.65,503.21
31.4641,486.72,501.76
31.4846,484.78,500.21
31.5052,485.22,499.17
31.5257,487.38,498.54
31.5461,487.5,497.83
31.5666,489.4,498.26
31.5913,491.12,499.61
31.6118,492.7,502.09
31.6322,493.96,503.67
31.6527,493.97,506.34
31.6732,495.37,508.07
31.6976,497.1,509.86
31.7181,494.88,510.88
31.7388,499.9,512.11
31.7592,504.52,512.89
31.7796,507.22,512.31
31.8001,509.17,511.45
31.8245,510.54,510.16
31.8452,510.63,508.13
31.8656,510.11,507.5
31.886,509.88,506.8
31.9067,510.71,506.04
31.9272,511.17,506.03
31.9515,510.13,506.83
31.9721,510.91,509.26
31.9925,511.12,511.01
32.0132,511.7,511.21
32.0337,511.36,511.77
32.058,509.89,512.61
32.0787,508.71,512.49
32.099,506.97,512.59
32.1195,505.77,510.67
32.14,504.62,509.14
32.1606,505.1,507.91
32.185,504.68,505.13
32.2056,504.74,503.3
32.2262,503.79,501.44
32.2466,499.83,499.75
32.267,493.47,498.8
32.2914,489.37,499.24
32.312,487.1,500.39
32.3325,486.48,502.52
32.3531,486.38,504.41
32.3735,487.11,505.73
32.3941,488.49,507.18
32.4185,489.39,508.15
32.439,488.31,508.72
32.4596,489.65,509.37
32.48,490.52,509.3
32.5005,491.62,507.64
32.5249,491.89,506.31
32.5455,492.11,503.25
32.5661,493.49,501.4
32.5866,494.39,500.72
32.607,495.31,499.78
32.6274,496.65,499.62
32.652,497.92,500.7
32.6724,499.14,502.36
32.6931,500.31,504.09
32.7136,501.25,505.87
32.734,500.8,507.69
32.7585,501.04,509.36
32.779,501.63,509.48
32.7994,502.3,509.59
32.82,500.84,509.67
32.8405,500.47,508.54
32.8609,498.18,508.43
32.8855,503.54,507.74
32.906,507.24,508.79
32.9264,511.59,507.64
32.9469,512.47,507.11
32.9674,514.18,506.89
32.9878,514.14,506.31
33.0123,513.91,506.65
33.0329,513.33,507.92
33.0533,513.66,508.73
33.0739,513.13,510.39
33.0945,511.91,510.91
33.1188,510.72,510.93
33.1394,507.98,512.74
33.1598,505.98,522.19
33.1804,508.99,560.16
33.2009,511.79,595.52
33.2214,513.23,631.02
33.2459,514.99,660.62
33.2665,513.39,674.69
33.287,512.51,681.55
33.3075,508.81,676.04
33.3278,503.45,670.03
33.3524,499.36,654.63
33.3728,494.89,644.3
33.3933,490.91,629.24
33.4138,487.53,617.19
33.4345,486.02,602.75
33.4548,485.42,591.4
33.4794,484.93,580.12
33.4998,484.75,571.5
33.5203,485.8,562.2
33.5409,486.44,550.56
33.5614,487.35,544.85
33.5858,488.08,535.88
33.6063,489.06,529.5
33.627,490.65,523.8
33.6472,491.32,522.04
33.6679,492.66,520.83
33.6882,492.73,519.47
33.7128,493.78,518.77
33.7333,496.62,521.22
33.7538,498.9,520.77
33.7745,499.52,523.02
33.7948,499.82,522.82
33.8192,498.85,524.05
33.8397,498.48,521.44
33.8604,498.79,524.75
33.8808,497.43,538.4
33.9014,495.14,558.52
33.9218,494.91,577.42
33.9463,498.53,578.53
33.9668,505.43,555.43
33.9873,511.14,513.34
34.0077,517.91,463.47
34.0282,523.13,410.58
34.0488,524.7,364.66
34.0733,526.56,330.53
34.0938,526.05,314.82
34.1143,524.64,311.66
34.1348,522.71,315.93
34.1553,520.57,326.54
34.1796,518.66,339.43
34.2003,515.12,353.55
34.2208,512.9,367.44
34.2412,510.72,381.35
34.2617,508.58,395.08
34.2821,505.66,408.06
34.3066,505.13,419.25
34.3273,504.5,429.2
34.3476,504,438.96
34.3683,503.6,448.17
34.3886,504.08,455.73
34.4132,504.07,463.79
34.4336,508.85,471.03
34.4543,510.88,476.82
34.4747,511.31,482.66
34.4952,511.84,487.33
34.5156,512.68,491.06
34.5401,511.94,494.85
34.5607,511.35,497.28
34.5811,510.48,498.42
34.6017,507.99,498.34
34.6223,505.99,498.67
34.6465,504.99,498.34
34.6671,504.99,498.47
34.6877,503.79,498.58
34.7082,504.04,498.66
34.7286,504.03,499.93
34.7491,504.82,502.34
34.7735,505.46,503.47
34.7942,505.17,505.38
34.8146,504.93,507.1
34.8351,504.75,509.68
34.8556,504.8,510.35
34.8762,504.04,511.08
34.9006,502.63,510.66
34.921,502.3,509.93
34.9415,502.44,509.14
34.9621,501.15,507.31
34.9826,500.12,505.65
35.0071,497.9,503.92
35.0275,498.92,502.74
35.0481,499.94,502.79
35.0686,499.95,502.03
35.0891,502.56,502.43
35.1095,502.45,504.14
35.1341,502.16,505.11
35.1545,503.73,506.69
35.175,505.58,508.55
35.1955,505.46,510.04
35.2161,505.37,511.83
35.2405,504.1,512.47
35.261,503.48,512.37
35.2817,503.78,511.5
35.3022,501.63,510.2
35.3226,500.7,508.76
35.343,498.96,506.81
35.3674,498.97,504.65
35.3881,499.97,503.72
35.4084,499.38,502.57
35.429,499.3,503.06
35.4494,500.44,503.25
35.4739,501.75,504.6
35.4946,499.6,505.88
35.515,492.08,507.1
35.5355,488.27,508.88
35.5559,485.81,509.91
35.5764,484.85,510.92
35.601,483.88,511.34
35.6216,484.1,511.07
35.642,483.28,509.46
35.6624,484.63,508.37
35.6829,484.9,507.09
35.7034,486.32,505.07
35.7279,487.86,504.06
35.7484,488.89,503.25
35.7689,490.51,502.2
35.7894,492.21,503.56
35.8099,494.37,504.45
35.8343,497.49,506.16
35.8549,498.99,508.33
35.8754,499.2,511.46
35.8961,500.16,513.17
35.9163,501.72,513.93
35.9368,509.18,515.95
35.9614,512.14,517.16
35.982,514.32,517.13
36.0024,514.65,516.3
36.0229,514.72,514.64
36.0434,514.18,512.51
36.0678,511.34,510.41
36.0885,510.07,508.53
36.1088,510.26,507.22
36.1293,509.61,507.18
36.1498,508.89,506.74
36.1703,509.51,508.19
36.1951,508.41,509.16
36.2154,508.13,510.12
36.2359,507.3,510.7
36.2563,507.24,510.76
36.2769,507.19,511.41
36.3013,505.35,511.13
36.3219,505.28,528.9
36.3423,503.03,563.32
36.3628,502.62,599.86
36.3833,503.5,635.89
36.4037,503.6,655.71
36.4282,502.08,667.37
36.4487,500.46,670.89
36.4693,499.37,669.91
36.4898,498.1,663.73
36.5103,497.68,656.99
36.5347,498.54,647.79
36.5552,498.03,639.23
36.5759,497.43,629.58
36.5964,497.14,620.07
36.6168,496.71,608.85
36.6373,497.57,597.68
36.6618,499.86,586.15
36.6823,500.09,579.72
36.7028,500.07,568.37
36.7232,500.85,562.3
36.7439,499.88,554.04
36.7642,499.51,544.23
36.7888,501.41,540.19
36.8092,500.32,537.15
36.8297,501.26,533.12
36.8502,501.41,528.69
36.8707,503.73,528.36
36.8954,504.78,528.88
36.9158,505.42,534.31
36.9363,505.34,555.25
36.9568,502.47,574
36.9773,498.98,578
36.9976,497.18,562
37.0222,495.15,530.4
37.0427,493.52,486.52
37.0632,495.41,436.82
37.0837,498.33,388.65
37.1043,501.06,345.72
37.1286,502.85,314.98
37.1491,503.28,300.58
37.1698,505.42,299.27
37.1901,507.34,305.41
37.2108,508.07,317.33
37.2313,510.06,332.46
37.2557,510.25,349.17
37.2762,511.2,366.34
37.2967,509.96,383.67
37.3172,510.57,399.94
37.3377,508.85,414.35
37.3621,507.68,427.08
37.3826,504.95,437.86
37.4031,503.36,446.49
37.4236,503.29,454.19
37.4442,501.43,460.35
37.4647,499.94,465.88
37.4892,499.75,470.11
37.5097,499.8,473.89
37.5302,501.24,479.11
37.5506,502.79,483.09
37.5712,503.64,486.67
37.5955,505.11,490.94
37.616,505.69,495.15
37.6366,505.95,497.72
37.657,505.16,501.37
37.6775,503.73,504.3
37.6981,507.78,506.04
37.7225,510.83,506.63
37.743,511.66,506.71
37.7635,511.33,505.96
37.784,511.06,504.77
37.8046,509.65,503.02
37.8251,508.32,501.41
37.8496,507.86,500.73
37.87,507.48,500.78
37.8906,507.59,500.83
37.9111,507.07,502.26
37.9315,507.66,503.81
37.9561,507.33,506.25
37.9765,507.46,509
37.997,507.77,511
38.0176,506.61,511
38.0381,506.09,511.6
38.0586,504.87,511.88
38.083,503.5,511.9
38.1035,501.8,510.92
38.124,501.24,509.14
38.1447,501.59,507.71
38.1651,500.47,505.77
38.1896,500.38,505.01
38.21,501.9,504.81
38.2306,502.92,505.05
38.2509,504.14,505.64
38.2715,505.91,506.11
38.292,506.13,508.89
38.3164,506.5,509.91
38.3371,506.2,510.73
38.3576,505.96,511.38
38.3781,504.57,512.71
38.3985,505.46,513.77
38.4229,504.56,513.01
38.4436,503.65,512.01
38.464,502.92,512.01
38.4845,504.14,511.01
38.505,502.91,509.01
38.5255,502.73,506.8
38.5498,501.38,505.44
38.5704,501.71,504.35
38.591,502.96,503.68
38.6114,503.97,504.15
38.6321,503.38,505.32
38.6524,505.1,507.05
38.677,505.68,508.24
38.6975,507.75,509.79
38.718,507,511.44
38.7385,506.2,512.95
38.7589,504.16,513.16
38.7834,503.93,511.73
38.804,501.94,510.58
38.8245,500.75,508.47
38.8449,499.2,506.77
38.8654,500.56,506.62
38.8858,500.05,505.69
38.9104,501.04,504.76
38.9309,500.23,504.2
38.9515,500.19,504.56
38.972,501.75,505.25
38.9925,504,507.6
39.017,503.2,507.68
39.0375,503.76,510.94
39.058,504.21,525.76
39.0784,505.37,556.6
39.0989,506.69,600.08
39.1194,504.95,638.87
39.1438,504.56,661.49
39.1645,501.25,675.79
39.1848,498.8,679.84
39.2053,496.24,677.87
39.2258,493.59,673.09
39.2504,491.07,660.08
39.2708,490.26,641.46
39.2914,490.21,624.17
39.3118,490.37,608.73
39.3322,489.09,591.59
39.3529,488.07,579.67
39.3774,490.06,567.94
39.3979,493.45,560.15
39.4184,494.36,553.32
39.4389,493.69,548.06
39.4593,492.95,545.04
39.4797,493.16,541.64
39.5043,494.93,537.11
39.5248,494.94,532.29
39.5454,494.55,529.03
39.5658,493.64,522.62
39.5863,494.91,521.9
39.611,496.53,524.92
39.6313,496.63,535.34
39.6518,496.5,548.87
39.6722,500.4,556.69
39.6928,506.12,546.96
39.7132,512.9,516.16
39.7378,518.72,473.53
39.7583,521.57,428.63
39.7787,524.06,388.9
39.7994,526.65,360.72
39.8198,527.12,347.38
39.8442,524.49,344.1
39.8647,522.2,347.28
39.8852,521.36,355.62
39.9057,520.69,365.3
39.9262,517.15,375.64
39.9466,513.92,387.71
39.9712,511.33,400.37
39.9918,510.87,412.3
40.0122,510.69,423.44
40.0326,510.36,434.55
40.0532,508.68,445.44
40.0777,510.15,455.75
40.0982,509.52,464.4
40.1188,508.21,471.32
40.1391,507.17,478.06
40.1597,506.94,482.85
40.1801,507.55,485.88
40.2047,505.84,488.1
40.2253,504.67,489.68
40.2458,502.94,491.14
40.2661,502.95,492.12
40.2867,502.96,492.29
40.3111,503.37,492.63
40.3316,502.29,493.51
40.3521,501.64,493.21
40.3727,502.11,492.76
40.3931,503.49,494.61
40.4137,503.39,496.69
40.4381,505.31,498.75
40.4588,505.25,500.4
40.4791,504.2,501.92
40.4998,504.16,503.74
40.5202,502.33,504.79
40.5406,500.86,505.23
40.5652,499.09,504.39
40.5857,499.07,503.11
40.606,498.06,501.89
40.6266,497.85,500.71
40.6471,497.68,498.97
40.6716,498.14,498.37
40.692,499.51,498.3
40.7125,500.41,499.24
40.7332,500.53,500.59
40.7537,501.42,502.67
40.774,501.94,505.54
40.7986,502.15,507.03
40.8191,502.12,508.62
40.8395,501.1,509.7
40.8601,500.88,509.36
40.8806,500.1,506.49
40.9051,500.28,503.99
40.9256,499.43,501.39
40.9462,497.94,498.91
40.9666,497.35,495.93
40.987,497.88,493.54
41.0075,497.91,493.64
41.032,498.92,493.51
41.0526,501.34,494.81
41.0732,502.47,497.25
41.0936,505.18,500.6
41.114,506.54,502.08
41.1385,507.23,504.26
41.159,506.99,506.01
41.1795,504.99,507.41
41.2,503.59,509.13
41.2205,502.27,511.9
41.2409,501.02,515.32
41.2654,500.61,516.46
41.286,498.69,516.57
41.3067,498.15,515.85
41.3269,496.72,514.68
41.3474,497.58,513.35
41.3721,497.46,512.28
41.3925,498.17,512.82
41.413,500.14,511.86
41.4336,501.91,512.89
41.454,502.93,513.71
41.4745,503.94,514.97
41.499,504.15,515.77
41.5194,504.92,516.22
41.5399,504.54,515.38
41.5605,504.63,513.9
41.5811,503.3,511.92
41.6015,502.04,509.94
41.626,501.23,507.55
41.6465,498.99,508.64
41.667,496.39,523.11
41.6874,494.71,553.49
41.708,493.97,586.59
41.7323,492.38,620.27
41.753,492.3,650.22
41.7734,492.84,668.17
41.7939,493.07,678.14
41.8144,495.46,682.71
41.8349,496.57,673.77
41.8594,497.85,669.22
41.88,500.28,660.97
41.9003,503.03,648.38
41.9209,506.42,632.5
41.9414,506.34,616.2
41.9658,508.47,601.76
41.9865,508.78,586.41
42.0069,508.62,575.73
42.0274,508.5,565.38
42.0479,508.8,552.31
42.0684,509.24,543.84
42.0928,508.59,534.28
42.1135,508.07,531.62
42.1339,508.66,528.7
42.1544,508.53,523.96
42.1749,508.22,525.97
42.1994,507.18,526.77
42.2198,505.34,523.22
42.2404,506.07,523.17
42.2609,504.46,523.94
42.2813,503.37,526.15
42.3018,502.29,521.92
42.3262,501.63,520.34
42.3469,500.11,515.27
42.3674,499.69,511.02
42.3878,499.95,508.01
42.4084,499.96,508.41
42.4288,501.37,510.13
42.4533,501.89,512.3
42.4738,502.72,518.04
42.4943,504.17,524.63
42.5147,503.94,535.11
42.5353,501.35,556.09
42.5597,500.08,573.67
42.5803,500.06,578.93
42.6009,500.45,573.95
42.6214,501.16,553.56
42.6418,501.93,522.05
42.6623,504.14,482.24
42.6868,506.71,437.79
42.7072,509.37,392.23
42.7277,511.3,352.99
42.7483,510.64,324.59
42.7687,510.51,312.87
42.7931,512.21,312.7
42.8138,513.57,319.76
42.8343,514.45,331.01
42.8547,513.36,346
42.8752,512.49,361.4
42.8957,510.99,377.52
42.9203,509.59,392.82
42.9407,507.47,405.05
42.9612,505.18,416.24
42.9819,502.94,425.2
43.0022,500.56,433.16
43.0266,499.04,440.52
43.0472,497.64,447.42
43.0677,496.31,453.54
43.0882,496.25,458.83
43.1087,496.4,463.86
43.1291,497.12,468.69
43.1537,497.49,473.35
43.1741,498,478.68
43.1946,499.8,483.35
43.2152,501.24,489.28
43.2358,503.19,494.02
43.2602,503.55,497.22
43.2808,502.64,499.37
43.3013,502.31,500.7
43.3217,501.25,501.76
43.3421,500.4,502.41
43.3628,499.12,502.53
43.3872,497.9,502.42
43.4077,497.52,502.14
43.4283,497.41,501.51
43.4486,496.93,500.81
43.4692,495.94,500.65
43.4897,497.16,500.92
43.5142,497.52,503.33
43.5346,499.22,505.07
43.5551,500.18,506.85
43.5755,501.14,508.08
43.5961,502.31,510.07
43.6207,502.25,511.05
43.6411,502.8,511.64
43.6616,502.04,511.91
43.682,502.23,511.93
43.7026,500.79,510.74
43.7231,500.83,510.2
43.7477,499.66,508.36
43.7681,497.33,506.69
43.7887,497.66,505.35
43.8091,499.53,504.08
43.8296,500.63,503.26
43.8539,501.1,503.81
43.8746,501.68,505.25
43.8951,502.54,506.6
43.9157,502.44,507.28
43.9361,503.55,508.22
43.9565,503.84,509.98
43.981,504.87,511.38
44.0016,503.7,511.91
44.0221,502.76,511.33
44.0425,501.61,510.06
44.063,500.68,508.65
44.0875,500.15,507.12
44.1081,499.32,505.69
44.1286,498.65,503.76
44.1491,499.12,503
44.1696,500.3,503.2
44.1901,501.44,503.36
44.2146,502.75,504.29
44.2351,503,505.83
44.2556,503.6,507.27
44.276,503.48,509.21
44.2965,503.38,511.17
44.3171,503.11,512.34
44.3414,502.29,512.87
44.362,501.23,512.7
44.3824,500.98,511.76
44.403,500.59,510.6
44.4234,498.87,509.88
44.4479,497.9,508.71
44.4685,499.52,506.17
44.489,500.41,504.13
44.5094,499.73,503.31
44.53,503.18,502.64
44.5504,505.35,503.32
44.5749,508.88,504.85
44.5956,509.9,507.28
44.6159,510.12,509.43
44.6365,511.1,510.94
44.6568,510.88,511.75
44.6813,509.5,512.6
44.702,508.2,513.08
44.7224,506.36,512.67
44.7428,505.49,511.93
44.7634,504.19,509.75
44.7839,503.15,508
44.8085,501.52,507.2
44.829,499.82,505.96
44.8493,499.85,504.37
44.8698,500.48,504.09
44.8904,500.79,505.47
44.915,502.63,507.18
44.9353,503.1,508.74
44.9558,503.48,509.79
44.9763,504.19,511.64
44.9968,505.35,513.51
45.0173,504.08,514.01
45.0418,504.86,514.21
45.0624,504.09,513.76
45.0829,503.07,513.41
45.1034,503.66,511.13
45.1239,502.73,509.5
45.1482,500.78,509.4
45.169,500.22,513.72
45.1893,499.78,530.18
45.2098,498.42,561.54
45.2303,495.74,601.03
45.2507,494.99,640.23
45.2752,494.39,673.18
45.2957,493.51,699.75
45.3164,492.01,719.2
45.3369,490.41,731.16
45.3574,485.93,733.93
45.3778,482.74,728.14
45.4022,481.39,717.11
45.4228,478.51,707.09
45.4434,476.81,688.07
45.4637,475.85,661.66
45.4843,477.68,628.13
45.5088,479.14,593.9
45.5292,482.31,564.32
45.5498,484.85,534.26
45.5704,489.28,512.21
45.591,492.83,491.56
45.6113,494.26,484.65
45.6359,496.81,479.52
45.6563,499.05,477.42
45.6768,500.24,474.93
45.6973,501.59,478.55
45.7179,502.27,481.04
45.7422,503.02,484.23
45.7628,502.01,482.78
45.7833,500.81,481.63
45.8037,500.45,480.9
45.8241,500.96,484.52
45.8447,499.17,485.22
45.8691,500.33,486.37
45.8897,501.07,487.9
45.9102,501.45,491.52
45.9307,500.76,490.22
45.9512,501.21,493.77
45.9757,503.57,494.42
45.9963,502.85,500.93
46.0167,502.48,508.55
46.0372,502.59,508.04
46.0578,503.47,511.63
46.0782,503.38,514.9
46.1027,501.9,514.72
46.1232,501.92,515.98
46.1437,500.74,509.58
46.1641,500.99,508.47
46.1846,500.39,508.97
46.2053,499.51,506.18
46.2297,501.41,503.54
46.2502,501.93,504.23
46.2707,502.34,503.59
46.2912,502.27,504.27
46.3116,502.82,508.62
46.3361,504.86,518.89
46.3568,504.28,541.91
46.3771,504.23,567.53
46.3976,503.18,589.23
46.4181,502.95,601.98
46.4385,501.76,603.98
46.4631,500.01,593.99
46.4836,500.6,571.59
46.5041,499.68,539.47
46.5248,502.75,497.58
46.545,507.2,448.46
46.5696,508.56,400.97
46.5902,510.45,365.58
46.6106,512.16,345.46
46.6311,514.73,337.97
46.6516,517.18,339.57
46.6721,515.94,345.46
46.6966,514.76,353.97
46.7171,513.4,365.17
46.7375,512.32,378.74
46.758,511.06,391.59
46.7784,509.65,404.87
46.8031,508.32,418.1
46.8235,510.45,421.48
46.8441,517.76,415.78
46.8645,523.41,411.23
46.885,525.93,410.98
46.9056,527.34,413.79
46.93,527.47,417.83
46.9506,526.18,423.46
46.971,525.54,430.57
46.9915,524.83,439.66
47.0121,523.07,448.52
47.0364,519.45,458.62
47.0569,516.76,467.5
47.0775,514.81,475.8
47.098,510.85,483.44
47.1184,509.08,488.55
47.1389,506.06,492.04
47.1636,506.65,494.23
47.1841,504.12,494.39
47.2046,502.1,495.11
47.2251,500.08,495.89
47.2455,499.46,496.51
47.2659,500.77,496.61
47.2904,500.62,497.29
47.311,501.89,497.83
47.3314,502.51,499.66
47.352,504.41,501.73
47.3724,504.53,505.78
47.3969,503.82,508.03
47.4174,503.26,510.42
47.438,502.41,511.94
47.4584,500.33,513.55
47.479,499.66,515.04
47.4994,499.13,515.23
47.524,497.9,514.19
47.5445,497.32,511.55
47.565,496.46,509.84
47.5854,496.37,507.67
47.6059,497.29,505.34
47.6304,497.43,504.67
47.6509,496.35,504.34
47.6714,499.48,504.67
47.692,502.38,506.53
47.7124,504.51,508.43
47.7329,505.2,509.94
47.7574,505.36,511.35
47.7779,505.69,512.48
47.7984,504.55,513.59
47.819,504.04,513.87
47.8394,502.63,514.3
47.8639,501.51,513.04
47.8844,501.41,511.43
47.9049,501.92,510.94
47.9254,502.34,508.95
47.946,501.47,507.16
47.9663,500.78,505.13
47.9908,500.82,504.5
48.0113,501.66,505.2
48.032,503.53,505.56
48.0523,503.82,507.65
48.0729,504.26,509.72
48.0972,505.41,511.38
48.1177,505.32,512.5
48.1384,505.26,513.4
48.1589,504.01,513.32
48.1793,504.41,512.86
48.1998,501.52,512.69
48.2242,501.42,510.55
48.2447,500.94,507.64
48.2652,500.55,505.51
48.2858,499.24,503.61
48.3062,498.59,503.29
48.3268,498.27,502.83
48.3513,499.22,503.06
48.3719,500.77,503.45
48.3924,502.82,504.96
48.4127,503.06,507.37
48.4332,503.64,509.89
48.4577,502.52,513.12
48.4784,502.01,514.89
48.4987,500.21,514.91
48.5194,500.17,514.33
48.5397,499.73,512.47
48.5602,499.39,509.97
48.5847,499.31,507.98
48.6054,498.05,506.18
48.6257,497.44,504.35
48.6462,499.55,502.08
48.6668,501.04,502.06
48.6913,501.43,500.05
48.7118,503.55,499.84
48.7322,504.04,502.67
48.7527,505.83,503.54
48.7733,506.86,506.03
48.7937,505.89,504.02
48.8182,507.91,522.62
48.8387,510.13,554.9
48.8592,512.5,597.12
48.8797,514,632.29
48.9002,514.4,662.43
48.9246,511.72,674.35
48.9452,509.78,670.48
48.9659,508.42,656.78
48.9862,505.94,641.83
49.0067,504.95,619.26
49.0273,503.76,603.41
49.0518,504.01,587.13
49.0721,504.61,576.7
49.0928,505.29,565.16
49.1131,505.83,557.93
49.1338,504.66,551.34
49.1582,502.73,548.47
49.179,501.58,546.78
49.1991,500.67,548.22
49.2196,499.33,544.38
49.2401,497.07,539.7
49.2607,496.85,537.16
49.2851,495.48,537.73
49.3057,495.79,544.38
49.3261,495.63,561.91
49.3468,497.3,582.53
49.3671,498.04,594.62
49.3877,496.23,596.1
49.4121,497.99,581.48
49.4327,501.19,550.58
49.453,502.35,508.07
49.4736,503.88,459.85
49.4941,505.91,414.08
49.5185,506.72,377.07
49.539,507.18,356.45
49.5597,506.14,347.36
49.5803,505.71,346.29
49.6005,506.37,351.03
49.6211,506.9,359.83
49.6456,507.72,369.66
49.6662,506.57,380.53
49.6866,505.26,391.82
49.7071,504.81,402.06
49.7275,503.45,411.85
49.752,508.36,422.08
49.7725,510.09,431.46
49.793,510.87,440.17
49.8135,512.29,449.34
49.834,513.24,458.07
49.8545,513.99,466.45
49.879,512.99,473.76
49.8995,511.39,479.01
49.9201,509.11,483.21
49.9405,506.89,485.97
49.9609,505.51,487.97
49.9854,504.61,488.98
50.0059,503.09,490.38
50.0265,502.47,490.51
50.047,502.38,492.21
50.0675,502.1,493.96
50.0879,502.88,496.17
50.1124,503.7,498.14
50.133,502.56,500.11
50.1535,501.85,502.69
50.1739,503.08,505.15
50.1945,503.66,508.12
50.2191,503.13,510.3
50.2395,500.91,511.44
50.2601,500.32,511.15
50.2806,502.06,510.92
50.301,500.65,508.74
50.3214,499.52,507.39
50.3459,498.61,504.51
50.3665,499.09,504.01
50.387,499.67,502.21
50.4074,500.14,497.57
50.4279,500.71,495.65
50.4485,502.17,498.92
50.4729,504.33,502.94
50.4934,506.87,505.55
50.5139,509.69,506.84
50.5343,510.96,509.47
50.5551,512.36,510.78
50.5794,513.09,511.42
50.6,512.87,512.34
50.6205,512.9,511.47
50.6409,512.32,509.18
50.6614,511.46,505.34
50.6818,509.76,501.67
50.7063,509.41,497.54
50.7269,507.73,494.43
50.7473,508.58,493.74
50.7679,508.07,493.8
50.7883,508.05,494.64
50.8128,509.24,496.31
50.8335,509.79,497.45
50.8539,509.44,498.76
50.8744,509.55,496.41
50.8949,509.04,494.33
50.9155,508.63,493.86
50.9398,509.1,493.89
50.9603,508.68,494.11
50.9808,509.15,493.29
51.0015,507.92,492.03
51.0218,506.33,491.42
51.0462,505.47,491.34
51.0667,503.37,491.47
51.0874,506.7,493.18
51.1079,507.76,494.94
51.1283,509.21,497.35
51.1487,508.77,500.68
51.1732,510.01,503.75
51.1937,510.21,509.8
51.2143,500.97,518.64
51.2348,486.37,526.71
51.2553,476.7,530.97
51.2756,469.76,531.97
51.3002,465.81,530.98
51.3207,463.65,528.78
51.3412,463.72,526.23
51.3617,465.37,524.38
51.3821,468.7,519.31
51.4067,471.76,515.24
51.4273,474.81,511.8
51.4477,478.85,509.84
51.4682,482.48,508.07
51.4887,483.98,508.66
51.5092,487.19,509.32
51.5336,489.35,510.26
51.5542,491.88,512.81
51.5747,494.9,512.45
51.5951,493.92,513.16
51.6157,496.54,512.53
51.6402,497.63,511.02
51.6607,498.1,508.02
51.6812,497.88,505.61
51.7018,497.71,503.09
51.7222,496.97,500.47
51.7428,496.97,497.98
51.7673,499.58,495.58
51.7879,500.66,493.47
51.8082,501.73,492.77
51.8288,502.98,494.82
51.8491,504.79,496.45
51.8736,506.63,499.36
51.8941,507.7,502.29
51.9146,507.56,505.23
51.9351,507.25,506.39
51.9558,505.4,508.51
51.9764,504.32,509.21
52.0007,503.46,508.57
52.0211,503.16,507.25
52.0417,501.13,505
52.0621,501.11,502.6
52.0827,501.48,501.28
52.1071,501.79,498.83
52.1277,503.03,496.86
52.1482,503.42,497.09
52.1687,503.94,497.67
52.1893,504.75,499.74
52.2096,505.4,502.99
52.234,505.12,504.99
52.2546,506.7,507.59
52.2751,507.16,509.67
52.2958,506.73,510.94
52.3162,506.18,510.75
52.3366,503.94,510.4
52.361,505.16,510.52
52.3816,505.12,508.82
52.4021,504.5,506.65
52.4225,503.8,503.52
52.443,503.44,500.82
52.4675,504.15,499.25
52.4881,504.12,499.4
52.5086,502.9,499.52
52.529,504.72,500.02
52.5495,506.57,502.21
52.5699,508.06,505.17
52.5945,509.45,507.54
52.6152,508.96,509.43
52.6356,507.17,512.14
52.656,507.13,513.52
52.6764,504.51,513.41
52.701,503.21,512.53
52.7215,501.56,510.42
52.7421,499.25,508.54
52.7626,499,505.03
52.783,500,504.23
52.8034,500.2,502.18
52.828,501.96,501.14
52.8486,501.57,501.52
52.869,502.25,501.41
52.8896,502,503.93
52.91,501.8,505.94
