Program Time [s],data 0,data 1
5.58431,502.52,496.8
5.60485,500.82,491.84
5.62524,498.05,490.27
5.64979,498.04,491.82
5.67032,498.03,493.65
5.69081,497.23,495.92
5.71131,497.98,500.54
5.73171,498.19,505.43
5.75637,497.95,508.74
5.77678,498.76,510.4
5.79726,498.21,510.92
5.81783,498.37,508.73
5.8383,495.49,504.79
5.85877,492.59,501.63
5.88326,493.08,497.1
5.90391,493.26,493.48
5.92423,494.41,488.99
5.94471,494.33,485.59
5.9652,492.86,483.67
5.98983,489.89,484.14
6.01027,489.51,487.91
6.03072,491.21,491.53
6.05137,490.77,496.02
6.07171,492.41,501.02
6.09221,492.53,504.21
6.11678,492.02,506.57
6.13726,490.42,507.66
6.15777,489.74,505.33
6.17824,488.79,502.06
6.19871,486.43,497.05
6.2232,486.14,492.04
6.24372,488.52,486.03
6.26419,488.81,479.02
6.28475,488.25,472.82
6.30515,489.2,467.66
6.32565,491.16,465.52
6.35013,489.73,467.22
6.37086,489.98,470.98
6.39136,489.39,475.98
6.41163,486.91,482.18
6.43232,486.33,488.15
6.4526,486.06,491.32
6.47718,485.25,495.25
6.49774,484.6,497.6
6.51818,483.88,500.48
6.53861,486.1,508.19
6.5592,491.28,537.95
6.58359,498.23,579.36
6.60414,507.78,617.29
6.6246,518.42,641.63
6.64508,525.14,654.9
6.66557,530.11,660.12
6.6861,531.49,658.9
6.71059,533.19,648.92
6.7311,531.15,636.14
6.75158,527.92,627.11
6.77213,525.94,631.49
6.79254,524.35,651.79
6.8171,520.68,681.63
6.83764,510.34,705.51
6.85809,496.08,725
6.87859,478.86,736.4
6.89908,462.69,736.92
6.9195,450.35,719.14
6.94418,442.48,681.71
6.96464,438.18,632.97
6.98509,438.55,575.97
7.00558,444.44,509.98
7.02611,452.15,436.38
7.05052,459.72,365.51
7.0711,468.58,306.01
7.09158,477.06,265.8
7.11208,486.05,249.24
7.13255,492.44,249.99
7.15298,496.35,259.6
7.17752,498.08,275.68
7.19804,499.86,293.14
7.21851,502.29,312.91
7.23904,501.23,331.93
7.25952,499.99,348.74
7.27995,498.99,362.6
7.30459,498.39,373.88
7.32505,495.71,383.5
7.34558,494.57,392.8
7.36603,494.46,402.04
7.38652,495.57,412.03
7.41096,496.05,421.63
7.43164,498.04,433.5
7.45205,496.63,446
7.47257,497.31,458
7.49302,498.25,468.4
7.51342,497.4,478.72
7.53792,497.72,488.38
7.55852,497.57,494.7
7.57895,497.26,499.36
7.59946,495.01,501.09
7.6199,494.01,500.07
7.64437,493.8,498.66
7.66489,492.04,495.93
7.68546,490.03,490.94
7.70591,488.63,486.15
7.72645,487.9,483.32
7.74688,488.12,482.86
7.77144,491.1,483.09
7.79192,489.08,484.87
7.81246,489.86,487.7
7.83293,490.89,492.16
7.85369,492.31,497.72
7.87391,493.65,502.58
7.89842,493.92,507.26
7.91892,493.14,511.61
7.93956,493.31,513.09
7.95997,493.05,512.87
7.98045,492.44,510.7
8.00496,491.95,508.76
8.02535,490.56,503.41
8.04591,488.85,498.52
8.06638,488.88,492.42
8.08694,489.1,487.54
8.10749,491.28,485.03
8.13203,492.03,484.22
8.15244,492.22,485.58
8.1731,494.58,488.26
8.19352,496.26,494.01
8.21384,498.01,500.01
8.23833,496.81,504.61
8.25901,496.25,509.49
8.27954,497.2,511.59
8.2998,497.16,512.27
8.32035,495.73,511.22
8.34075,494.58,508.37
8.36528,492.86,504.9
8.38581,490.09,500.72
8.40628,492.67,494.58
8.42677,499.34,488.66
8.44732,505.27,483.53
8.47176,509.22,481.22
8.49242,512.57,479.78
8.51295,513.26,481.22
8.53329,515.41,484.58
8.55382,514.93,488.26
8.57435,513.34,492.01
8.59871,513.47,496.21
8.61936,510.58,500.57
8.63975,508.26,503.05
8.66025,506.01,504.04
8.68076,504.01,503.43
8.70128,502.21,500.95
8.72591,500.17,497.16
8.74634,498.33,494.33
8.76675,495.87,490.06
8.78727,494.49,484.85
8.80784,492.79,482.08
8.83219,491.64,480.86
8.85285,491.51,479.69
8.87333,493.61,481.35
8.89378,494.09,486.48
8.91417,494.87,498.79
8.93473,496.09,535.03
8.95918,497.28,573.62
8.9797,495.62,613.9
9.00018,492.9,649.72
9.02076,491.12,667.97
9.04121,489.29,673.58
9.06565,487.63,664.66
9.08619,487.91,649.53
9.10673,487.13,637.82
9.12723,486.9,641.66
9.14778,481.92,664.93
9.1683,480.34,685.34
9.19274,475.87,704.87
9.21332,467.7,719.1
9.23384,456.56,726.88
9.2542,446.25,727.7
9.27471,439,722.76
9.29925,433.8,713.61
9.31972,436.84,696.09
9.34034,444.27,665.07
9.36065,454.82,623.46
9.38127,465.25,575.77
9.40161,476.4,523.01
9.42615,490.12,462.01
9.4468,504.1,394.41
9.46721,515.08,330.33
9.48783,523.06,276.46
9.5081,528.45,239.17
9.53273,529.96,223.34
9.55319,530.77,222.87
9.57374,531.21,233.69
9.59419,531.37,251.16
9.61458,531.1,272.32
9.63524,528.28,296.86
9.65969,528.02,323.09
9.6802,527.02,348.07
9.70067,523.61,370.86
9.72118,519.69,389.88
9.74172,515.95,406.51
9.76219,511.96,419.81
9.7866,507.57,428.85
9.80712,503.86,434.48
9.82769,500.68,439.58
9.84808,497.55,443.06
9.86856,495.04,445.85
9.89307,494.03,448.88
9.91358,492.62,452.11
9.93426,491.5,457.48
9.9546,493.4,464.79
9.97509,495.52,472.63
9.99566,497.62,480.5
10.02,499.09,487.8
10.0408,499.87,494.84
10.0613,500.7,499.47
10.0817,500.36,501.98
10.1021,499.89,503.98
10.1265,497.91,503.79
10.1471,496.93,502.03
10.1677,494.74,499.82
10.188,493.19,495.66
10.2087,490.56,491.33
10.2289,493.24,485.26
10.2535,496.8,478.61
10.274,499.44,475.69
10.2945,502.35,475.95
10.3149,503.88,477.76
10.3355,503.5,481.41
10.3599,503.8,485.13
10.3806,503.24,490.3
10.401,502.99,495.04
10.4216,503.2,498.83
10.442,502.16,501.47
10.4624,501.12,502.57
10.4869,499.1,501.26
10.5076,497.68,498.61
10.528,494.54,495.09
10.5485,491.44,491.67
10.5691,490.35,487.13
10.5896,489.68,484.11
10.6139,489.74,483.29
10.6345,488.99,483.83
10.655,490.8,484.46
10.6754,491.04,487.57
10.696,492.03,492.86
10.7205,494.22,499.69
10.7409,496.18,505.35
10.7614,497.94,510.68
10.7819,497.95,513.74
10.8025,497.16,514.39
10.8229,496.13,513.52
10.8474,494.7,511.01
10.868,492.76,507.41
10.8885,491.81,502.53
10.909,489.45,497.42
10.9295,489.36,491.54
10.9539,489.09,487.23
10.9744,488.67,484.98
10.995,489.14,483.79
11.0154,489.91,485.03
11.0359,490.73,487.82
11.0563,491.98,492.66
11.0808,494.59,497.93
11.1014,497.07,502.34
11.1219,497.85,506.27
11.1424,497.48,509.02
11.1628,496.99,510.42
11.1874,497.99,513.73
11.2078,497.19,515.99
11.2284,495.55,514.59
11.2488,494.84,511.87
11.2694,493.87,506.9
11.2899,492.1,501.12
11.3145,491.68,496.09
11.3349,491.54,493.48
11.3553,492.03,492.38
11.3759,492.83,493.1
11.3964,493.66,495.08
11.4169,495.53,499.47
11.4414,498.02,503.57
11.4618,498.22,507.66
11.4823,499.18,511.33
11.5028,499.54,513.26
11.5233,499.23,514.21
11.5477,496.79,512.97
11.5683,494.23,509.77
11.5888,493.38,506.22
11.6093,494.11,505.98
11.6298,493.49,515.38
11.6503,491.19,561.9
11.6747,486.55,622.52
11.6953,481.44,676.62
11.7159,477.75,704.89
11.7364,474.2,720.12
11.7569,470.56,726.89
11.7813,467.85,718.11
11.8018,466.08,698.69
11.8223,465.06,673.15
11.8428,467.45,644.52
11.8632,467.56,613.42
11.8837,469.05,587.73
11.9082,470.24,562.59
11.9288,471.99,542.07
11.9493,473.19,527.46
11.9697,474.55,515.16
11.9901,474.64,510.73
12.0146,475.71,519.19
12.0352,478.17,531.15
12.0557,482.14,533.92
12.0763,490.31,513.94
12.0967,498.85,472.95
12.1172,503.08,423.56
12.1416,505.86,375.65
12.1624,508.29,338.32
12.1827,509.63,318.85
12.2032,507.91,313.48
12.2237,506.72,316.99
12.2442,504.38,324.99
12.2687,502.9,335.39
12.2894,501.12,346.91
12.3097,498.7,357.53
12.3302,497.36,368.22
12.3506,490.29,376.58
12.3751,484.43,384.06
12.3957,480.34,393.25
12.4163,477.87,403
12.4367,476.1,414.4
12.4571,476.88,426.12
12.4776,478.9,438.1
12.5021,481.72,450.48
12.5226,483.98,462.98
12.5431,484.58,472.39
12.5636,484.87,479.91
12.5842,484.29,484.53
12.6086,484.83,488.42
12.6291,485.27,489.94
12.6497,486.21,489.55
12.6701,485.77,487.64
12.6905,485.22,484.51
12.711,484.17,481.61
12.7356,483.54,478.69
12.7561,484.43,477.55
12.7766,485.94,477.64
12.7971,488.16,479.51
12.8176,490.72,483.61
12.8422,491.78,488.49
12.8626,493.62,493.99
12.8831,495.3,499.59
12.9035,497.84,503.87
12.924,499.47,508.5
12.9445,499.98,512
12.969,500.38,513.2
12.9896,500.11,512.16
13.01,501.28,509.13
13.0306,499.03,504.9
13.051,496.82,499.32
13.0755,495.86,494.46
13.096,495.89,490.57
13.1165,495.91,487.25
13.137,495.53,486
13.1575,495.62,486
13.178,496.3,488.2
13.2025,497.64,493.16
13.223,497.51,498.13
13.2436,499.61,502.9
13.264,499.09,507.72
13.2844,505.87,510.58
13.3049,514.1,513.66
13.3296,520.48,513.53
13.35,522.18,511.62
13.3706,521.34,507.7
13.391,518.48,502.56
13.4114,517.18,496.85
13.4359,515.14,491.68
13.4565,513.32,488.34
13.4769,511.05,486.07
13.4974,508.64,485.86
13.5179,509.11,486.49
13.5384,507.69,489.19
13.5629,505.75,493.15
13.5834,504.8,497.52
13.6039,503.44,502.42
13.6246,501.95,506.53
13.6449,500.36,509.03
13.6695,498.69,509.42
13.6899,496.95,508.14
13.7104,495.76,504.91
13.7309,499.01,499.73
13.7514,507.41,494.38
13.772,512.33,489.71
13.7964,514.06,484.56
13.8169,516.45,481.05
13.8374,516.16,478.84
13.8579,515.93,479.27
13.8784,514.14,481.22
13.9028,512.91,484.37
13.9234,512.33,489.1
13.9441,510.46,494.48
13.9644,515.37,500.58
13.985,524.3,506.47
14.0053,529.44,510.17
14.0298,529.15,511.14
14.0504,527.32,510.71
14.0711,524.86,507.57
14.0913,520.89,503.86
14.112,515.71,499.48
14.1323,511.97,494.19
14.1568,509.77,493.55
14.1775,503.22,506.64
14.1981,494.57,533.11
14.2184,483.06,573.49
14.2388,471.25,607.59
14.2635,460.4,629.47
14.2838,452.32,639.18
14.3044,447.45,635.14
14.3249,446.36,629.71
14.3452,448.49,631.97
14.3658,454.19,650.18
14.3903,450.55,679.34
14.4109,443.24,702.07
14.4314,433.19,722.26
14.4518,420.56,732.21
14.4724,409.24,731.17
14.4969,399.8,720.73
14.5173,395.04,707.39
14.5378,396.03,691.91
14.5583,405.42,675.73
14.5787,421.54,650.98
14.5992,440.83,615.79
14.6238,456.86,575.63
14.6443,474.49,533.1
14.6648,494.99,481.48
14.6852,516.79,422.19
14.7057,538.44,365.55
14.7302,557.55,313.64
14.7507,571.44,272.71
14.7712,578.75,252.17
14.7917,580.4,246.14
14.8122,577.52,249.71
14.8326,569.62,258.17
14.8572,562.89,269.33
14.8777,555.91,284.47
14.8982,549.33,302.57
14.9187,543.87,321.66
14.9392,537.09,340.13
14.9636,531.07,358.7
14.9842,528.06,379.16
15.0047,525.85,399.33
15.0252,524.28,417.46
15.0456,520.82,434.37
15.0661,517.66,448.1
15.0906,514.33,457.88
15.1113,511.66,465.1
15.1317,507.73,470.08
15.1523,503.58,472.47
15.1727,499.87,473.77
15.1933,496.49,474.22
15.2176,494.19,473.97
15.2381,494.76,473.38
15.2586,494,473.5
15.2791,493.6,475
15.2996,496.88,478
15.3241,506.51,485
15.3446,514.01,492.6
15.3651,519,499.28
15.3857,520.8,505.62
15.4061,522.24,510.1
15.4266,522.19,512.68
15.4511,519.96,514.34
15.4717,516.36,514.08
15.4922,512.29,511.66
15.5126,509.43,507.73
15.5331,507.15,502.98
15.5576,504.32,497.19
15.5781,500.65,491.75
15.5986,497.72,488
15.6191,496.18,485.4
15.6397,495.14,484.12
15.66,494.51,485.1
15.6845,494.21,488.08
15.7052,493.97,491.86
15.7256,495.38,495.89
15.7461,496.1,499.91
15.7665,496.68,504.53
15.7911,497.34,506.82
15.8116,496.88,507.46
15.8321,496.5,507.17
15.8526,496.2,505.53
15.8731,495.16,502.03
15.8936,493.13,497.42
15.918,491.1,492.14
15.9386,488.48,487.51
15.9592,487.39,484.41
15.9796,487.51,483.33
16.0001,487.81,484.26
16.0205,489.45,486.61
16.045,490.76,490.29
16.0656,491.81,494.43
16.0861,493.24,498.34
16.1067,494.4,503.08
16.1271,495.12,508.06
16.1516,494.69,520.05
16.1722,491.55,551.44
16.1927,484.24,586.15
16.213,473.99,610.72
16.2335,462,640.38
16.2539,451.2,650.3
16.2786,439.36,655.04
16.2991,431.09,651.43
16.3196,424.67,643.15
16.34,423.94,626.72
16.3606,425.95,609.57
16.385,431.76,598.66
16.4055,436.81,595.33
16.4261,440.85,614.46
16.4464,442.68,648.57
16.467,444.34,676.66
16.4874,441.67,697.52
16.512,439.74,710.62
16.5325,435.39,714.7
16.5529,436.11,704.56
16.5735,445.69,675.85
16.5939,458.35,636.08
16.6185,476.48,589.26
16.6389,495.59,530.61
16.6595,515.87,463.89
16.6801,534.69,397.11
16.7004,552.16,336.89
16.7208,566.92,287.71
16.7454,576.34,258.17
16.7659,580.67,248.53
16.7865,577.74,252.43
16.8069,574.99,266.54
16.8274,570.99,282.63
16.8519,563.79,301.71
16.8724,556.43,320.37
16.8929,547.35,337.69
16.9134,536.88,354.35
16.9339,527.9,366.88
16.9545,519.52,378.31
16.9788,513.22,387.45
16.9995,506.97,394.56
17.0199,499.58,401.25
17.0404,496.46,408.6
17.061,493.57,416.68
17.0853,492.86,425.14
17.1059,491.29,436.31
17.1264,489.23,445.85
17.1469,487.58,455.68
17.1673,487.67,464.14
17.1878,487.13,471.32
17.2123,484.71,477.85
17.2328,482.57,481.68
17.2533,478.25,484.35
17.2738,475.6,484.48
17.2943,473.88,482.78
17.3148,471.71,481.42
17.3393,469.36,479.14
17.36,468.69,476.11
17.3803,468.35,474.09
17.4008,468.48,475.47
17.4212,470.19,477.58
17.4457,470.75,481.26
17.4663,472.4,487.01
17.4868,473.72,494.01
17.5074,476.78,501.21
17.5278,479.82,508.36
17.5483,480.86,513.69
17.5728,482.29,516.75
17.5934,482.43,517.2
17.6139,482.54,515.76
17.6342,480.63,512.41
17.6548,475.91,507.33
17.6792,472.33,502.66
17.6997,471.66,497.13
17.7203,470.93,492.7
17.7407,470.74,489.56
17.7612,472.39,487.65
17.7817,474.92,487.72
17.8062,476.73,488.78
17.8268,480.79,492.82
17.8473,481.83,497.86
17.8677,484.66,503.29
17.8882,486.13,510.63
17.9128,486.9,505.5
17.9333,487.72,505.2
17.9537,488.58,505.76
17.9742,489.06,502.81
17.9947,490.25,497.05
18.0151,492.2,498.24
18.0398,493.36,498.39
18.0602,491.09,500.51
18.0807,489.87,502.21
18.1011,490.3,500.37
18.1217,489.44,500.69
18.1421,491.95,502.96
18.1667,490.96,505.16
18.1873,491.37,508.53
18.2078,491.49,512.43
18.2283,491.6,516.74
18.2487,491.28,519.39
18.2731,492.62,521.31
18.2937,492.3,522.45
18.3143,492.24,522.16
18.3347,491.39,518.73
18.3552,487.71,515.98
18.3756,487.77,511.79
18.4001,487.42,508.23
18.4206,487.13,498.78
18.4411,485.51,497.63
18.4616,490.8,498.7
18.4821,490.44,495.36
18.5067,498.36,491.49
18.5271,496.08,487.39
18.5476,505.47,484.71
18.5681,504.77,484.37
18.5886,508.82,485.7
18.6091,505.66,487.76
18.6335,490.92,481.01
18.6542,482.54,469.2
18.6747,484.83,481.96
18.6951,490.47,489.97
18.7156,490.97,497.38
18.7401,487.98,499.7
18.7607,484.78,499.56
18.7811,484.83,491.45
18.8015,477.66,492.56
18.8221,479.93,490.65
18.8426,485.94,488.12
18.8671,490.35,490.29
18.8876,496.48,495.04
18.9082,503.39,501.23
18.9286,504.71,506.38
18.949,507.57,509.91
18.9737,504.65,513.12
18.9941,504.12,513.9
19.0146,499.7,510.32
19.035,496.76,507.46
19.0555,496.41,506.16
19.076,497.13,502.13
19.1005,498.1,501.51
19.1211,498.68,497.4
19.1416,498.54,494.92
19.162,498.04,492.34
19.1826,497.03,492.27
19.203,498.82,490.62
19.2276,502.06,491.89
19.2481,502.85,495.51
19.2685,503.08,498.01
19.289,507.26,502.61
19.3094,507.41,508.29
19.334,504.53,511.03
19.3545,503.82,513.22
19.375,501.46,513.18
19.3955,497.97,512.14
19.416,494.97,509.51
19.4364,492.98,506.21
19.4609,490.18,501.77
19.4815,488.55,497.82
19.502,483.64,495.05
19.5225,480.31,495.04
19.543,482.45,493.43
19.5674,485.96,493.15
19.5879,487.37,493.72
19.6085,489.69,494.17
19.6289,491.15,493.74
19.6494,488.12,527.99
19.6698,480.3,573.99
19.6943,469.44,608.19
19.7151,457.55,639.16
19.7354,447.84,652.52
19.7559,440.27,656.42
19.7764,436.22,648.14
19.801,433.97,632.31
19.8214,435.78,618.65
19.8419,436.42,618.32
19.8625,434.94,643.85
19.8829,430.15,666.88
19.9033,424.72,685.91
19.9279,421.98,698.33
19.9483,420.58,704.26
19.9689,426.67,701.01
19.9895,436.93,685.81
20.0098,452.95,658.05
20.0303,470.16,623.64
20.0549,489.33,580.51
20.0753,508.86,518.41
20.0958,527.49,447.93
20.1163,542.99,378.94
20.1368,557.79,321.35
20.1613,564.03,284.48
20.1819,564.63,268.39
20.2024,562.7,264.91
20.2228,556.56,269.53
20.2433,553.25,280.82
20.2638,546.6,295.26
20.2883,542.28,309.01
20.3088,538.02,329
20.3293,534.42,349.2
20.3499,531.54,372.56
20.3703,528.83,392.85
20.3949,526.06,409.68
20.4153,520.85,424.14
20.4358,516.28,436.32
20.4563,513.02,444.05
20.4768,509.82,450.04
20.4972,507.06,452.03
20.5218,504.04,456.63
20.5424,499.24,461.3
20.5627,496.19,462.84
20.5833,494.75,464.07
20.6038,492.8,466.86
20.6282,492.44,470.69
20.6487,493.35,474.75
20.6692,494.48,479
20.6897,495.99,484
20.7102,495.39,488.8
20.7307,491.91,492.24
20.7552,489.53,494.79
20.7757,489.02,499.03
20.7964,488.62,501.03
20.8167,489.49,501.42
20.8372,489.4,500.14
20.8616,488.52,499.11
20.8822,488.61,497.69
20.9027,488.29,494.55
20.9233,486.83,493.24
20.9438,486.27,491.99
20.9642,485.81,490.59
20.9888,486.05,490.47
21.0091,488.04,491.58
21.0298,489.63,493.06
21.0502,490.71,495.45
21.0706,492.16,498.76
21.0911,494.53,501.01
21.1157,494.63,502.61
21.1362,493.9,504.49
21.1566,494.32,504.39
21.1771,494.06,503.51
21.1977,492.04,500.81
21.2222,492.44,498.05
21.2427,490.75,495.84
21.2632,488.4,492.87
21.2836,486.52,489.9
21.3041,485.62,489.12
21.3246,486.09,488.89
21.3491,488.87,490.11
21.3696,490.1,491.49
21.3902,491.48,494.19
21.4107,498.38,497.35
21.4311,505.11,501.48
21.4556,509.49,504.79
21.4761,511.39,506.43
21.4966,513.11,508.14
21.5171,513.89,509.12
21.5376,511.71,508.69
21.5582,508.97,507.15
21.5826,506.78,504.32
21.6031,503.62,500.86
21.6236,501.3,497.49
21.6441,498.04,494.19
21.6645,496.03,492.75
21.689,495.42,492.6
21.7096,495.94,492.08
21.7301,496.55,492.86
21.7505,497.64,494.89
21.7711,499.11,496.31
21.7916,499.89,498.85
21.8161,503.91,501.28
21.8366,506.13,502.82
21.8571,505.7,504.46
21.8776,503.16,505.97
21.8981,502.33,506.17
21.9185,500.26,505.34
21.9431,497.81,502.27
21.9636,495.45,499.22
21.984,493.36,494.97
22.0047,492.89,491.18
22.025,493.91,488.54
22.0495,492.93,487.03
22.07,492.74,486.63
22.0905,493.39,487.7
22.111,496.52,490.56
22.1315,499.81,492.65
22.152,501.65,495.92
22.1765,502.52,497.94
22.197,503.02,500.95
22.2175,504.01,502.76
22.238,503.41,503.61
22.2585,501.93,503.89
22.2829,500.14,502.91
22.3035,497.31,501.33
22.324,494.45,499.06
22.3444,493.56,495.25
22.3649,492.45,492
22.3854,491.76,490.6
22.41,492.61,490.28
22.4304,491.89,489.42
22.4511,492.51,490.14
22.4714,495.41,493.31
22.4919,496.93,495.25
22.5164,498.14,497.6
22.537,499.91,500.28
22.5574,500.33,502.02
22.5779,500.46,503.62
22.5984,500.77,504.1
22.6189,498.42,503.48
22.6436,497.13,502.18
22.6639,495.91,499.94
22.6844,494.73,496.36
22.7049,493.18,493.08
22.7254,490.74,491.27
22.7498,489.2,490.21
22.7705,488.16,489.37
22.7909,489.73,489.5
22.8114,491.78,491
22.832,493.42,492.6
22.8523,494.14,494.08
22.8769,495.91,495.86
22.8974,497.93,503.89
22.918,498.94,532.31
22.9384,495.75,575.45
22.9588,488,589.76
22.9794,483.8,632.21
23.0038,476.04,640.57
23.0243,469.43,648.05
23.045,464.75,644.64
23.0653,459.2,634.71
23.0859,457.56,622.57
23.1103,457.85,606.06
23.1309,461.08,592.85
23.1515,463.06,588.28
23.1719,467.25,603.42
23.1926,469.4,637.34
23.2128,467.52,661.47
23.2373,461.62,681.18
23.2579,453.89,694.14
23.2783,444.71,698.31
23.2988,438.37,695.85
23.3192,436.1,688.28
23.3437,439.08,670.02
23.3643,447.06,640.02
23.3849,458.45,602.82
23.4053,472.96,561.25
23.4258,488.97,506.8
23.4464,505.57,437.04
23.4708,521.46,366.63
23.4913,534.97,306.91
23.5118,543.77,263.73
23.5322,548.82,243.18
23.5527,551.66,240.94
23.5773,550.12,249.16
23.5977,548.5,263.52
23.6183,544.8,281.02
23.6388,542.04,301.62
23.6592,537.63,320.09
23.6797,532.91,338.67
23.7042,527.92,355.74
23.7248,521.94,372.59
23.7452,516.15,385.67
23.7657,511.92,396.94
23.7863,507.74,405.55
23.8067,506.19,414.44
23.8312,503.15,423.35
23.8517,502.52,432.88
23.8722,500.42,441.71
23.8927,502.13,449.76
23.9131,503.31,457.01
23.9377,503.45,464.01
23.9581,504.76,471.21
23.9787,504.81,477.77
23.9993,503.44,482.61
24.0197,501.56,486.09
24.0401,500.04,487.67
24.0647,498.04,489.14
24.0853,496.03,488.71
24.1056,494.02,487.97
24.1262,493.02,486.37
24.1467,491.41,485.7
24.1711,491.73,484.56
24.1916,491.39,483.25
24.2121,492.31,483.8
24.2326,493.45,485.44
24.2531,495.36,489.35
24.2737,496.69,494.28
24.2982,499.35,497.62
24.3187,500.88,500.9
24.3392,500.1,502.92
24.3596,499.88,504.94
24.3801,499.31,504.95
24.4046,498.64,505.16
24.4251,496.12,502.93
24.4459,494.09,500.14
24.4661,491.47,498.31
24.4866,489.58,494.85
24.5071,488.86,492.08
24.5316,486.09,490.06
24.5521,478.27,488.05
24.5726,473.02,486.24
24.5932,471.21,486.59
24.6136,472.37,489.27
24.634,473.1,492.82
24.6585,475.08,494.86
24.6791,477.46,496.48
24.6996,479.97,498.19
24.7201,481.58,500.15
24.7406,481.66,501.32
24.7651,481.73,500.06
24.7855,480.58,499.04
24.8061,484.47,498.24
24.8266,492.37,498.99
24.847,496.1,497.39
24.8675,498.88,496.11
24.892,501.5,494.89
24.9128,502.6,494.11
24.9331,504.08,494.89
24.9535,503.87,495.31
24.974,503.89,497.25
24.9985,504.51,498.8
25.0191,505.21,501.24
25.0395,504.77,503.39
25.06,504.42,505.31
25.0804,503.73,505.65
25.101,504.59,504.92
25.1255,502.67,503.14
25.146,500.93,502.31
25.1666,498.75,499.45
25.1871,497.4,496.36
25.2075,495.32,492.69
25.232,492.05,490.55
25.2525,492.64,488.64
25.2729,492.52,487.71
25.2935,492.61,488.37
25.314,493.89,489.1
25.3344,494.51,490.48
25.3589,496.81,493.38
25.3794,498.25,496.9
25.4,499.6,499.52
25.4208,498.88,501.62
25.4409,498.1,501.7
25.4616,496.08,501.96
25.486,494.67,501.57
25.5065,491.73,500.05
25.5269,488.19,497.84
25.5474,487.15,494.47
25.5678,485.32,491.38
25.5925,484.86,488.1
25.613,483.88,486.48
25.6335,485.11,485.79
25.654,487.09,487.03
25.6744,489.47,489.02
25.6949,491.78,491.02
25.7195,494.62,493.81
25.7399,496.7,496.85
25.7604,498.36,499.08
25.781,498.09,500.87
25.8014,497.87,502.09
25.8258,495.69,501.87
25.8463,493.56,501.5
25.8669,492.04,498.8
25.8873,493.04,496.64
25.908,491.23,493.11
25.9283,488.58,491.09
25.9529,487.07,488.87
25.9734,487.05,488.1
25.9939,488.04,487.08
26.0143,489.43,488.26
26.0351,491.75,491.61
26.0595,493.2,494.29
26.0798,495.16,496.23
26.1004,494.73,498.98
26.1209,495.38,500.59
26.1414,495.31,501.47
26.162,494.64,501.38
26.1863,493.72,500.9
26.2068,493.17,499.52
26.2274,492.74,497.82
26.2478,491.59,494.65
26.2683,489.47,492.72
26.2887,487.58,490.78
26.3134,487.06,494.02
26.3339,486.05,503.62
26.3544,484.24,544.89
26.3748,478.99,611.12
26.3952,471.59,671.49
26.4197,465.47,721.19
26.4402,459.58,751.36
26.4607,457.26,758.08
26.4815,454.01,753.27
26.5017,453.61,746.61
26.5222,457.29,723.29
26.5467,461.23,689.23
26.5674,466.38,653.99
26.5877,469.31,613.39
26.6082,473.05,579.91
26.6287,477.24,547.33
26.6532,481.99,522.06
26.6737,484.99,504.65
26.6944,488.19,492.12
26.7147,491.35,484.5
26.7352,493.48,482.4
26.7557,495.59,483.92
26.7802,494.87,486.93
26.8007,497.5,490.35
26.8212,503.8,478.28
26.8417,513.64,454.02
26.8622,523.91,420.82
26.8866,532.33,387.45
26.9071,537.66,354.76
26.9277,541.13,327.81
26.9482,541.9,313.45
26.9686,538.92,309.96
26.9891,535.34,312.77
27.0137,532.87,319.81
27.0341,531.1,329.85
27.0547,528.88,343.08
27.0752,525.3,356.86
27.0957,523.04,372.29
27.1161,522.63,388.83
27.1406,522.11,404.47
27.1612,521.49,417.37
27.1816,518.39,430.3
27.2021,515.71,441.84
27.2227,513.97,450.07
27.2471,511.17,457.86
27.2676,508.74,463.09
27.2881,506.39,466.67
27.3086,503.11,470.33
27.3291,499.49,472.27
27.3496,497.19,473.41
27.3741,496.35,474.33
27.3947,494.08,476.27
27.4151,492.87,478.01
27.4356,493.89,480.81
27.4561,496.31,484.85
27.4806,497.05,489.28
27.5011,497.44,493.42
27.5216,502.55,495.54
27.542,505.04,497.63
27.5625,504.63,499.1
27.5831,505.11,499.28
27.6075,502.49,499.03
27.6281,498.19,497.82
27.6486,495.95,496.26
27.6691,493.16,493.81
27.6895,492.13,491.04
27.714,490.9,487.84
27.7346,488.92,486.27
27.7551,488.34,485.41
27.7756,488.67,485.13
27.796,490.34,486.31
27.8165,491.47,488.84
27.8409,494.58,492.08
27.8616,495.06,495.86
27.8821,496.85,499.29
27.9025,496.48,502.03
27.923,496.38,503.42
27.9474,495.11,504.14
27.968,494.49,503.71
27.9886,493.59,502.17
28.0091,492.47,499.14
28.0295,490.58,497.31
28.05,488.26,494.05
28.0745,487.81,491.24
28.0949,488.65,487.79
28.1155,490.12,486.63
28.1361,490.49,486.31
28.1564,493.4,488.04
28.1769,495.52,491.04
28.2015,498.21,494.23
28.222,500.17,496.58
28.2424,499.54,498.87
28.263,500.43,501.49
28.2835,499.54,501.99
28.308,498.63,502.6
28.3285,497.71,501.48
28.349,495.17,498.98
28.3694,492.93,496.58
28.39,491.35,489.67
28.4105,489.68,482.73
28.435,488.74,477.99
28.4554,487.99,476.19
28.4759,487.79,474.55
28.4964,489.44,476.04
28.5169,491.35,478.43
28.5415,494.08,483.55
28.5619,495.86,485.64
28.5825,498.09,488.31
28.6029,498.27,493.85
28.6234,497.82,505.28
28.6438,497.05,510.02
28.6685,495.64,512.82
28.689,494.91,520.05
28.7094,487.53,536.04
28.7299,481.43,578.83
28.7503,473.94,612.27
28.7749,463.55,631.81
28.7953,458.44,648.85
28.8158,457.35,655.68
28.8363,457.08,656.15
28.8568,459.27,647.72
28.8774,460.01,639.77
28.9018,460.81,643.02
28.9224,461.65,668.61
28.9428,461.92,689.09
28.9633,458.13,705.27
28.9838,450.91,715.42
29.0042,443.13,718.53
29.0288,439.9,713.83
29.0494,441.32,697.26
29.0698,447.06,666.41
29.0903,454.65,629.53
29.1109,468.52,587.42
29.1353,484.61,533.94
29.1558,503.09,467.15
29.1763,520.27,399.92
29.1968,534.02,338.54
29.2173,544.81,290.63
29.2379,552.25,266.3
29.2623,555,259.84
29.2828,555,264.87
29.3032,552.2,277.7
29.3237,548.36,294.56
29.3443,544.49,312.25
29.3687,541.39,330.8
29.3894,536.51,347.84
29.4098,530.41,364.07
29.4303,524.73,378.06
29.4508,518.98,391.05
29.4712,513.99,402.64
29.4957,509.99,413.31
29.5163,506.79,422.05
29.5367,501.63,430.84
29.5574,502.51,439.87
29.5777,502.21,447.5
29.6022,503.16,455
29.6227,503.13,462.8
29.6432,503.71,471.24
29.6638,503.16,478.19
29.6842,503.33,483.15
29.7046,502.67,488.52
29.7292,500.73,491.62
29.7498,499.59,492.29
29.7702,497.67,492.84
29.7907,495.53,490.87
29.8112,493.03,489.09
29.8356,490.82,487.08
29.8561,488.26,485.06
29.8768,488.01,483.45
29.8972,488.61,481.96
29.9177,489.08,482.17
29.9382,491.07,484.13
29.9626,492.45,486.71
29.9832,495.76,489.97
30.0036,497.21,493.17
30.0242,501.37,496.94
30.0446,502.09,499.35
30.0652,502.48,499.68
30.0898,501.38,500.14
30.1101,499.7,500.12
30.1306,497.36,499.29
30.1512,495.29,497.23
30.1716,493.83,494.19
30.1961,492.07,491.15
30.2166,489.65,489.32
30.2372,489.32,488.46
30.2576,487.66,489.36
30.2781,487.73,490.89
30.2986,489.58,492.31
30.3231,492.06,494.85
30.3436,492.85,497.48
30.3641,493.48,500.18
30.3845,495.59,502.95
30.405,496.07,505.56
30.4296,495.45,506.25
30.4501,493.56,506.2
30.4706,492.85,504.16
30.4911,492.48,502.13
30.5115,491.78,498.9
30.5321,488.23,495.92
30.5565,487.18,493.14
30.5771,486.15,490.71
30.5976,486.72,487.17
30.618,487.17,485.73
30.6386,489.14,486.39
30.6629,492.11,485.91
30.6835,494.49,487.33
30.7041,496.19,491.06
30.7246,496.35,494.25
30.745,498.48,496.4
30.7655,501.99,498.32
30.7899,501.19,499.66
30.8105,497.55,499.92
30.8311,494.64,496.74
30.8515,493.11,493.99
30.872,491.89,492.99
30.8924,490.11,490.59
30.917,488.09,486.88
30.9376,486.87,483.7
30.9582,486.7,483.76
30.9786,488.76,486.41
30.9989,491.81,489.73
31.0234,493.85,491.98
31.0439,495.28,495.19
31.0645,494.42,498.95
31.0849,495.74,503.36
31.1055,498.39,505.69
31.1261,498.51,507.15
31.1504,497.21,507.32
31.171,496.57,504.06
31.1914,495.05,501.84
31.2119,491.44,501.08
31.2324,490.15,499.06
31.2568,490.92,495.65
31.2775,490.94,492.92
31.2979,493.15,491.34
31.3184,492.72,489.67
31.3389,494.58,489.73
31.3594,494.86,492.59
31.3839,498.29,496.07
31.4045,504.23,498.46
31.4251,507.79,500.36
31.4454,510.03,503.09
31.4658,511.42,505.47
31.4903,511.34,506.98
31.5108,507.67,507.38
31.5314,505.74,508.51
31.5518,503.99,512.61
31.5724,501.99,536.08
31.5929,500.19,572.87
31.6173,498.15,606.89
31.6379,493.72,629.92
31.6584,487.58,640.53
31.6788,482.46,643.63
31.6993,479.97,641.7
31.7198,477.18,629.16
31.7443,475.34,616.33
31.7649,475.67,603.86
31.7854,477.74,597.89
31.8058,480.79,609.71
31.8263,482.63,638.77
31.8508,484.11,661.22
31.8713,479.08,680.37
31.8919,468.87,691.3
31.9125,454.49,696.04
31.9328,437.6,693.03
31.9532,422.28,684.62
31.9779,413.82,671.7
31.9984,409.86,657.56
32.0188,413.09,641.25
32.0393,417.87,617.6
32.0598,431.49,589.88
32.0842,443.8,562.3
32.1049,462.64,533.64
32.1254,484.31,494.31
32.1458,505.65,441.05
32.1663,527.52,383.64
32.1868,543.21,329.11
32.2113,555.97,282.69
32.232,564.78,252.95
32.2525,566.62,242.56
32.2728,562.3,245.25
32.2932,556.84,253
32.3177,549.87,265
32.3383,542.9,280.6
32.3587,535.52,297.48
32.3792,531.61,315.18
32.3997,528.09,333.75
32.4202,525.67,352.8
32.4448,521.74,371.64
32.4653,517.99,389.71
32.4857,515.59,405.77
32.5062,514.87,420.61
32.5267,515.3,434.09
32.5511,515.04,444.87
32.5719,512.23,454.9
32.5922,509.79,461.92
32.6128,508.03,467.54
32.6333,502.82,470.83
32.654,499.86,472.86
32.6784,496.69,473.49
32.6987,495.55,473.99
32.7192,492.84,474.39
32.7397,492.47,475.91
32.7601,491.98,478.53
32.7807,492.18,482.43
32.8052,493.35,485.94
32.8257,495.28,490.35
32.8462,495.82,493.88
32.8666,496.86,498.91
32.8872,498.09,503.92
32.9117,497.27,510.94
32.9321,496.21,519.95
32.9527,496.17,534.96
32.9732,494.94,551.77
32.9936,493.55,560.22
33.0141,492.24,559.37
33.0386,490.99,551.5
33.0591,490.59,538.8
33.0796,490.67,526.24
33.1001,490.14,513.19
33.1207,489.51,501.35
33.1451,490.81,492.08
33.1656,492.05,486.67
33.1861,494.24,481.53
33.2066,495.99,479.43
33.2271,496.59,479.54
33.2475,496.67,479.23
33.2721,495.14,479.39
33.2927,495.91,479.31
33.3132,495.33,479.05
33.3336,495.06,477.24
33.3542,492.25,476.39
33.3786,490.8,473.91
33.399,489.24,471.93
33.4196,488.39,471.14
33.44,488.91,471.32
33.4606,491.13,470.85
33.4811,491.5,471.88
33.5055,491,474.11
33.5261,495.8,477.28
33.5466,498.64,480.43
33.567,500.51,483.54
33.5875,503.01,486.63
33.608,504.01,489.31
33.6326,503.81,491.25
33.653,503.45,493.2
33.6735,501.96,494.16
33.694,500.57,493.13
33.7146,498.65,491.5
33.7391,496.12,489
33.7596,492.5,487
33.78,491,484.6
33.8006,490,483.08
33.821,490.4,483.26
33.8415,491.72,485.01
33.8659,492.38,487.61
33.8866,492.3,489.89
33.9071,493.44,492.51
33.9275,494.55,496.21
33.9479,496.24,498.77
33.9725,497.59,500.41
33.993,496.07,501.13
34.0136,496.06,501.9
34.034,493.65,502.12
34.0544,490.72,500.3
34.075,489.97,497.04
34.0994,487.98,492.23
34.12,485.58,488.59
34.1404,484.47,484.67
34.161,483.97,493.33
34.1815,480.58,519.27
34.2058,477.06,564.21
34.2264,470.85,600.17
34.2469,466.08,637.94
34.2675,461.46,664.15
34.2879,459.17,677.92
34.3084,457.74,681.34
34.3328,456.99,677.07
34.3535,457.99,667.25
34.374,458.99,652.4
34.3944,461.19,637.32
34.415,463.36,627.86
34.4353,462.88,634.49
34.4599,462.91,655.99
34.4804,461.93,668.79
34.5008,460.34,677.83
34.5213,458.47,682.67
34.5419,457.78,680.13
34.5663,461.42,665.71
34.5869,467.94,639.97
34.6074,477.55,608.17
34.6279,488.44,562.54
34.6483,498.35,504.43
34.6689,509.08,439.34
34.6933,517.27,375.08
34.7139,521.61,321.66
34.7343,523.69,288.93
34.755,523.75,274.14
34.7754,523.6,271.51
34.7998,521.48,275.21
34.8203,517.99,282.97
34.8409,515.19,296.18
34.8613,511.15,310.74
34.8818,507.92,326.19
34.9023,506.34,342.55
34.9267,504.87,359.44
34.9473,504.7,376.55
34.9678,503.56,392.64
34.9884,500.24,407.31
35.0088,498.8,420.85
35.0333,496.64,432.48
35.0538,494.11,442.59
35.0743,492.49,451.27
35.0949,491.59,458.61
35.1153,490.07,464.09
35.1357,487.06,468.87
35.1602,494.45,472.5
35.1809,503.76,475.6
35.2012,509.41,476.88
35.2217,513.12,478.5
35.2422,514.1,480.4
35.2667,515.08,483.12
35.2872,517.06,486.1
35.3078,517.65,489.28
35.3282,518.12,493.22
35.3487,518.3,495.98
35.3692,516.84,498.98
35.3938,515.87,500.99
35.4142,512.3,502.79
35.4347,511.64,502.43
35.4552,509.51,500.54
35.4757,508.41,498.84
35.4962,507.13,495.47
35.5207,503.9,492.77
35.5412,500.52,490.42
35.5617,498.42,487.94
35.5821,496.53,486.55
35.6026,494.83,485.44
35.6271,495.46,486.15
35.6477,497.37,487.92
35.6683,499.3,490.94
35.6886,500.64,493.35
35.7092,500.31,495.88
35.7296,500.25,499.9
35.7544,500,502.12
35.7747,499.2,503.9
35.7951,498.96,504.32
35.8156,495.97,503.86
35.8362,494.77,501.08
35.8606,492.82,499.67
35.8811,491.06,497.73
35.9016,489.24,495.39
35.9221,488.4,491.91
35.9427,489.32,489.93
35.9631,490.65,489.54
35.9877,493.12,490.63
36.0081,494.3,492.11
36.0286,495.24,494.09
36.0491,495.39,496.67
36.0695,496.31,499.33
36.0941,499.05,501.67
36.1146,495.24,503.73
36.1352,492.19,506.39
36.1556,489.35,506.71
36.1761,487.68,505.17
36.1966,487.15,502.53
36.2211,485.52,500.23
36.2417,483.81,496.98
36.2623,483.25,494.19
36.2826,482.6,491.95
36.303,483.88,489.96
36.3275,485.5,489.17
36.3481,487.2,489.93
36.3686,489.56,491.75
36.3891,492.45,494.8
36.4097,494.56,497.44
36.43,495.85,500.15
36.4546,496.08,501.72
36.4752,495.86,503.98
36.4956,495.49,504.18
36.5161,494.19,503.74
36.5365,492.55,502.4
36.557,488.24,501.12
36.5815,486.39,497.89
36.602,484.92,494.91
36.6226,485.73,492.33
36.643,486.19,489.87
36.6634,487.15,488.89
36.6879,489.12,489.11
36.7086,491.3,490.29
36.7291,494.44,493.03
36.7495,495.95,497.03
36.77,497.76,500.42
36.7904,498.61,504.34
36.815,499.09,506.07
36.8355,498.67,507.06
36.856,498.33,506.64
36.8764,497.47,504.52
36.897,494.97,502.01
36.9214,492.98,499.61
36.9421,491.38,496.29
36.9625,490.71,493.03
36.983,489.17,489.62
37.0034,489.13,487.9
37.024,491.31,485.92
37.0485,495.24,482.14
37.069,497.8,480.71
37.0894,500.04,480.77
37.1099,500.63,484.01
37.1304,502.7,486.61
37.155,503.56,490.09
37.1754,503.65,492.07
37.196,501.72,494.06
37.2164,501.18,494.45
37.2369,502.14,493.36
37.2574,502.51,490.29
37.2818,501.01,486.63
37.3024,499.41,485.5
37.3229,497.13,479.4
37.3433,494.5,482.12
37.3639,492,505.9
37.3844,488.2,557.72
37.4089,483.36,593.37
37.4294,480.69,635.9
37.4501,477.15,661.52
37.4704,474.72,676.42
37.4909,474.78,683.13
37.5155,477.22,677.71
37.5358,476.78,664.56
37.5563,477.62,651.85
37.5768,478.7,643.28
37.5973,479.16,657.83
37.6178,476.33,678.06
37.6424,472.66,690.45
37.6629,465.33,698.16
37.6834,456.06,698.53
37.7039,449.85,695.22
37.7243,444.68,686.98
37.7487,444.94,667.58
37.7693,449.56,637.87
37.7899,458.24,602.69
37.8104,470.6,560.75
37.8309,486.08,509.8
37.8512,503.06,451.24
37.8757,516.25,388.79
37.8964,528,330.84
37.9168,536,287.27
37.9373,540.2,263.61
37.9577,539.56,253.29
37.9822,535.45,254.23
38.0028,531.36,262.19
38.0233,526.29,274.15
38.0438,522.43,288.72
38.0643,519.34,305.18
38.0848,517.47,322.54
38.1092,515.18,341.43
38.1298,512.74,358.95
38.1503,510,375.56
38.1707,508.2,392.45
38.1912,508.36,407.96
38.2117,510.69,427.57
38.2362,516.15,451.05
38.2568,516.12,466.24
38.2772,516.1,477.79
38.2977,516.08,484.83
38.3182,513.46,488.87
38.3427,509.97,490.49
38.3633,508.37,490.4
38.3838,504.1,489.52
38.4042,498.88,488.81
38.4247,497.7,488.85
38.4451,497.56,489.08
38.4697,497.85,489.66
38.4902,497.08,489.93
38.5107,497.66,491.35
38.5312,498.73,493.48
38.5516,500.99,497.18
38.5762,500.79,501.34
38.5966,500.03,504.48
38.6172,497.22,506.18
38.6377,496.78,507.14
38.6582,496.42,506.12
38.6786,495.54,503.49
38.7031,493.43,500.79
38.7237,491.14,497.64
38.7441,488.92,494.71
38.7647,489.13,492.37
38.7851,489.91,490.29
38.8096,490.33,488.83
38.8302,489.86,489.27
38.8507,491.09,490.81
38.8712,494.67,494.65
38.8918,496.94,497.92
38.9121,498.55,501.34
38.9366,499.24,503.07
38.9571,501.59,504.86
38.9776,502.27,505.48
38.9981,501.62,504.99
39.0185,499.09,503.59
39.0431,496.28,502.07
39.0636,494.62,500.46
39.0841,492.7,497.57
39.1046,491.56,494.85
39.1251,489.25,492.48
39.1457,489.2,490.79
39.1701,491.16,490.63
39.1906,493.93,490.5
39.2111,495.74,492.6
39.2315,496.99,495.08
39.2521,498.19,497.47
39.2726,497.76,499.57
39.297,498.2,501.06
39.3176,497.96,503.65
39.338,496.57,504.72
39.3585,495.26,504.77
39.379,494.01,504.02
39.4035,492.4,502.22
39.4241,491.32,499.17
39.4446,489.26,496.14
39.4651,488.61,493.11
39.4855,488.89,489.89
39.5061,489.91,489.51
39.5306,490.73,489.81
39.551,492.58,489.85
39.5715,493.87,491.68
39.592,495.09,493.14
39.6124,497.07,495.91
39.637,498.26,498.33
39.6574,498.41,500.66
39.678,496.73,502.93
39.6985,496.98,503.75
39.719,496.18,504.6
39.7394,494.95,504.48
39.7639,492.16,504.38
39.7845,490.93,501.51
39.8051,487.74,499.2
39.8254,486.79,495.76
39.846,486.83,494.41
39.8704,486.27,493.13
39.8909,485.81,492.9
39.9114,488.05,493.52
39.9319,491.44,495.82
39.9524,492.95,498.65
39.9729,494.96,501.72
39.9974,495.57,505.18
40.018,496.86,507.14
40.0384,498.48,508.71
40.0589,500.39,509.57
40.0794,501.11,508.86
40.0999,499.89,505.89
40.1244,499.91,502.71
40.145,499.33,498.97
40.1654,496.86,495.97
40.1858,496.09,492.78
40.2064,495.87,491.62
40.2308,494.5,490.7
40.2515,494.4,491.16
40.2719,494.52,492.73
40.2925,497.01,494.98
40.3129,498.01,497.99
40.3334,498.61,504.79
40.3579,498.69,528.03
40.3784,493.95,579.02
40.399,488.36,629.82
40.4194,483.09,657.66
40.4398,478.07,692.32
40.4643,475.26,699.86
40.485,471.01,702.09
40.5053,470.6,685.07
40.5258,471.68,668.86
40.5463,473.55,645.88
40.5668,476.44,619.71
40.5913,478.95,596.57
40.6119,481.36,579.45
40.6323,482.69,579.36
40.6528,487.55,600.49
40.6733,489.04,618.99
40.6977,488.03,639.59
40.7183,484.83,657.27
40.7388,477.26,665.62
40.7593,469.21,666.1
40.7797,463.37,652.48
40.8003,462.49,625.18
40.8249,464.39,590.35
40.8453,471.12,551.48
40.8658,479.09,502.78
40.8863,490.47,441.82
40.9067,502.78,376.46
40.9273,513.82,315.97
40.9518,524.26,268.37
40.9724,529.61,242.3
40.9929,532.29,234.84
41.0133,532.03,242.07
41.0337,533.62,256.06
41.0583,533.1,274.25
41.0788,529.08,294
41.0992,527.06,314.4
41.1198,522.45,334.12
41.1402,517.76,353.09
41.1608,514.01,369.08
41.1852,510.01,383.86
41.2057,505.41,396.69
41.2262,503.12,406.35
41.2467,499.7,414.48
41.2672,497.76,421.98
41.2916,496.61,429.79
41.3123,497.49,438.63
41.3327,496.59,447.7
41.3532,496.87,456.56
41.3737,497.3,465.25
41.3941,498.04,472.8
41.4187,498.63,479.64
41.4392,497.7,486.11
41.4597,498.16,490.89
41.4801,498.13,493.51
41.5008,497.7,495.61
41.5252,496.96,495.49
41.5456,495.57,494.79
41.5663,493.66,492.63
41.5868,492.93,490.11
41.6073,490.94,487.48
41.6277,490.35,486.19
41.6522,490.28,486.35
41.6727,491.43,485.68
41.6933,491.14,487.14
41.7138,491.31,489.12
41.7342,492.85,490.69
41.7587,495.08,493.75
41.7792,495.66,498.4
41.7998,495.13,502.12
41.8201,496.5,504.1
41.8407,496.8,504.88
41.8611,496.24,504.1
41.8857,494.39,501.68
41.9062,491.92,500.55
41.9267,491.73,497.24
41.9472,491.39,489.99
41.9677,490.91,484.59
41.9882,490.93,480.87
42.0127,489.34,479.1
42.0332,489.87,478.68
42.0537,492.1,480.34
42.0741,493.88,482.67
42.0946,496.9,487.54
42.1191,497.92,492.03
42.1395,498.74,495.03
42.1603,498.59,497.42
42.1806,499.27,499.34
42.2013,499.02,499.67
42.2217,497.61,498.74
42.2461,494.09,497.79
42.2667,492.87,498.03
42.287,491.1,504.02
42.3076,489.68,507.22
42.3281,486.54,505.98
42.3526,484.83,505.18
42.3731,484.47,504.14
42.3937,485.17,503.52
42.4142,487.34,504.01
42.4346,489.07,505.01
42.455,489.26,506.41
42.4797,490.01,507.73
42.5001,492.8,508.78
42.5207,495.04,508.82
42.541,494.03,509.46
42.5616,493.03,508.97
42.5821,492.02,506.97
42.6066,491.42,504.58
42.6272,489.73,507.46
42.6476,485.39,530.17
42.668,478.31,564.94
42.6886,472.45,597.55
42.713,467.76,625.04
42.7336,463.01,644.43
42.754,462.21,655.35
42.7746,462.96,654.48
42.7951,464.57,645.78
42.8155,468.46,631.82
42.8401,471.97,618.66
42.8606,476.37,601.53
42.8811,479.3,592.82
42.9015,480.84,582.66
42.922,480.67,578.93
42.9464,479.54,593.54
42.9671,479.63,622.43
42.9876,477.9,643.95
43.0081,475.52,655.16
43.0285,472.82,658.73
43.049,473.05,655.38
43.0735,472.44,639.7
43.094,474.15,612.96
43.1145,478.52,576.37
43.1349,485.22,530.9
43.1555,496.18,478.52
43.18,508.54,424.41
43.2006,519.63,375.93
43.2211,529.51,336.94
43.2415,535.2,314.16
43.2619,537.76,305.72
43.2825,536.81,304.58
43.307,532.85,310.06
43.3275,530.88,319.05
43.3479,526.3,330.24
43.3685,521.44,340.59
43.389,516.35,352.67
43.4133,513.68,365.34
43.4341,510.75,378.07
43.4546,508.8,389.86
43.4751,506.84,401.49
43.4954,508.87,411.79
43.516,511.3,421.83
43.5403,511.04,431.86
43.5608,509.43,441.29
43.5815,508.94,449.83
43.6019,507.35,457.47
43.6224,505.68,463.97
43.6428,504.15,468.18
43.6673,502.32,470.94
43.6879,501.45,473.15
43.7085,499.96,474.52
43.729,496.77,474.42
43.7494,494.02,475.14
43.7739,492.01,476.11
43.7945,492.81,477.69
43.8149,492.45,479.15
43.8354,493.76,482.52
43.8559,495.21,486.82
43.8763,496.37,490.25
43.9009,499.29,494.2
43.9214,500.63,497.36
43.9417,501.11,500.49
43.9623,499.89,502.39
43.9828,498.91,503.51
44.0074,497.73,503.61
44.0279,495.18,502.49
44.0483,493.75,499.79
44.0688,490.6,496.83
44.0892,489.68,494.47
44.1097,488.54,491.57
44.1343,489.03,489.86
44.1548,489.43,488.89
44.1753,489.34,488.91
44.1959,490.87,490.33
44.2162,493.9,494.26
44.2407,495.32,497.81
44.2613,497.26,501.25
44.2818,496.2,504.2
44.3023,496.16,506.16
44.3227,494.73,506.93
44.3433,495.78,506.34
44.3677,494.43,505.07
44.3882,492.54,502.26
44.4088,491.03,498.01
44.4293,489.83,494.21
44.4498,487.06,492.56
44.4702,485.85,491.45
44.4946,485.68,498.36
44.5152,482.54,519.69
44.5359,475.63,557.95
44.5562,467.71,607.56
44.5767,455.97,664.65
44.6013,449.17,714.92
44.6218,444.54,759.54
44.6423,437.63,780.03
44.6627,435.9,791.22
44.6831,437.92,779.38
44.7038,443.94,762.3
44.7282,453.35,740.04
44.7488,465.08,712.63
44.7692,477.86,670.91
44.7896,489.69,623.53
44.8101,498.35,576.62
44.8347,503.88,535.1
44.8551,508.71,497.48
44.8758,513.77,476.38
44.8963,514.81,458.91
44.9166,515.25,448.92
44.9373,515.8,446.14
44.9617,516.04,447.51
44.9821,515.23,452.61
45.0027,513.79,458.09
45.0232,513.03,465.07
45.0437,511.42,471.66
45.0681,509.14,475.92
45.0886,504.91,481.34
45.1092,503.33,478.47
45.1297,503.06,458.58
45.1501,504.05,427.46
45.1707,505.44,392.57
45.1951,508.35,358.06
45.2157,511.28,329.04
45.2362,511.03,310.44
45.2566,512.02,305.75
45.2771,513.42,311.2
45.2975,513.53,321.76
45.3221,514.03,335.21
45.3426,513.82,350.77
45.3632,512.86,366.41
45.3837,509.49,381.93
45.4041,508.59,396.74
45.4285,506.47,409.6
45.4491,503.78,419.68
45.4697,500.82,428.34
45.4902,498.06,435.27
45.5104,494.45,441.22
45.531,492.96,446.77
45.5555,491.17,451.02
45.5762,490.73,456.02
45.5967,491.99,461.61
45.6171,493.99,467.09
45.6376,493.99,472.67
45.6621,496.79,476.94
45.6826,498.03,482.15
45.703,498.43,487.92
45.7236,497.94,492.94
45.744,497.55,494.75
45.7646,491.24,496.4
45.7891,487.19,495.92
45.8096,485.36,496.34
45.8299,483.48,495.47
45.8506,481.99,493.77
45.871,479.19,491.42
45.8954,478.15,489.54
45.916,478.72,487.83
45.9365,478.38,487.26
45.9571,478.1,487.41
45.9775,479.88,489.33
45.998,486.71,493.86
46.0224,494.16,498.09
46.043,499.33,500.67
46.0635,502.47,503.94
46.084,504.77,506.75
46.1044,503.82,507.8
46.129,504.25,507.84
46.1494,501.8,506.87
46.17,500.44,504.5
46.1905,498.75,501.2
46.2108,495.8,498.76
46.2315,493.44,495.01
46.2558,491.95,492.21
46.2765,491.76,490.36
46.2969,491.21,489.29
46.3175,491.37,489.23
46.3379,492.69,490.99
46.3583,494.16,494.19
46.3829,495.52,497.15
46.4034,497.02,499.92
46.4238,498.42,502.54
46.4444,499.13,503.43
46.4648,497.91,504.94
46.4893,496.72,504.75
46.51,495.18,504.6
46.5303,494.54,502.48
46.5509,493.04,500.19
46.5712,491.63,497.35
46.5918,490.3,494.08
46.6163,489.44,491.06
46.6368,489.55,489.05
46.6573,489.44,488.24
46.6777,490.35,488.99
46.6983,491.88,491.19
46.7228,492.91,492.56
46.7434,494.73,496.24
46.7638,496.98,497.8
46.7842,496.78,500.44
46.8047,496.03,503.15
46.8253,495.82,504.92
46.8497,494.66,506.14
46.8703,493.73,505.11
46.8909,491.98,503.29
46.9112,489.98,501.63
46.9318,488.39,498.1
46.9563,486.51,494.88
46.9767,486.21,492.31
46.9974,486.57,491.25
47.0177,486.85,497.8
47.0382,488.28,534.04
47.0589,491.83,576.23
47.0832,495.66,611.18
47.1037,497.53,646.35
47.1242,498.62,664.68
47.1447,497.7,671.94
47.1651,497.96,667.55
47.1856,497.57,659.44
47.2102,496.05,656.55
47.2308,494.04,675.04
47.2512,493.03,695.43
47.2716,490.63,712.55
47.2922,485.1,727.64
47.3166,472.88,735.11
47.3372,461.31,732.69
47.3577,450.24,723.15
47.3782,440.2,704.72
47.3987,435.96,678.98
47.4191,437.97,648.78
47.4436,444.17,615.83
47.4642,453.74,582.06
47.4847,465.19,540.65
47.5053,480.95,487.32
47.5257,496.76,423.85
47.5502,513.21,360.68
47.5707,527.37,304.55
47.5911,534.49,259.84
47.6116,535.8,238.07
47.6322,536.84,231.06
47.6527,533.87,233.84
47.677,528.7,245.68
47.6977,526.16,259.14
47.7182,525.12,275.71
47.7386,522.9,294.57
47.7591,519.12,315.66
47.7836,518.5,337.32
47.8041,518.4,358.86
47.8246,518.12,378.89
47.8451,515.49,397.11
47.8655,514.2,412.09
47.886,512.76,425.87
47.9105,510,437.7
47.9311,505.4,447.56
47.9516,501.72,456.05
47.9721,497.18,462.64
47.9926,493.14,467.91
48.013,488.91,472.13
48.0376,485.93,473.9
48.058,483.95,468.72
48.0786,483.76,464.18
48.0991,486,463.34
48.1196,486.4,463.27
48.144,488.72,465.22
48.1645,487.98,467.78
48.1851,489.38,470.82
48.2056,494.11,472.86
48.226,496.89,475.88
48.2465,498.91,477.31
48.271,498.93,478.05
48.2917,499.54,478.04
48.312,500.23,477.83
48.3325,498.79,475.66
48.353,498.43,477.13
48.3775,499.74,485.3
48.398,499.19,486.64
48.4185,501.16,488.12
48.439,502.12,489.49
48.4595,504.1,488.59
48.48,506.48,489.67
48.5044,509.98,492.14
48.525,510.39,493.31
48.5455,506.11,499.45
48.5659,489.29,507.36
48.5864,472.83,513.09
48.6109,463.26,513.87
48.6314,460.81,511.5
48.6519,460.65,508.8
48.6725,461.12,505.04
48.6929,464.3,499.23
48.7134,466.24,493.58
48.7379,466.19,489.27
48.7584,468.15,485.21
48.7789,471.72,481.37
48.7994,473.98,480.5
48.8199,476.58,480.2
48.8403,479.27,482.36
48.8649,483.01,485.09
48.8854,484.41,488.47
48.906,490.73,492.18
48.9264,495.78,495.14
48.9471,498.23,496.11
48.9714,501.18,495.49
48.9918,501.74,495.19
49.0124,501.4,492.75
49.0328,497.32,491.6
49.0534,497.85,489.08
49.0738,497.08,485.47
49.0983,496.87,481.97
49.1188,496.89,480.38
49.1394,497.51,478.3
49.1598,498.81,477.44
49.1803,499.05,479.35
49.2048,498.04,482.28
49.2253,497.83,485.63
49.2458,496.67,488.7
49.2663,496.53,491.56
49.2868,497.43,495.45
49.3072,498.34,497.56
49.3318,497.47,499.65
49.3523,496.78,499.52
49.3728,495.02,498.81
49.3933,495.82,497.65
49.4138,494.65,496.72
49.4382,489.72,493.18
49.4588,486.38,491.14
49.4793,487.5,487.71
49.4998,489.6,486.17
49.5203,488.68,486.54
49.5407,488.95,487.23
49.5653,489.96,489.18
49.5858,491.77,492.15
49.6063,495.21,495.52
49.6268,495.37,498.21
49.6472,496.5,501.57
49.6678,496.4,503.46
49.6923,496.92,503.57
49.7128,496.53,503.45
49.7332,493.43,502.36
49.7537,491.14,500.89
49.7742,488.31,497.91
49.7987,489.85,495.73
49.8194,491.08,493.18
49.8397,493.06,490.75
49.8602,493.65,490
49.8807,494.52,488.2
49.9012,494.82,488.56
49.9257,498.05,490.85
49.9462,498.84,494.48
49.9667,500.87,497.18
49.9873,502.9,500.35
50.0077,503.72,502.48
50.0322,503.38,502.78
50.0527,499.3,502.62
50.0732,494.24,503.5
50.0937,493.59,502.4
50.1142,491.07,499.72
50.1347,488.46,496.18
