Program Time [s],data 0,data 1
6.60575,496.96,495.89
6.60576,496.97,498.31
6.60577,495.57,500.25
6.60578,493.06,500.8
6.60579,493.65,500.44
6.60581,494.12,500.15
6.60582,492.89,497.92
6.60583,491.32,495.14
6.60584,496.96,495.89
6.60585,496.97,498.31
6.60586,495.57,500.25
6.60587,493.06,500.8
6.60588,493.65,500.44
6.60589,494.12,500.15
6.6059,492.89,497.92
6.60591,491.32,495.14
8.12064,510.6,512.08
8.14107,505.48,512.26
8.16155,503.58,512.01
8.1861,502.27,510.61
8.20666,500.41,507.69
8.22704,500.13,503.35
8.24752,498.1,499.08
8.26807,496.88,496.46
8.29248,495.71,492.97
8.31312,495.17,490.78
8.33365,495.53,488.62
8.35402,496.83,487.7
8.37453,498.66,487.96
8.39496,498.53,490.17
8.41948,500.02,493.73
8.44003,501.62,496.19
8.46051,503.89,499.55
8.48098,504.72,500.84
8.5015,501.57,501.07
8.52596,499.46,501.46
8.54648,498.97,501.57
8.56706,498.57,500.85
8.5875,495.86,499.08
8.60803,494.49,497.07
8.62843,492.19,492.85
8.65293,491.55,490.08
8.67349,489.84,487.47
8.69403,489.67,486.97
8.71448,491.14,486.18
8.73498,492.71,485.74
8.75547,493.37,488.39
8.77996,495.09,491.92
8.80048,496.48,495.33
8.82096,495.38,498.47
8.84146,495.9,500.37
8.86194,496.52,502.9
8.88641,495.22,504.32
8.90695,493.78,503.05
8.92745,493.22,502.04
8.94798,492.58,501.04
8.96846,490.66,498.43
8.98897,489.53,495.54
9.01344,491.22,492.03
9.03395,491.58,490.23
9.05447,493.06,489.38
9.07491,494.65,489.71
9.09554,496.12,490.16
9.12004,495.7,490.13
9.14041,497.56,492.71
9.16096,497.65,494.76
9.18152,497.92,498.01
9.20189,497.93,501.01
9.22235,497.55,501.61
9.24689,496.84,502.49
9.26746,496.67,500.99
9.28788,498.34,498.19
9.30837,496.67,497.15
9.32883,495.53,495.12
9.35336,494.23,493.1
9.37388,493.18,492.08
9.39443,494.15,490.26
9.41486,491.32,487.81
9.43537,495.25,486.85
9.45586,506,487.28
9.48033,519.8,486.82
9.50089,525.24,490.06
9.52143,529.19,494.45
9.54183,530.35,498.56
9.56232,529.68,502.25
9.58682,527.15,503.4
9.60742,524.32,504.52
9.62809,521.65,503.41
9.64839,518.12,502.13
9.66885,516.7,499.5
9.68929,514.36,497.4
9.71384,512.89,493.12
9.73432,510.31,489.9
9.75482,505.85,488.12
9.7753,502.68,486.7
9.79575,498.34,485.36
9.81634,494.87,486.48
9.84078,492.9,490.39
9.86131,489.72,493.11
9.88178,489.78,496.09
9.90234,489.02,501.87
9.92273,492.22,504.3
9.94723,490.37,506.64
9.96781,490.5,508.11
9.9883,489.4,508.29
10.0087,488.12,507.03
10.0293,487.5,503.62
10.0497,484.8,501.3
10.0742,486.44,497.24
10.0948,484.95,493.79
10.1153,484.56,490.43
10.1358,486.65,489.15
10.1562,486.52,489.12
10.1807,488.41,488.69
10.2013,491.33,490.36
10.2217,492.67,492.08
10.2422,493.73,495.27
10.2627,496.19,498.01
10.2832,497.35,499.41
10.3077,491.08,501.33
10.3285,480.86,500.26
10.3487,473.09,500.01
10.3692,471.27,498.41
10.3897,469.22,495.93
10.4142,468.77,492.74
10.4347,467.82,489.39
10.4552,469.66,485.11
10.4758,471.72,482.49
10.4962,473.38,480.79
10.5167,474.9,480.83
10.5412,475.92,480.67
10.5617,479.94,482.13
10.5822,483.15,485.71
10.6027,485.92,488.97
10.6232,487.34,492.77
10.6476,488.07,496.42
10.6682,489.46,498.13
10.6887,488.76,497.91
10.7092,487.61,498.93
10.7296,488.09,499.14
10.7503,488.47,497.51
10.7748,487.58,495.41
10.7951,485.26,491.13
10.8157,486.61,487.5
10.8362,486.89,486.4
10.8567,487.31,484.52
10.8771,489.85,483.62
10.9017,491.68,484.29
10.9223,492.54,485.44
10.9427,494.23,489.75
10.9632,494.59,491.8
10.9836,493.67,494.64
11.0081,494.94,497.31
11.0287,495.15,499.85
11.0491,494.72,500.48
11.0696,494.18,501.18
11.0901,495.54,499.75
11.1106,496.03,498.6
11.1351,494.63,496.68
11.1558,493.7,495.54
11.1761,493.76,492.63
11.1967,493.61,490.31
11.2171,493.29,489.25
11.2416,491.03,490
11.2622,491.02,489.6
11.2828,492.22,491.88
11.303,493.78,494.3
11.3235,495.82,497.04
11.344,495.86,498.83
11.3685,496.68,502.27
11.389,496.55,504.21
11.4096,497.24,505.17
11.4301,495.79,505.14
11.4505,495.63,503.91
11.475,493.51,501.53
11.4955,491.8,499.22
11.5161,493.04,497.78
11.5366,490.84,494.82
11.5571,491.27,492.26
11.5776,492.41,490.41
11.6019,494.13,488.72
11.6225,493.31,488.78
11.643,490.84,490.62
11.6635,493.08,492.9
11.6839,492.46,495.92
11.7044,492.77,498.54
11.729,495.41,500.63
11.7495,496.33,503.1
11.77,496.87,505.08
11.7904,496.09,503.47
11.8109,494.67,501.77
11.8356,494.14,500.02
11.856,492.11,497.01
11.8765,490.89,493.01
11.8969,488.71,490.01
11.9174,487.17,485.21
11.9379,487.74,482.37
11.9624,488.59,480.29
11.983,489.87,481.03
12.0035,489.9,482.83
12.024,491.92,487.46
12.0445,493.33,489.77
12.0689,493.27,494.62
12.0894,495.81,498.49
12.11,495.45,501.19
12.1304,495.16,504.16
12.1509,494.13,504.52
12.1714,494.3,503.62
12.196,492.64,503.1
12.2165,494.51,501.48
12.2369,503.41,499.18
12.2574,512.13,496.34
12.2779,515.7,493.08
12.3023,517.56,490.46
12.3229,519.25,487.77
12.3434,518.8,487.81
12.3639,516.24,488.05
12.3843,513.39,490.64
12.4049,514.31,493.11
12.4294,513.05,496.09
12.4499,512.44,498.47
12.4703,509.55,500.78
12.4908,507.44,501.82
12.5113,506.15,500.86
12.5318,509.32,502.89
12.5563,514.66,500.91
12.5769,516.53,498.53
12.5974,515.62,495.22
12.6178,515.3,491.58
12.6384,512.44,490.06
12.6628,511.75,487.65
12.6833,509.2,486.92
12.7038,505.36,485.94
12.7243,504.89,485.75
12.7448,504.11,487.8
12.7653,504.69,490.04
12.7899,503.95,492.43
12.8103,505.16,495.35
12.8308,502.53,497.28
12.8513,500.62,499.62
12.8717,502.5,499.5
12.8962,504.2,498.4
12.9168,503.16,495.72
12.9373,501.33,492.77
12.9578,499.66,489.62
12.9783,498.33,486.5
12.9988,496.26,483.6
13.0232,494.61,481.88
13.0438,494.89,481.1
13.0643,492.51,482.28
13.0847,494.61,484.83
13.1053,497.09,487.86
13.1297,497.47,491.29
13.1502,496.98,494.23
13.1707,495.98,498.38
13.1912,495.98,499.71
13.2117,494.79,502.17
13.2322,495.63,502.73
13.2568,494.5,503.19
13.2775,494.8,501.75
13.2979,491.84,498
13.3183,490.67,495.4
13.3387,489.14,494.12
13.3592,488.71,490.7
13.3837,489.37,488.76
13.4042,489.5,488.01
13.4247,488.8,487.6
13.4452,488.04,488.68
13.4657,489.03,490.15
13.4901,489.22,492.72
13.5107,488.78,495.57
13.5312,491.02,498.86
13.5518,493.62,501.09
13.5721,494.29,502.07
13.5927,493.64,504.46
13.6172,494.71,504.16
13.6377,493.57,502.53
13.6582,492.25,500.03
13.6787,490.4,498.22
13.6991,488.12,495.58
13.7236,485.3,492.46
13.7441,485.64,489.97
13.7647,486.91,488.18
13.7851,488.53,487.54
13.8056,489.42,488.83
13.8261,492.74,491.47
13.8506,494.39,494.57
13.8711,498.31,497.46
13.8917,498.45,499.57
13.9121,497.16,502.45
13.9327,495.93,502.76
13.9571,493.54,503.41
13.9777,492.83,502.33
13.9981,491.47,501.26
14.0187,492.57,498.21
14.0392,489.86,496.17
14.0595,489.69,493.13
14.0841,489.35,489.51
14.1046,487.28,486.41
14.1251,487.22,484.72
14.1456,488.78,483.38
14.166,496.02,483.3
14.1906,500.22,485.24
14.2111,501.17,486.99
14.2317,500.74,489.6
14.2521,502.19,492.08
14.2726,501.95,494.86
14.293,502.36,495.89
14.3175,502.29,495.91
14.338,500.83,497.13
14.3586,501.47,496.5
14.379,501.17,495.2
14.3996,500.14,492.76
14.4201,498.51,491.01
14.4445,496.21,487.21
14.465,495.37,483.17
14.4856,494.09,482.53
14.506,492.27,482.63
14.5265,493.42,484.1
14.551,492.54,485.88
14.5716,492.83,488.9
14.592,493.66,492.32
14.6125,495.53,495.06
14.633,496.22,497.85
14.6534,495.58,500.88
14.678,496.86,501.5
14.6985,497.89,500.6
14.719,498.11,499.28
14.7394,497.09,495.63
14.7602,493.87,493.5
14.7845,493.3,491
14.805,493.04,489.4
14.8256,494.03,486.52
14.8459,493.22,486.62
14.8665,491.38,484.09
14.8869,490.3,485.27
14.9115,493.64,486.82
14.932,496.91,490.86
14.9526,496.53,494.68
14.973,495.43,498.55
14.9935,494.74,501.24
15.0141,494.79,503.19
15.0385,497.43,504.55
15.0589,494.55,504.04
15.0794,493.44,503.23
15.1002,493.55,499.39
15.1204,494.84,496.71
15.1449,494.27,493.77
15.1654,489.82,490.61
15.186,488.65,488.29
15.2065,488.32,487.03
15.2269,490.26,488.83
15.2474,491.01,506.26
15.2719,488.41,544.41
15.2925,487.72,591.93
15.3129,485.18,632.74
15.3334,482.34,657.39
15.3539,479.07,668.31
15.3784,474.46,668.45
15.3991,469.37,659.36
15.4196,466.69,643.29
15.44,465.16,621.43
15.4604,463.32,598.35
15.4809,460.46,574.28
15.5054,460.97,552.82
15.5259,460.57,534.26
15.5464,465.86,518.21
15.567,464.49,505.56
15.5873,465.19,497.65
15.6118,474.55,491.32
15.6323,478.44,489.06
15.6529,482.95,489.85
15.6735,484.56,490.08
15.6938,485.05,492.66
15.7144,486.44,495.53
15.7388,488.95,496.22
15.7593,492.16,497.18
15.78,493.33,498.94
15.8003,490.46,502.75
15.8208,488.97,519.6
15.8452,486.18,544.68
15.8659,487.34,567.75
15.8864,488.47,571
15.907,490.18,545.2
15.9274,495.14,500.16
15.9478,506.11,446.73
15.9723,519.69,398.18
15.9929,530.15,366.54
16.0134,534.32,351.64
16.0338,537.66,346.71
16.0544,538.93,351.77
16.0747,539.54,360.21
16.0992,537.43,368.77
16.1198,532.35,378.62
16.1403,526.28,389.49
16.1608,521.22,398.99
16.1813,516.38,403.6
16.2058,514.1,405.68
16.2262,509.28,409.54
16.2468,508.43,414.43
16.2673,507.94,419.55
16.2879,505.55,425.84
16.3082,506.04,433.27
16.3328,507.63,441.42
16.3535,506.31,450.33
16.3739,506.25,457.67
16.3942,506.6,466.33
16.4147,505.28,473.87
16.4392,505.22,479.69
16.4597,504.18,483.95
16.4803,500.94,487.16
16.5007,498.75,488.53
16.5212,497.8,488.02
16.5418,494.64,486.82
16.5662,493.51,486.46
16.5867,494.21,486.36
16.6073,493.57,485.69
16.6277,494.86,487.35
16.6482,492.88,490.08
16.6728,493.11,491.27
16.6933,491.89,495.61
16.7138,492.11,497.29
16.7341,492.89,499.63
16.7548,496.11,501.51
16.7753,494.09,504.4
16.7997,493.67,506.32
16.8203,493.54,507.06
16.8407,493.03,507.25
16.8612,495.82,504.4
16.8817,496.26,501.72
16.9061,493.41,500.77
16.9267,491.33,496.22
16.9471,490.06,492.78
16.9677,489.45,489.02
16.9881,489.16,485.42
17.0086,485.33,483.13
17.0331,485.06,483.51
17.0538,487.45,485.41
17.0744,492.16,488.12
17.0947,494.33,491.1
17.115,493.06,494.48
17.1357,493.25,497.38
17.1601,495,499.91
17.1807,496.4,501.33
17.2012,497.32,501.06
17.2216,495.26,501.65
17.2422,493.6,499.72
17.2666,492.68,496.37
17.2872,492.55,493.9
17.3077,490.84,491.32
17.3281,488.27,489.26
17.3486,487.22,486.4
17.369,487.97,484.32
17.3935,490.58,484.46
17.4141,490.26,484.17
17.4346,491.81,484.93
17.4551,492.65,487.15
17.4756,492.32,488.92
17.5001,497.85,491.73
17.5205,499.08,493.59
17.5411,498.27,495.07
17.5616,496.41,496.86
17.582,495.53,497.48
17.6025,496.42,496.19
17.627,493.94,493.55
17.6475,493.35,491.04
17.668,492.68,489.83
17.6885,494.75,486.87
17.7089,493.6,485.09
17.7335,490.68,482.67
17.754,490.94,481.54
17.7746,492.35,481.83
17.795,492.28,483.07
17.8156,493.03,486.25
17.8359,494.82,489.2
17.8605,495.06,492.56
17.881,495.65,495.65
17.9015,497.12,498.12
17.922,498.09,499.5
17.9425,496.07,498.8
17.963,494.66,497.84
17.9874,491.53,496.47
18.0079,492.22,493.78
18.0284,492.58,491.62
18.0489,492.46,488.7
18.0694,491.77,485.76
18.0939,488.62,484.21
18.1144,488.49,484.36
18.1351,491.99,486.09
18.1554,491.6,488.47
18.176,491.48,490.58
18.1965,492.38,492.86
18.221,495.3,495.49
18.2416,496.84,497.99
18.2621,497.08,501.59
18.2825,495.06,503.48
18.3031,494.65,504.38
18.3274,491.12,502.5
18.3479,488.49,498.8
18.3684,486,494.84
18.3889,483.4,492.67
18.4094,485.72,489.74
18.4299,483.97,487.39
18.4544,486.78,486.51
18.4749,486.82,487.21
18.4955,485.86,487.17
18.5159,485.69,488.13
18.5364,487.35,490.91
18.5608,490.88,494.33
18.5815,491.9,494.86
18.602,493.32,496.89
18.6226,493.26,496.51
18.6429,496.41,497.61
18.6633,496.53,496.69
18.6878,494.02,495.75
18.7085,492.82,493
18.729,491.65,490.6
18.7493,491.52,486.68
18.7699,491.02,483.34
18.7903,490.61,487.28
18.8148,492.89,508.22
18.8355,493.51,544.38
18.8558,493.41,582.3
18.8763,493.53,610.04
18.8969,493.42,625.63
18.9214,494.34,636.11
18.9418,498.47,635.68
18.9624,496.98,629.55
18.9828,499.38,617.64
19.0034,495.3,603.71
19.0239,492.24,586.37
19.0483,490.6,569.49
19.0688,490.48,553.6
19.0894,487.78,539.88
19.1098,487.22,526.1
19.1302,484.58,518.28
19.1547,486.86,510.62
19.1752,488.29,506.5
19.1959,489.03,503.2
19.2163,489.43,501.76
19.2367,491.14,502.01
19.2572,492.11,503.81
19.2817,495.29,507.25
19.3023,495.23,514.6
19.3228,496.39,534.68
19.3433,492.51,563.94
19.3638,489.81,577.75
19.3883,489.65,575.2
19.4088,490.52,557.36
19.4292,490.81,532.29
19.4497,492.85,502.23
19.4702,493.08,465.79
19.4907,495.66,424.03
19.5152,497.33,387.02
19.5358,501.87,360.62
19.5562,503.69,346.09
19.5768,504.95,343.08
19.5972,505.56,349.66
19.6177,507.05,360.53
19.6422,507.44,373.42
19.6628,508.15,387.54
19.6831,506.92,401.23
19.7037,506.94,413.38
19.7242,505.75,425.31
19.7488,502.2,434.05
19.7693,498.16,438.64
19.7897,499.13,439.31
19.8102,498.3,441.65
19.8308,499.24,443.52
19.8511,499.39,445.41
19.8758,498.31,447.93
19.8961,496.85,451.15
19.9168,496.88,456.72
19.9372,500.71,461.57
19.9577,500.96,467.86
19.9821,501.57,474.49
20.0027,501.66,481.39
20.0232,499.53,487.51
20.0438,499.42,492.61
20.0642,500.34,494.49
20.0846,499.27,495.99
20.109,494.82,497.79
20.1296,494.45,497.43
20.1501,494.16,496.15
20.1706,493.33,493.92
20.1911,491.26,490.73
20.2155,489.01,487.39
20.2361,486.61,485.71
20.2566,488.09,485.57
20.2772,488.87,484.65
20.2976,489.5,486.12
20.3181,489.6,487.5
20.3426,491.08,489.8
20.3631,493.06,492.04
20.3836,493.65,494.43
20.4042,495.72,496.95
20.4245,491.78,498.76
20.445,492.42,500.6
20.4696,490.14,500.68
20.4901,490.31,498.95
20.5105,487.65,497.16
20.5311,486.72,494.13
20.5515,485.57,490.3
20.5761,485.46,487.64
20.5966,485.97,486.91
20.617,486.97,484.73
20.6375,484.38,484.18
20.658,487.9,485.15
20.6784,490.92,486.92
20.7031,491.54,490.33
20.7235,494.83,494.07
20.7441,495.06,497.05
20.7645,495.25,500.44
20.7851,497,502.15
20.8095,496.4,504.12
20.8301,495.32,505.9
20.8505,492.66,505.32
20.8709,490.33,503.86
20.8915,490.06,501.48
20.9119,489.25,499.19
20.9366,489.4,495.15
20.957,487.32,491.92
20.9775,487.26,491.54
20.998,489,498.03
21.0184,491,523.62
21.043,491.6,553.9
21.0635,491.08,577.52
21.0839,488.07,583.41
21.1044,483.65,582.33
21.1249,483.12,577.87
21.1454,483.7,580.09
21.1701,481.36,580.27
21.1904,478.29,575.42
21.211,477.03,567.54
21.2314,473.82,558.83
21.2519,472.46,546.86
21.2724,473.77,536.69
21.2969,474.61,529.35
21.3174,478.09,521.68
21.3379,478.87,514.55
21.3585,479.1,512.24
21.3788,480.88,509.19
21.4033,482.9,507.75
21.4239,483.72,507.6
21.4444,483.58,510.88
21.4649,485.66,510.7
21.4853,488.13,511.76
21.5058,489.3,520.01
21.5303,489.64,535.81
21.551,487.91,553.65
21.5716,489.93,559.52
21.5918,492.95,542.01
21.6123,498.36,504.61
21.6368,502.69,463.29
21.6573,508.35,432.63
21.6778,512.28,412.51
21.6984,514.82,401.8
21.7188,513.66,397.04
21.7393,510.33,397.23
21.7638,509.06,402.59
21.7843,508.45,410.67
21.805,508.56,418.54
21.8253,510.05,427.63
21.8457,507.64,435.7
21.8703,505.71,443.56
21.8908,503.77,450.65
21.9113,502.61,455.52
21.9318,504.09,458.42
21.9524,501.67,460.93
21.9728,499.54,462.35
21.9972,496.63,462.68
22.0178,495.7,464.94
22.0383,493.76,464.75
22.0587,493.41,464.4
22.0792,493.93,462.92
22.1037,496.14,461.94
22.1243,498.31,463.95
22.1448,501.45,468.76
22.1652,504.96,472.81
22.1858,502.57,478.45
22.2062,502.26,482.56
22.2308,501.8,485.65
22.2513,500.84,487.72
22.2718,498.47,488.77
22.2922,496.18,489.02
22.3127,494.54,487.21
22.3333,493.44,486.57
22.3577,491.95,484.86
22.3783,489.76,482.89
22.3987,490.41,481.91
22.4193,491.73,479.73
22.4397,492.38,479.98
22.4643,492.7,482.39
22.4847,492.16,484.91
22.5053,491.93,488.53
22.5257,492.74,491.62
22.5462,495.2,496.5
22.5668,495.36,498.4
22.5912,494.89,501.72
22.6118,488.31,502.57
22.6321,488.85,503.26
22.6528,489.88,501.01
22.6733,489.1,498.81
22.6977,487.88,496.44
22.7183,488.31,493.56
22.7388,488.44,491.44
22.7592,489.96,489.16
22.7797,487.76,487.52
22.8002,486.61,486.22
22.8248,487.69,487.78
22.8452,490.15,489.62
22.8657,493.72,491.3
22.8862,493.38,492.64
22.9066,493.5,497.51
22.931,493.8,523.01
22.9516,493.24,566.81
22.9722,491.79,608.85
22.9926,489.83,635.28
23.0132,486.47,648.22
23.0335,485.37,650.58
23.0581,483.1,643.26
23.0786,480.68,627.61
23.0991,479.14,609.09
23.1198,479.11,589.87
23.14,477.69,572.3
23.1645,477.55,557.64
23.185,481.64,545.91
23.2057,482.91,537.33
23.2261,483.33,532.26
23.2467,485.67,528.41
23.2671,487.33,525.93
23.2916,489.47,524.74
23.3122,489.77,524.59
23.3328,493.22,521.48
23.3532,492.57,518.18
23.3736,492.66,515.34
23.3941,490.93,511.28
23.4187,490.74,506.82
23.4391,490.99,503.06
23.4596,489.39,503.44
23.48,491.32,517.16
23.5005,491.45,541.52
23.525,489.76,564.02
23.5455,488.61,565.62
23.5661,488.29,547.69
23.5865,490.43,515.35
23.607,495.94,475.68
23.6275,500.96,433.35
23.6522,505.96,394.88
23.6727,508.97,371.1
23.6931,510.78,361.68
23.7137,512.02,358.35
23.7341,511.02,360.28
23.7586,509.21,365.42
23.7791,506.37,371.74
23.7995,501.9,378.19
23.8201,500.92,386.15
23.8404,499.53,394.92
23.8612,497.23,403.94
23.8855,498.78,412.75
23.9061,498.23,422.8
23.9265,498.58,432.44
23.947,499.26,444.35
23.9675,500.01,453.28
23.9919,499.81,461.63
24.0124,498.45,469.7
24.0331,496.76,474.16
24.0536,497.21,478.53
24.0739,497.57,481.02
24.0945,496.05,481.82
24.119,493.04,482.25
24.1394,491.43,481.8
24.16,490.35,481.44
24.1804,490.28,479.95
24.201,491.42,481.16
24.2253,491.14,480.53
24.2459,493.11,481.82
24.2664,492.09,483.86
24.2869,493.07,486.29
24.3075,494.66,489.43
24.328,494.93,491.74
24.3526,496.34,494
24.373,496.87,496
24.3935,497.5,497.4
24.4139,496.6,498.52
24.4345,496.08,497.81
24.4548,495.46,497.65
24.4793,492.57,495.12
24.5001,494.26,492.5
24.5204,493.01,491
24.5409,491.8,487.8
24.5614,491.24,485.64
24.5858,489.19,484.31
24.6065,491.16,486.05
24.6268,491.32,486.84
24.6474,489.66,490.07
24.6678,489.93,494.06
24.6884,489.34,497.85
24.7128,490.67,496.48
24.7335,494.54,496.38
24.7538,496.63,496.3
24.7743,496.1,495.84
24.795,495.48,496.08
24.8194,494.59,493.46
24.8398,493.87,490.77
24.8604,492.7,489.41
24.8808,489.36,486.93
24.9013,487.69,484.15
24.9219,488.35,482.92
24.9463,490.08,481.73
24.9668,491.26,482.59
24.9874,491.21,483.47
25.0078,493.17,486.18
25.0282,494.53,489.94
25.0528,495.03,491.35
25.0733,496.02,492.08
25.0939,496.22,492.67
25.1143,497.17,492.53
25.1348,496.14,493.03
25.1553,494.91,494.22
25.1799,495.13,491.98
25.2002,493.3,490.58
25.2209,492.24,487.67
25.2413,490.59,485.93
25.2619,489.48,482.35
25.2822,488.78,478.08
25.3067,489.42,476.86
25.3273,491.14,477.09
25.3477,491.31,482.27
25.3684,494.05,506.82
25.3889,496.44,547.85
25.4132,496.15,588.68
25.4338,492.12,622.75
25.4543,489.7,642.2
25.4747,486.36,652.36
25.4952,484.69,652.69
25.5157,484.75,645.55
25.5401,482,631.64
25.5607,482.6,613.91
25.5812,481.48,594.93
25.6016,477.98,577.34
25.6223,476.99,561.07
25.6467,478.99,546.66
25.6672,480.19,538.93
25.6877,483.55,529.54
25.7082,486.64,522.43
25.7287,487.51,520.35
25.7492,489.81,517.88
25.7737,492.05,516.5
25.7942,491.24,516.4
25.8148,491.79,516.52
25.8352,492.03,516.02
25.8557,495.03,517.01
25.876,495.82,528.01
25.9007,493.86,549.61
25.9212,492.69,568.29
25.9417,489.75,563.63
25.9622,490.2,539.5
25.9826,491.76,507.2
26.0072,491.21,468.16
26.0278,495.77,426.53
26.0481,501.41,388.42
26.0686,509.13,363.14
26.089,515.1,352.91
26.1095,517.48,351.33
26.1341,516.79,356.26
26.1546,519.43,364.21
26.1751,517.94,374.37
26.1956,513.95,386.09
26.216,510.36,397.88
26.2406,506.69,408.1
26.2611,504.95,417.68
26.2815,502.96,425.74
26.302,502.77,433.6
26.3225,500.22,439.08
26.343,496.57,442.66
26.3676,494.86,448.53
26.3881,494.09,452.62
26.4086,494.07,455.9
26.429,493.86,462.32
26.4495,492.68,467.06
26.4741,493.15,473.24
26.4946,496.92,480.6
26.515,496.73,485.08
26.5355,498.79,486.06
26.556,496.23,487.65
26.5766,496.98,488.12
26.6009,496.19,488.3
26.6216,496.15,487.64
26.6419,497.92,486.71
26.6625,497.34,484.37
26.683,495.27,482.09
26.7075,494.22,481.08
26.7281,490.57,479.26
26.7486,490.26,478.61
26.769,492.01,478.69
26.7894,493.8,481.15
26.81,494.24,484.72
26.8344,495.4,488.38
26.8549,497.72,490.1
26.8754,497.37,492.88
26.8961,494.9,496.5
26.9165,493.12,498.6
26.9369,494.09,499.88
26.9616,492.88,500.11
26.9821,492.9,498.89
27.0025,491.12,496.71
27.023,489.1,493.77
27.0435,489.88,491.41
27.0679,488.1,487.73
27.0885,486.08,484.98
27.109,486.07,483.79
27.1294,486.85,483.83
27.15,487.28,485.46
27.1703,490.63,487.17
27.1948,492.1,489.34
27.2155,491.68,493.07
27.2359,491.54,495.86
27.2565,492.44,497.88
27.277,497.15,500.31
27.3014,499.92,499.85
27.3218,498.33,498.68
27.3425,496.47,497.54
27.363,495.57,495.43
27.3835,492.86,493.95
27.4039,492.49,490.56
27.4283,491.79,489.05
27.449,488.63,486.64
27.4695,487.31,486.11
27.4898,488.24,489.29
27.5103,489.6,488.63
27.5349,489.48,489.7
27.5554,493.38,492.36
27.5759,495.51,493.49
27.5964,495.4,494.99
27.6169,495.52,498.39
27.6374,495.62,501.32
27.6617,494.69,502.65
27.6823,494.16,502.92
27.7028,493.32,501.94
27.7234,492.06,498.15
27.7438,491.25,498.12
27.7642,489,494.9
27.7888,486,492.52
27.8093,487.4,491.21
27.8298,486.72,489.17
27.8502,486.78,487.74
27.8707,486.62,488.19
27.8953,488.7,497.35
27.9158,490.56,510.68
27.9364,489.85,520.74
27.9569,488.48,526.2
27.9774,488.98,538.96
27.9978,489.58,564.57
28.0224,489.47,589.65
28.0428,489.17,603.32
28.0633,488.74,600.66
28.0839,488.19,592.13
28.1043,489.75,585.3
28.1288,488.6,580.64
28.1492,484.68,572.51
28.1697,481.55,560.81
28.1903,479.64,549.85
28.2108,478.91,540.68
28.2312,483.73,530.94
28.2557,484.58,524.75
28.2762,487.47,520.6
28.2969,489.57,517.08
28.3172,490.26,516.47
28.3377,490.61,514.97
28.3621,489.09,512.18
28.3827,488.87,510.54
28.4032,491.29,508.43
28.4237,492.04,503.95
28.4443,490.43,500.96
28.4648,489.54,496.77
28.4895,486.43,490.81
28.5097,483.75,487.45
28.5303,486.8,484.16
28.5507,488.44,481.53
28.5711,489.15,480.22
28.5916,490.72,481.38
28.6162,494.98,484.5
28.6367,496.98,493.2
28.6571,496.18,507.56
28.6776,495.95,530.25
28.6981,491.96,552.6
28.7227,492.17,560.88
28.7432,492.33,545.5
28.7639,492.87,514.2
28.7842,497.09,474.96
28.8048,502.07,438.17
28.8251,508.06,409.34
28.8497,513.05,391.47
28.8701,513.24,382.78
28.8907,509.99,380.62
28.9113,511.19,383.3
28.9316,512.35,388.84
28.9561,513.48,396.87
28.9766,514.19,405.9
28.9971,512.15,415.92
29.0177,510.72,425.93
29.0382,510.98,436.35
29.0586,511.18,445.68
29.0831,509.14,453.34
29.1037,505.92,459.47
29.1243,503.33,465.58
29.1445,500.67,466.46
29.1651,501.73,466.97
29.1896,500.19,465.78
29.21,497.75,465.42
29.2306,494.8,465.14
29.2511,491.84,463.51
29.2716,492.67,463.41
29.292,494.54,466.53
29.3166,492.63,470.02
29.337,492.7,473.62
29.3576,494.16,478.89
29.3781,495.53,483.31
29.3986,494.42,488.65
29.4231,495.34,492.92
29.4436,494.87,495.34
29.4642,496.5,496.67
29.4846,495,497.14
29.5051,496.2,498.71
29.5255,495.76,495.97
29.55,494.41,493.17
29.5704,492.53,489.74
29.5909,488.82,486.59
29.6114,490.26,484.47
29.632,492.01,483.58
29.6525,492.2,483.66
29.6769,491.16,485.33
29.6976,495.73,486.66
29.7179,496.58,489.13
29.7384,498.27,492.11
29.759,497.21,494.88
29.7835,497.77,497.51
29.8039,495.62,501.21
29.8245,493.69,501.96
29.8452,494.55,501.17
29.8655,492.84,500.34
29.8859,490.88,497.27
29.9104,489.3,494.82
29.9309,486.84,492.65
29.9516,488.47,489.12
29.972,488.18,487.1
29.9925,488.14,485.48
30.017,488.71,484.18
30.0374,489.57,484.75
30.0579,491.06,486.4
30.0784,492.45,488.92
30.0989,493.76,491.73
30.1194,494.61,495.19
30.144,496.28,498.15
30.1644,496.63,499.72
30.185,496.9,499.78
30.2053,495.32,500.02
30.2259,493.06,497.22
30.2503,492.25,495.57
30.271,493,495.66
30.2915,494.6,492.73
30.312,490.88,490.38
30.3325,490.9,488.51
30.3529,491.72,486.2
30.3773,491.98,485.56
30.3979,492.38,485.85
30.4184,493.31,486.88
30.4389,493.64,489.7
30.4594,492.72,491.76
30.4798,494.57,495.21
30.5043,493.26,497.37
30.5248,490.21,498.89
30.5455,488.57,501.12
30.5659,489.85,501.29
30.5863,490.68,501.23
30.6108,487.75,499.59
30.6313,487.4,497.07
30.652,486.72,493.86
30.6723,487.17,491.28
30.6929,489.94,487.23
30.7134,490.35,484.58
30.738,489.88,484.47
30.7584,491.7,485.77
30.7789,493.96,487.62
30.7993,496.17,489.89
30.8198,496.34,493.32
30.8442,496.67,495.85
30.8647,499.54,498.08
30.8853,501.23,500.67
30.9057,500.38,501.33
30.9263,499.11,501.47
30.9469,497.09,505.97
30.9714,496.07,530.58
30.9919,498.25,571.06
31.0124,498,613.05
31.0327,498,645.64
31.0533,498.2,661.11
31.0738,496.96,673.09
31.0983,494.37,673.47
31.1188,490.5,666.58
31.1392,485.2,656.66
31.16,482.56,641.73
31.1802,478.85,623.58
31.2048,477.08,606.47
31.2253,477.46,588.37
31.2457,476.57,575.5
31.2662,475.66,563
31.2868,475.32,551.4
31.3072,475.86,539.32
31.3317,472.89,530.26
31.3523,474.71,522
31.3728,474.97,512
31.3933,478.97,504.4
31.4138,478.98,498.32
31.4383,482.18,493.86
31.4586,482.75,492.29
31.4793,483.6,492.63
31.4999,487.68,498.5
31.5201,491.54,514.2
31.5407,489.43,523.56
31.5651,490.55,525.85
31.5858,496.04,505.68
31.6061,502.43,467.14
31.6267,511.74,421.32
31.6472,515.8,379.85
31.6716,518.84,350.28
31.6921,519.47,333.83
31.7127,517.98,328.86
31.7332,515.78,330.09
31.7537,515.82,335.07
31.7741,513.46,343.46
31.7987,511.97,353.17
31.8192,511.17,366.73
31.8397,509.54,380.39
31.8601,509.03,394.11
31.8806,508.63,408.89
31.9051,507.3,422.91
31.9257,508.24,435.73
31.9462,508.79,441.98
31.9667,508.43,448.19
31.987,505.95,452.35
32.0076,503.76,457.88
32.032,501.01,460.9
32.0526,500.8,462.72
32.073,499.04,464.58
32.0936,495.44,464.46
32.1142,494.35,465.57
32.1345,493.28,465.86
32.1591,491.62,466.88
32.1796,492.3,470.51
32.2002,493.44,474.01
32.2205,495.55,478.01
32.2409,495.84,482.6
32.2655,495.87,486.88
32.2861,495.5,491.71
32.3065,498,495.37
32.327,497.2,498.49
32.3474,495.76,498.99
32.3682,496.21,500.6
32.3925,494.77,499.88
32.4131,495.61,497.7
32.4337,495.49,494.76
32.4541,494.39,491.41
32.4747,493.51,487.73
32.4991,492.01,484.58
32.5195,490.61,482.87
32.5402,490.09,482.29
32.5605,490.27,483.03
32.5809,490.62,485.23
32.6015,492.29,487.78
32.626,492.03,491.03
32.6465,492.63,495.02
32.667,493.1,497.62
32.6878,492.68,499.69
32.708,493.95,500.75
32.7325,494.16,500.2
32.753,493.72,499.16
32.7736,492.78,497.33
32.794,493.02,495.26
32.8145,491.02,491.61
32.8351,490.02,488.29
32.8594,488.81,486.83
32.88,490.05,484.47
32.9004,491.24,484.37
32.9209,490.59,486.1
32.9414,491.67,488.68
32.9619,493.34,491.14
32.9864,494.07,494.51
33.007,496.06,497.01
33.0274,497.05,498.21
33.0479,495.84,500.17
33.0685,496.87,499.93
33.0928,497.3,499.35
33.1134,496.24,497.88
33.134,492.99,494.9
33.1544,492.19,492.52
33.175,492.95,489.82
33.1954,494.96,487.25
33.2201,493.77,485.2
33.2403,494.02,484.96
33.2609,494.41,485.17
33.2815,493.33,486.14
33.3021,494.46,489.31
33.3263,497.37,493.05
33.3469,496.3,497.44
33.3673,496.04,499.15
33.3878,495.03,501.72
33.4084,496.22,503.18
33.4288,496.18,502.94
33.4534,496.74,502.15
33.4739,494.99,500.12
33.4945,493.2,496.5
33.5149,492.36,493.8
33.5353,492.29,490.64
33.5597,490.43,487.11
33.5804,487.94,485.29
33.601,487.15,484.83
33.6215,487.52,485.86
33.6419,489.62,485.69
33.6623,489.29,488.35
33.6868,490.84,490.28
33.7075,492.27,493.23
33.7279,495.02,496.18
33.7484,494.81,498.14
33.7688,493.85,498.92
33.7892,492.88,499.93
33.8138,493.5,500.35
33.8342,492.8,513.28
33.8547,493.64,545.82
33.8753,495.31,588.86
33.896,497.85,636.09
33.9201,501.28,671.87
33.9408,503.22,691.29
33.9614,502.18,692.64
33.9818,502.14,688.11
34.0023,496.92,676.69
34.0228,492.93,660.15
34.0473,487.95,638.72
34.0679,485.36,616.38
34.0882,482.69,596.1
34.1087,482.75,579.08
34.1293,482.2,564.26
34.1537,482.36,550.81
34.1742,482.49,539.85
34.1947,482.79,528.68
34.2153,484.23,519.14
34.2359,484.59,509.31
34.2563,486.27,502.65
34.2807,483.21,497.52
34.3013,483.17,494.82
34.3218,485.34,493.85
34.3423,487.07,495.08
34.3629,490.86,502.87
34.3872,491.48,522.89
34.4076,490.99,544.71
34.4283,489.39,548.77
34.4487,490.71,527.62
34.4692,494.97,488.09
34.4896,496.58,437.28
34.5142,497.86,388.22
34.5349,498.29,347.78
34.5553,501.23,321.42
34.5757,504.18,309.34
34.5963,505.35,306.27
34.6167,503.68,310.62
34.6412,502.74,318.09
34.6617,501.39,327.47
34.6821,503.52,341.98
34.7026,504.21,357.78
34.7231,503.57,372.83
34.7476,502.06,388.46
34.7681,504.24,403.37
34.7886,502.4,416.5
34.8092,500.92,429.2
34.8298,501.33,441.16
34.8501,500.87,449.93
34.8747,498.69,457.94
34.8953,496.15,462.55
34.9157,495.32,465.44
34.9362,492.26,467.35
34.9567,492.61,469.28
34.9811,493.89,468.63
35.0017,493.71,469.1
35.0221,494.37,468.68
35.0425,495.49,469.34
35.063,496.79,472.48
35.0836,497.64,476.58
35.1081,497.31,480.86
35.1286,495.05,484.29
35.1492,495.84,487.43
35.1697,496.47,492.35
35.1902,494.78,494.48
35.2146,492.62,495.98
35.2351,492.5,497.19
35.2556,492.8,496.75
35.2761,491.44,493.4
35.2966,490.75,489.92
35.317,492.6,487.34
35.3417,493.28,485.67
35.3621,495.82,482.53
35.3825,493.86,481.63
35.403,493.89,481.7
35.4237,494.51,483.36
35.448,494.61,485.09
35.4687,497.29,487.07
35.489,497.23,490.26
35.5096,496.58,495.21
35.53,498.07,500.16
35.5506,496.45,504.93
35.575,496.96,507.55
35.5956,493.77,508.24
35.6161,492.22,507.39
35.6366,492.57,504.51
35.6571,490.66,502.41
35.6774,488.73,498.13
35.7019,486.18,494.9
35.7224,484.95,492.52
35.7431,484.56,491.82
35.7635,487.44,489.65
35.7841,489.36,491.12
35.8084,489.88,493.1
35.8291,492.11,494.88
35.8494,494.49,496.5
35.8701,495.59,500
35.8904,497.07,504
35.9108,497.66,506.4
35.9355,495.13,505.92
35.956,494.5,504.54
35.9766,494.4,501.23
35.9969,495.52,499.18
36.0173,497.42,496.95
36.042,498.13,494.96
36.0626,496.11,491.97
36.083,496.89,488.37
36.1035,497.71,484.9
36.124,498.57,484.72
36.1444,498.85,487.57
36.1689,498.28,489.06
36.1893,497.83,492.85
36.2099,496.86,496.88
36.2303,500.69,500.7
36.2509,500.95,502.76
36.2753,499.76,503.81
36.296,498.41,504.45
36.3164,495.13,502.36
36.3369,496.1,499.29
36.3576,493.88,497.23
36.3777,493.3,494.98
36.4024,491.44,490.59
36.423,490.36,487.47
36.4434,490.68,483.98
36.4638,490.15,482.78
36.4842,493.12,482.82
36.5048,495.29,484.26
36.5292,495.64,487.01
36.5498,495.51,487.61
36.5703,496.01,492.08
36.5907,496.41,495.07
36.6113,493.12,498.05
36.6357,494.7,499.84
36.6563,496.16,502.67
36.6769,496.93,501.14
36.6973,496.74,501.51
36.7179,495.39,498.61
36.7383,494.72,495.09
36.7627,494.97,491.07
36.7834,493.98,489.66
36.8038,493.38,500.12
36.8242,495.11,528.3
36.8449,495.88,572.64
36.8692,497.91,622.31
36.8897,500.73,667.65
36.9103,502.18,699.72
36.9308,501.14,719.18
36.9513,499.32,725.74
36.9718,496.65,720.79
36.9962,492.92,707.63
37.0167,487.74,689.51
37.0372,483.79,665.81
37.0577,480.83,639.84
37.0782,476.67,608.88
37.1027,473.73,590.1
37.1232,479.99,568.28
37.1439,479.99,548.82
37.1642,476.59,531.66
37.1847,475.27,518.73
37.2051,475.62,506.98
37.2296,473.69,498.59
37.2502,475.76,497.27
37.2707,479.6,496.81
37.2913,481.08,497.65
37.3118,484.47,500.72
37.3361,487.77,503.18
37.3568,488.62,513.74
37.3773,486.5,536.79
37.3977,484.4,559.63
37.4181,486.32,571.11
37.4386,490.25,566.49
37.4631,491.6,545.79
37.4837,494.28,511.83
37.5042,497.23,470.46
37.5248,502.38,419.77
37.5453,506.7,371.42
37.5656,511.76,328.53
37.5901,515.41,300.63
37.6107,514.93,289.3
37.6312,514.14,290.24
37.6518,515.31,298.59
37.6723,511.25,311.67
37.6966,509,326.74
37.7171,507.4,345.19
37.7377,503.32,360.55
37.758,502.46,374.24
37.7786,501.77,386.59
37.799,496.41,397.48
37.8237,496.53,405.78
37.8441,496.42,412.62
37.8645,497.14,418.7
37.8853,497.11,426.36
37.9055,495.49,432.09
37.9302,497.79,439.67
37.9506,498.63,447.54
37.9712,498.31,454.03
37.9917,499.85,461.82
38.0121,497.88,468.66
38.0325,496.3,475.33
38.0571,493.24,480.46
38.0776,492.99,485.37
38.0981,492.39,487.5
38.1185,488.52,488.4
38.1391,488.21,487.72
38.1635,487.97,487.17
38.184,486.98,484.94
38.2047,486.18,483.75
38.2253,485.14,482
38.2456,488.52,481.4
38.266,487.41,481.92
38.2905,486.53,483.74
38.3111,486.62,485.59
38.3316,490.3,487.47
38.352,494.64,489.98
38.3725,495.51,492.98
38.3929,497.01,494.39
38.4174,495.41,496.51
38.438,497.73,497.61
38.4586,498.18,497.09
38.4791,494.74,496.87
38.4994,493.6,494.49
38.524,492.88,492.4
38.5446,492.7,489.72
38.5651,491.96,487.97
38.5856,491.77,485.58
38.6061,491.22,486.26
38.6264,490.77,485.61
38.6509,492.02,485.49
38.6714,495.81,487.59
38.692,495.85,491.27
38.7124,495.48,493.22
38.7329,496.18,496.37
38.7574,497.15,501.1
38.778,495.92,503.28
38.7985,496.73,502.82
38.819,493.59,501.46
38.8395,490.87,500.37
38.8598,490.3,497.49
38.8845,489.44,494.4
38.9049,489.15,491.32
38.9254,486.52,488.25
38.9459,486.22,485.2
38.9664,487.97,484.16
38.9908,490.18,484.93
39.0114,492.94,485.14
39.0319,496.35,487.51
39.0523,499.88,489.61
39.0728,499.11,493.29
39.0933,500.09,496.83
39.1178,498.87,500.67
39.1384,497.89,501.73
39.159,495.32,502.19
39.1793,493.45,502.55
39.1999,494.16,500.04
39.2202,493.73,497.03
39.2449,491.18,494.22
39.2654,489.55,491.18
39.2859,488.04,488.34
39.3063,487.63,486.08
39.3268,485.1,483.46
39.3514,486.48,483.97
39.3719,484.79,484.77
39.3923,486.23,486.82
39.4128,484.98,490.06
39.4333,489.99,493.04
39.4538,491.79,496.64
39.4783,494.23,499.31
39.4989,493.79,500.85
39.5193,492.43,502.48
39.5399,492.54,500.78
39.5604,493.23,497.43
39.5847,492.39,493.34
39.6053,490.71,490.67
39.6258,490.17,487.74
39.6463,491.13,484.39
39.6669,490.51,482.71
39.6873,488.61,481.97
39.7119,489.68,484.78
39.7323,490.35,487.22
39.7527,491.88,488.98
39.7732,492.3,491.78
39.7937,493.64,494.23
39.8182,495.11,505.98
39.8387,495.89,542.58
39.8592,495.51,590.07
39.8797,487.01,637.85
39.9002,482.41,675.48
39.9208,476.93,696.19
39.9452,471.94,697.55
39.9658,466.15,685.44
39.9863,461.32,672.35
40.0067,462.06,651.48
40.0273,463.85,629.78
40.0519,465.88,605.83
40.0723,469.3,584.06
40.0929,470.24,564.65
40.1131,472.59,550.72
40.1338,476.67,538.98
40.1543,482.94,530.98
40.1787,487.35,526.18
40.1991,491.08,524.35
40.2196,490.87,520.08
40.2402,491.09,516.66
40.2607,493.87,513.53
40.2811,492.5,509.62
40.3057,492.6,505.5
40.3263,490.08,503.4
40.3468,491.06,506.12
40.3671,489.45,527.9
40.3876,486.76,556.72
40.4121,485.41,574.37
40.4327,489.53,574.1
40.4533,491.22,555.28
40.4737,497.38,521.42
40.4942,505.5,477.14
40.5148,514.2,426.91
40.5393,519.56,379.73
40.5597,523.85,340.78
40.5802,525.68,319.23
40.6006,524.14,310.98
40.6212,521.91,312.18
40.6457,519.73,316.15
40.6662,515.39,323.52
40.6867,510.31,334.21
40.7071,506.65,345.77
40.7277,503.92,358.62
40.748,504.13,371.89
40.7725,503.71,385.12
40.7932,502.97,397.69
40.8136,501.77,409.75
40.834,501.62,422.6
40.8545,502.69,434.28
40.8791,501.56,445.23
40.8996,499.64,453.58
40.9202,499.32,463.06
40.9405,496.65,469.85
40.961,496.12,473.08
40.9815,496.5,475.67
41.0061,495,476.33
41.0266,494,475.27
41.0471,489.6,474.01
41.0676,486.08,473.61
41.0881,484.26,472.09
41.1085,484.61,471.67
41.133,485.89,472.34
41.1536,487.51,475.87
41.1741,491.21,479.7
41.1946,493.77,483.96
41.215,494.41,488.97
41.2395,494.93,493.97
41.2601,495.34,496.18
41.2805,496.28,497.74
41.301,495.02,498.59
41.3215,495.22,498.27
41.342,492.97,497.42
41.3664,490.98,495.34
41.3872,488.38,493.27
41.4074,485.51,489.82
41.4281,486.21,487.05
41.4484,486.96,486.24
41.473,491.77,485.39
41.4936,492.22,484.11
41.514,493.97,486.29
41.5344,494.18,488.83
41.555,495.34,492.07
41.5755,497.87,495.25
41.6002,500.9,497.8
41.6204,502.72,501.04
41.6409,499.38,502.03
41.6616,497.9,501.83
41.682,495.92,501.06
41.7063,494.54,498.85
41.7269,493.43,497.68
41.7474,491.34,493.54
41.7679,489.67,490.23
41.7886,489.74,486.79
41.8089,488.39,484.23
41.8335,487.51,483.38
41.854,489.01,485.31
41.8746,490.61,486.65
41.895,492.09,488.72
41.9154,492.87,490.77
41.9358,492.5,493.02
41.9604,493.6,495.61
41.9809,492.28,498.29
42.0014,493.62,500.63
42.0219,493.5,500.31
42.0423,490.8,499.25
42.0669,491.84,499.6
42.0873,491.87,497.28
42.1079,490.3,494.22
42.1283,491.24,489.78
42.149,490.99,488.02
42.1694,489.79,485.62
42.194,490.23,485.09
42.2144,490.39,484.68
42.2349,492.71,486.54
42.2554,493.97,489.23
42.2758,494.17,492.59
42.3002,493.54,495.27
42.3209,495.23,498.01
42.3413,494.39,500.21
42.3618,495.11,501.17
42.3824,493.89,501.54
42.4029,493.71,502.03
42.4273,492.37,500.02
42.448,491.69,497.02
42.4685,490.56,494.61
42.4888,488.44,490.69
42.5092,487.96,487.35
42.5338,488.76,484.68
42.5544,488.01,483.95
42.5749,488.41,485.76
42.5953,492.53,486.61
42.6158,493.82,488.68
42.6362,496.66,490.95
42.6607,495.53,493.76
42.6813,492.82,497.01
42.7018,492.46,500.21
42.7224,490.97,501.16
42.7428,488.17,501.53
42.7633,489.74,500.63
42.7877,488.99,499.7
42.8084,490.79,496.36
42.8288,492.63,495.29
42.8493,490.31,492.23
42.8697,488.45,488.38
42.8942,488.56,485.71
42.9147,486.25,483.17
42.9353,488.2,485.33
42.9557,490.36,487.27
42.9762,490.09,490.61
42.9968,492.07,495.89
43.0212,497.85,515.11
43.0418,497.28,554.69
43.0623,494.23,606.75
43.0827,492.58,651.8
43.1033,489.27,685.44
43.1277,487.21,700.15
43.1483,481.77,705.52
43.1687,481.22,701.62
43.1892,481.97,688.29
43.2096,484.98,667.64
43.2301,484.58,646.71
43.2548,488.27,624.77
43.2752,491.41,598.01
43.2957,491.33,578.41
43.3162,495.26,563.33
43.3366,501.01,551.06
43.3613,503.21,541.45
43.3817,504.17,535.16
43.4023,505.53,527.73
43.4227,507.43,523.98
43.4432,505.74,519.59
43.4638,505.19,519.07
43.4882,502.75,517.26
43.5087,501.6,518
43.5291,500.88,520.8
43.5496,497.51,538.04
43.5701,496.01,555.63
43.5945,494.8,553.11
43.6151,495.44,522.89
43.6356,494.95,474.91
43.6562,495.76,420.13
43.6767,498.01,367.9
43.6971,502.61,326.92
43.7216,502.09,306.74
43.7422,501.67,301.79
43.7626,501.54,305.43
43.7834,502.63,314.95
43.8038,501.7,327.16
43.824,501.56,340.13
43.8485,501.05,352.7
43.8691,498.84,364.76
43.8896,493.67,375.81
43.9103,494.14,386.05
43.9305,491.71,396.44
43.9549,491.57,404.35
43.9755,491.85,412.08
43.9962,494.68,420.66
44.0166,497.35,429.73
44.0371,499.28,439.78
44.0575,499.42,448.83
44.0821,500.54,457.86
44.1026,499.83,466.09
44.123,497.66,473.47
44.1436,497.53,479.18
44.164,498.03,481.94
44.1885,495.22,483.15
44.209,494.78,484.92
44.2296,494.82,484.74
44.2503,492.66,483.79
44.2704,491.13,483.03
44.291,489.5,480.83
44.3154,489.6,480.46
44.3361,489.08,481.17
44.3566,489.06,480.93
44.3769,489.05,483.35
44.3975,492.44,487.28
44.4219,492.95,490.22
44.4426,493.96,493.18
44.4631,494.57,496.54
44.4835,493.86,498.63
44.504,496.68,499.11
44.5247,495.75,500.29
44.5489,494.6,500.03
44.5694,492.88,499.22
44.59,490.7,496.18
44.6105,488.76,492.74
44.631,490.01,489.39
44.6513,490.01,486.32
44.6759,489.21,484.85
44.6965,491.37,485.88
44.7171,489.89,487.11
44.7375,490.11,490.48
44.7579,489.89,492.39
44.7825,489.71,494.71
44.803,490.77,498.57
44.8235,490.42,500.45
44.844,490.33,502.36
44.8643,489.27,504.69
44.8849,487.61,505.35
44.9094,488.49,504.28
44.9301,488.99,502.23
44.9503,487.99,498.58
44.971,487.8,496.66
44.9914,486.24,493.53
45.0158,486.59,488.83
45.0363,485.47,486.66
45.0569,486.78,486.33
45.0774,489.22,484.66
45.0978,490.78,485.93
45.1185,491.22,488.74
45.1429,491.38,490.4
45.1635,493.3,492.72
45.184,492.84,493.77
45.2043,496.07,495.82
45.2249,499.66,497.85
45.2493,498.93,498.08
45.2699,497.54,497.27
45.2903,495.83,495.01
45.3108,495.87,492.41
45.3314,495.69,490.33
45.3517,495.35,487.26
45.3763,491.08,484.21
45.3967,490.47,481.97
45.4173,489.77,480.97
45.4378,489.62,481.98
45.4583,490.5,483.78
45.4787,491.4,486.43
45.5032,493.32,490.74
45.5238,493.65,493.99
45.5443,494.92,496.99
45.5648,494.74,499.2
45.5852,493.39,500.96
45.6097,491.51,499.77
45.6303,494.41,498.81
45.6508,495.73,496.05
45.6712,492.98,493.64
45.6917,491.39,490.51
45.7123,488.71,486.81
45.7366,489.17,485.65
45.7573,490.53,484.72
45.7778,491.83,483.57
45.7983,491.26,485.26
45.8188,493.01,486.61
45.8432,495.61,488.69
45.8637,497.29,491.15
45.8843,495.83,495.92
45.9047,496.46,498.74
45.9252,497.77,500.59
45.9458,496.22,500.87
45.9703,495.17,499.7
45.9908,492.54,502.56
46.0112,493.43,520.45
46.0317,490.34,562.76
46.0521,491.88,613.21
46.0766,489.7,659.96
46.0971,488.56,692.17
46.1178,485.65,711.14
46.1383,483.12,717.31
46.1587,482.89,713.25
46.1792,480.92,697.8
46.2037,482.13,677.64
46.2242,481.91,655.51
46.2448,482.52,629.81
46.2652,482.82,607.25
46.2855,483.66,585.6
46.3101,484.52,566.48
46.3306,483.62,548.38
46.3512,484.3,531.31
46.3716,484.44,519.64
46.3921,483.35,509.32
46.4126,486.48,498.65
46.4371,488.18,491.52
46.4577,489.15,486.62
46.4781,489.32,483.69
46.4986,490.25,486.16
46.5191,490.4,505.72
46.5395,490.52,539.98
46.5641,489.62,566.38
46.5847,489.89,578.31
46.6051,489.72,571.45
46.6256,494.77,546.96
46.646,499.82,508.37
46.6706,505.85,459.29
46.6911,508.48,404.43
46.7116,509.39,353.75
46.732,512.91,312.4
46.7525,510.33,288.52
46.773,509.46,280.41
46.7976,509.77,281.53
46.8182,509.02,288.63
46.8386,505.41,299.7
46.8591,504.93,313.96
46.8796,504.34,330.57
46.904,504.48,349.65
46.9245,502.98,368.72
46.945,502.78,386.38
46.9656,502.23,402.7
46.986,499.38,417.96
47.0066,497.51,431.97
47.0311,496.6,441.98
47.0517,495.28,450.58
47.0721,499.03,456.66
47.0925,499.62,461.53
47.1129,500.9,464.03
47.1374,500.52,465.02
47.158,499.61,466.62
47.1785,498.69,469.09
47.1991,498.75,471.87
47.2195,498.6,474.5
47.24,498.48,477.2
47.2644,499.39,480.96
47.2851,497.71,484.77
47.3056,495.17,489.01
47.3259,493.93,493.41
47.3465,494.95,495.93
47.3709,492.36,499.14
47.3914,494.09,501.11
47.4119,494.87,501.29
47.4324,496.9,498.63
47.4529,496.32,497.31
47.4734,496.65,494.65
47.4979,494.12,491.32
47.5184,491.7,487.85
47.539,491.56,486.08
47.5594,492.45,485.27
47.5799,493.76,484.81
47.6004,494.01,485.85
47.6249,495.6,487.88
47.6455,496.68,491.5
47.6659,497.75,493.6
47.6863,499,496.88
47.7069,498.6,500.11
47.7313,498.08,500.68
47.7519,497.46,501.35
47.7724,496.77,501.28
47.7928,495.82,499.42
47.8133,494.45,497.74
47.8339,493.16,492.99
47.8583,491.53,489.19
47.8788,494.22,486.95
47.8994,491.78,484.56
47.9199,493.22,482.65
47.9403,492.78,482.72
47.9648,494.02,483.98
47.9853,494.22,486.18
48.0058,493.37,488.74
48.0263,493.9,492.6
48.0468,495.12,495.08
48.0673,494.3,497.86
48.0918,492.44,500.49
48.1123,494.15,501.99
48.1328,494.32,500.39
48.1533,493.46,498.11
48.174,489.16,495.29
48.1982,490.73,492.43
48.2189,490.39,489.35
48.2393,490.11,487.48
48.2598,490.29,485.98
48.2804,492.43,484.79
48.3008,492.54,484.83
48.3252,495.23,486.06
48.3458,496.99,487.25
48.3663,495.99,489.8
48.3867,496.39,493.24
48.4072,497.71,496.19
48.4277,495.97,497.95
48.4522,494.78,499.36
48.4728,489.02,499.69
48.4935,490.62,498.15
48.5137,488.89,497.32
48.5343,488.72,495.86
48.5588,490.57,493.09
48.5793,489.46,489.67
48.5998,489.17,486.94
48.6203,489.93,483.95
48.6407,490.35,483.56
48.6612,491.08,485.05
48.6858,493.26,487.44
48.7062,495.01,489.75
48.7267,495.81,492.2
48.7473,495.85,494.16
48.7677,495.68,497.53
48.7923,495.34,498.42
48.8129,493.87,500.54
48.8334,493.7,516.63
48.8539,493.36,554.7
48.8742,496.89,602.36
48.8947,497.31,649.49
48.9191,492.05,687.79
48.9397,491.24,710.83
48.9601,488.39,719.07
48.9808,489.71,720.45
49.0011,489.37,714.96
49.0256,490.1,701.77
49.0461,492.48,685.02
49.0666,495.98,666.61
49.0871,503.79,648.49
49.1076,511.03,630.19
49.1281,514.82,611.95
49.1526,518.46,594.56
49.1731,519.97,582.05
49.1937,518.77,569.64
49.2141,518.22,556.71
49.2346,516.97,546.17
49.2591,514.38,537.94
49.2795,511.7,529.95
49.3003,511.76,525.36
49.3206,511.41,518.89
49.3413,511.73,512.31
49.3616,512.18,510.25
49.3863,513.35,514
49.4066,514.08,534.6
49.4271,514.86,553.68
49.4476,512.89,561.14
49.468,509.31,554.11
49.4885,507.65,533.89
49.513,501.92,499.31
49.5337,499.34,454.45
49.554,493.07,399.56
49.5746,488.05,341.45
49.5952,483.24,290.16
49.6195,478.4,254.93
49.64,473.72,238.74
49.6605,471.77,235.99
49.681,469.22,244.19
49.7017,470.17,258.36
49.7221,470.74,276.28
49.7465,471.19,297.43
49.7671,474.75,318.34
49.7875,477,340.67
49.808,480.6,362.74
49.8286,482.08,383.39
49.853,483.27,401.91
49.8736,485.81,416.33
49.8942,486.65,429.46
49.9145,488.72,440.57
49.935,488.58,447.46
49.9555,486.86,454.17
49.9802,486.29,457.93
50.0006,483.83,458.75
50.0211,482.46,461
50.0415,483.17,462.6
50.0621,485.74,464.08
50.0864,488.39,468.06
50.1071,489.71,471.45
50.1275,491.17,478.56
50.148,494.54,485.05
50.1684,494.23,486.44
50.1889,493.98,488.35
50.2134,496.59,490.48
50.2339,497.27,491.98
50.2544,495.62,492.79
50.2749,493.69,494.23
50.2955,491.75,493.78
50.316,493.2,492.23
50.3405,491.76,488.78
50.3609,491.61,485.43
50.3814,492.29,482.34
50.4019,491.23,481.47
50.4224,493.38,480.38
50.4469,491.51,481.5
50.4675,491.61,483.4
50.488,490.68,485.72
50.5085,491.55,490.18
50.5289,493.24,492.34
50.5494,495.99,497.47
50.5738,494.39,502.58
50.5944,496.91,505.46
50.6149,499.13,506.97
50.6354,499.91,505.78
50.6559,498.52,503.82
50.6804,495.62,502.06
50.7009,494.3,499.05
50.7214,493.44,495.84
50.7418,493.55,492.67
50.7624,493.84,489.54
50.7829,492.47,487.23
50.8073,495.78,487.98
50.8279,497.82,489.79
50.8484,498.46,491.43
50.8688,498.57,494.34
50.8893,497.85,496.27
50.9137,495.48,499.82
50.9344,495.19,501.26
50.955,494.15,503
50.9753,490.32,505.2
50.9958,488.26,504.56
51.0163,489.6,502.85
51.0408,490.68,499.48
51.0614,490.75,496.38
51.082,489.8,493.51
51.1022,491.24,490.61
51.1229,490.59,488.48
51.1473,492.67,488.19
51.1678,493.34,487.95
51.1883,494.07,489.16
51.2087,493.66,490.73
51.2292,494.52,492.58
51.2497,495.22,496.07
51.2743,497.58,499.05
51.2951,499.06,500.64
51.3155,496.05,502.11
51.3357,492.64,501.69
51.3562,492.11,500.75
51.3768,489.69,498
51.4012,488.95,496.6
51.4217,487.56,494.48
51.4422,487.25,490.39
51.4627,485.8,486.91
51.4832,486.04,485.13
51.5077,484.83,482.9
51.5283,485.07,482.12
51.5488,487.85,483.9
51.5692,488.68,486.32
51.5897,491.15,490.25
51.6102,493.52,493.6
51.6347,493.61,496.28
51.6553,494.29,498.83
51.6757,494.63,498.26
51.6962,493.71,499.41
51.7167,494.76,497.93
51.7412,493.41,496.94
51.7617,493.73,495.35
51.7822,492.58,496.08
51.8027,490.87,511.27
51.8232,492.09,549.21
51.8437,496.87,601.97
51.8682,503.5,648.58
51.8887,512,682.46
51.9092,522.2,703.17
51.9298,528.96,713.34
51.9501,528.57,711.67
51.9746,528.65,702.93
51.9952,527.32,689.95
52.0158,527.86,672.96
52.0362,526.89,653.57
52.0566,525.31,633.85
52.0771,520.85,615.68
52.1017,517.08,600.15
52.1222,516.86,585.92
52.1427,516.49,572.73
52.1632,516.39,559.59
52.1836,517.11,545.27
52.2042,514.69,534.22
52.2285,515.55,522.37
52.2493,511.44,509.9
52.2696,505.75,503.32
52.2901,500.8,494.45
52.3105,492.84,476.36
52.3351,482.27,456.09
52.3556,471.02,445.27
52.3761,461.22,442.22
52.3965,458.37,442.17
52.417,455.5,445.54
52.4375,457.6,461.63
52.462,456.68,484.31
52.4826,455.94,484.44
52.503,456.75,461.16
52.5235,458.6,425.72
52.5441,461.48,388.78
52.5685,462.99,352.62
52.589,467.79,325.7
52.6096,473.83,316.36
52.6301,479.86,316.09
52.6505,486.69,324.47
52.6711,488.55,337.18
52.6954,489.24,352.34
52.7161,490.19,368.07
52.7366,492.96,383.26
52.757,494.36,396.01
52.7775,491.49,404.81
52.802,493.39,413.44
52.8225,495.91,420.16
52.843,496.93,425.92
52.8636,495.75,431.34
52.8839,494.8,436.07
52.9045,495.44,441.66
52.929,496.95,445.33
52.9495,497.96,449.66
52.9701,496.77,456.73
52.9904,498.41,462.58
53.0111,497.73,468.67
53.0354,498.19,476.33
53.0561,495.75,482.07
53.0765,497,488.45
53.0969,499.6,491.96
53.1174,497.28,492.97
53.1379,493.02,493.78
53.1625,491.22,495.02
53.183,493.57,493.22
53.2034,490.46,491.17
53.2239,488.37,487.34
53.2444,488.89,484.07
53.2649,487.32,482.66
53.2894,490.25,482.33
53.31,491.2,482.66
53.3304,491.16,484.53
53.3511,493.53,487.22
53.3714,495.02,489.38
53.3959,494.22,492.5
53.4164,494.18,494.8
53.437,493.94,497.84
53.4575,494.35,499.87
53.4779,493.68,500.9
53.4984,493.75,499.92
53.5229,493.4,498.34
53.5435,492.92,496.87
53.5638,491.13,493.69
53.5843,490.31,491.16
53.6048,489.85,487.72
53.6295,489.88,484.98
53.6499,488.1,484.38
53.6703,489.08,486.71
53.6908,490.46,490.17
53.7113,490.97,492.33
53.7318,492.58,494.87
53.7563,493.26,496.69
53.777,492.61,498.95
53.7974,493.29,502.16
53.8179,490.83,503.53
53.8383,492.86,504.02
53.8628,493.69,503.62
53.8833,492.15,502.3
53.9039,489.52,506.64
53.9244,488.42,537.71
53.9448,485.13,591.37
53.9654,483.11,644.89
53.9897,477.29,683.92
54.0104,470.03,699.53
54.0309,465.22,702.03
54.0513,460.58,692.22
54.0718,461.66,685.38
54.0923,459.33,673.1
54.1169,458.06,650.48
54.1374,458.85,627.38
54.1578,461.08,608.91
54.1783,466.26,588.13
54.1987,469.61,571.5
54.2233,470.09,554.8
54.2438,472.67,544.04
54.2646,473.34,531.23
54.2848,473.87,519.19
54.3052,476.5,508.55
54.3257,476.6,499.24
54.3503,478.48,493.99
54.3707,481.98,493.19
54.3912,486.39,490.35
54.4117,487.71,493.08
54.4322,489.37,498.67
54.4567,491.29,510.53
54.4772,493.83,537.43
54.4977,496.07,569.54
54.5183,496.85,587.03
54.5387,497.48,583.43
54.5591,501.79,556.34
54.5837,507.63,511.27
54.6042,519.5,456.22
54.625,526.2,399.37
54.6451,532.76,349.9
54.6657,535.41,317.92
54.6902,536.33,301.34
54.7107,538.06,297.87
54.7312,536.85,301.69
54.7517,535.88,309.96
54.7721,531.1,322.96
54.7926,527.48,339.77
54.8172,525.79,356.62
54.8377,522.43,372.69
54.8581,518.54,387.96
54.8787,514.83,405.36
54.8991,513.47,417.09
54.9237,510.57,427.07
54.9442,507.06,434.66
54.9648,503.25,440.53
54.9852,498.2,445.82
55.0056,496.96,449.66
55.0261,494.37,453.13
55.0506,492.09,455.5
55.0712,492.47,459.2
55.0916,494.58,461.36
55.1121,495.46,464.89
55.1325,496.77,470.11
55.1531,496.22,475.29
55.1775,498.57,481.83
55.1981,500.26,485.86
55.2187,500.61,489.29
55.2391,501.49,494.23
55.2597,503.19,497.19
55.2841,501.95,496.75
55.3046,498.16,496.4
55.3251,496.33,494.52
55.3455,496.06,492.22
55.3661,495.45,490.17
55.3865,494.76,487.54
55.411,491.41,485.43
55.4315,490.33,483.74
55.452,489.86,484.4
55.4726,492.49,484.72
55.493,493.59,486.77
55.5175,492.07,490.02
55.5381,492.06,492.41
55.5587,492.85,495.33
55.579,494.28,500.27
55.5996,496.02,506.81
55.6201,494.22,516.65
55.6445,494.97,544.92
55.6651,489.38,598.54
55.6856,481.1,648.03
55.7061,472.68,692.02
55.7265,463.95,707.82
55.7509,460.36,697.25
55.7715,456.69,695.8
55.7921,454.95,660.04
55.8126,456.76,644.63
55.833,460.01,617.51
55.8535,461.21,594.01
55.878,467.56,580.6
55.8988,469.25,565.88
55.9189,473.8,559.51
55.9395,477.24,546.81
55.96,477.99,537.64
55.9804,479.79,528.72
56.0051,481.64,525.17
56.0255,482.51,519.14
56.0459,482.41,513.71
56.0664,481.73,507.37
56.0869,483.18,504.29
56.1115,483.74,497.84
56.1319,484.2,494.87
56.1524,484.56,498.29
56.173,485.65,518.24
56.1934,487.12,546.19
56.2138,488.49,564.35
56.2384,494.59,565.68
56.2589,502.28,545.14
56.2795,512.02,500.52
56.2999,519.82,442.61
56.3203,527.05,385.89
56.3448,533.24,343.91
56.3653,534.59,318.53
56.386,534.08,307.42
56.4067,530.66,305.94
56.427,527.13,309.95
56.4474,522.7,317.56
56.4719,519.16,325.65
56.4924,515.33,337.32
56.5129,514.66,350.46
56.5334,513.33,363.76
56.5538,510.26,376.61
56.5783,508.41,391.49
56.5988,507.33,406.79
56.6193,507.66,421.23
56.6398,507.73,433.59
56.6603,507.38,444.87
56.6808,505.71,454.5
56.7053,501.77,461
56.7258,499.41,466
56.7464,497.93,468.4
56.7668,494.54,469.92
56.7873,495.84,470.33
56.8118,492.67,469.27
56.8323,493.33,468.81
56.8528,492.07,469.85
56.8733,494.65,470.88
56.8939,495.32,473.3
56.9144,496.66,475.64
56.9388,498.73,479.32
56.9595,496.38,482.65
56.9798,495.71,487.92
57.0004,494.76,491.34
57.0208,494.21,494.67
57.0412,494.77,497.34
57.0658,495.42,497.87
57.0863,494.73,496.5
57.1068,491.79,495
57.1272,492.63,492
57.1478,491.5,491.8
57.1723,490.4,489.64
57.1927,489.52,485.91
57.2132,490.62,483.53
57.2337,490.09,482.42
57.2542,491.08,482.54
57.2747,492.66,485.43
57.2992,490.93,488.74
57.3199,491.14,491
57.3403,494.11,493.8
57.3607,496.09,497.64
57.3812,497.07,500.11
57.4057,496.26,500.89
57.4262,495.21,501.11
57.4468,493.57,499.89
57.4673,491.85,496.91
57.4877,490.48,494.13
57.5081,489.19,490.9
57.5326,489.75,487.32
57.5532,489.8,486.66
57.5737,488.44,488.73
57.5942,489.75,512.78
57.6147,490,564.22
57.6351,488.8,614.38
57.6597,487.64,652.3
57.6802,485.11,679.44
57.7007,483.89,696.75
57.7212,479.51,694.8
57.7416,472.41,684.64
57.7661,467.13,671.11
57.7867,461.5,648.09
57.8071,458,628.47
57.8278,454,607.98
57.8481,456.2,584.98
57.8686,458.76,568.59
57.8931,457.61,553.27
57.9137,460.29,541.02
57.9342,462.63,531.01
57.9546,465.3,522.81
57.9751,469.04,515.45
57.9997,473.23,512.36
58.0202,474.19,511.29
58.0406,478.35,516.03
58.0611,480.28,532.22
58.0815,483.82,558.98
58.102,483.46,583.18
58.1265,488.37,589.75
58.1471,496.29,577.2
58.1676,507.04,538.16
58.1881,520.23,478.73
58.2085,531.78,413.98
58.233,537.83,356.18
58.2535,540.66,315.15
58.274,538.93,294.32
58.2946,534.74,286.25
58.3151,530.59,288.8
58.3356,526.08,297.84
58.3601,524.26,311.67
58.3805,522.21,329.54
58.4011,519.17,347.83
58.4215,515.93,365.27
58.442,512.95,383.01
58.4664,512.56,399.21
58.4871,509.85,412.97
58.5076,508.68,425.37
58.5283,506.14,434.1
58.5485,504.71,440.68
58.569,502.57,445.94
58.5935,498.66,449.35
58.6142,495.33,453.28
58.6345,492.46,454.83
58.655,493.37,458.46
58.6755,493.89,461.57
58.696,493.52,465.26
58.7204,494.41,470.4
58.741,496.73,476.32
58.7615,498.58,481.66
58.7819,499.47,487.53
58.8024,497.97,491.22
58.827,496.58,494.58
58.8476,496.86,496.66
58.868,496.29,496.93
58.8885,495.23,496.94
58.909,496.99,495.75
58.9295,496.19,493
58.9539,494.35,490
58.9745,494.28,487.2
58.9949,492.22,485.16
59.0155,493.18,481.53
59.0359,491.94,482.02
59.0605,493.16,485.02
59.081,493.72,488.82
59.1015,494.98,511.85
59.1219,494.98,545.88
59.1427,494.19,582.71
59.1629,489.95,619.96
59.1874,486.56,634.97
59.2079,481.45,653.38
59.2285,475.36,669.5
59.2489,468.29,668.4
59.2694,465.03,666.92
59.2939,462.02,653.54
59.3144,462.22,641.43
59.3349,460.38,619.34
59.3554,460.7,601.47
59.3758,462.76,591.18
59.3964,466.61,574.54
59.4208,469.29,570.24
59.4414,472.83,561.79
59.4619,477.06,552.63
59.4823,479.85,549.5
59.5029,482.48,546.2
59.5234,486.18,548.76
59.5479,489.55,561.01
59.5686,489.44,582.61
59.5889,488.55,602.09
59.6095,492.24,604.27
59.6299,496.79,578.82
59.6543,505.03,529.65
59.6748,512.23,470.52
59.6954,519.58,408.62
59.7158,523.07,351.69
59.7363,525.45,312.16
59.7568,525.96,293.32
59.7814,524.37,286.66
59.8018,525.5,290.53
59.8223,524.8,301.82
59.8429,522.84,316.06
59.8633,520.87,332.45
59.8877,518.3,348.76
59.9084,515.84,367.01
59.9288,513.07,382
59.9494,507.26,395
59.9698,503.2,407.6
59.9903,500.36,415.28
60.0147,498.09,423.03
60.0353,495.47,429.42
60.0558,493.38,434.94
60.0763,492.7,438.75
60.0967,491.96,442.6
60.1212,493.77,449.08
60.1418,497.62,454.06
60.1623,497.89,460.05
60.1828,496.71,468.24
60.2032,495.37,473.79
60.2238,494.9,477.23
60.2483,494.12,483.79
60.2688,492.49,487.03
60.2893,490.8,489.42
60.3097,489.64,491.14
60.3301,488.31,489.71
60.3507,487.25,487.97
60.3754,486.4,486.38
60.3958,485.12,486.5
60.4162,482.69,483.6
60.4367,481.56,483.28
60.4572,480.24,483.02
60.4816,481.6,483.82
60.5022,484.28,486.46
60.5227,484.62,488.76
60.5432,487.1,491.01
60.5637,490.48,494.21
60.5841,491.78,498.77
60.6086,490.23,500.81
60.6292,493.58,504.05
60.6497,495.46,505.44
60.6702,497.77,503.15
60.6907,497.22,500.32
60.7151,496.57,496.86
60.7357,495.06,493.89
60.7562,494.85,490.71
60.7767,493.88,487.37
60.7972,491.5,486.09
60.8178,490,483.68
60.8421,490.6,483.14
60.8627,492.88,483.11
60.8831,492.9,484.49
60.9036,492.92,487.59
60.9241,491.94,490.47
60.9485,494.15,494.58
60.9691,495.72,497.66
60.9898,495.38,499.13
61.0101,494.9,501.5
61.0306,493.92,500.6
61.051,491.94,499.48
61.0755,491.95,496.99
61.0961,489.96,494.19
61.1167,487.57,491.15
61.137,483.45,487.12
61.1575,483.56,485.1
61.178,485.65,483.28
61.2025,487.32,483.82
61.2231,488.46,485.46
61.2437,491.77,486.77
61.2642,492.81,490.01
61.2845,495.65,494.41
61.309,496.72,498.13
61.3296,494.78,500.3
61.3501,495.22,500.24
61.3705,495.38,500.19
61.391,496.1,499.55
61.4115,498.48,498.24
61.436,500.38,495.2
61.4566,498.71,492.16
61.4771,496.57,488.12
61.4975,494.05,485.1
61.5179,494.24,482.88
61.5424,494.99,482.3
61.5631,497.2,482.84
61.5836,500.56,483.87
61.604,502.24,484.9
61.6244,499.6,484.92
61.645,498.48,485.74
61.6694,496.78,486.99
61.6902,495.03,490.79
61.7104,494.42,493.63
61.7309,494.14,494.31
61.7514,492.11,494.44
61.776,488.89,493.16
61.7966,488.31,490.52
61.817,488.85,489.42
61.8374,486.88,487.74
61.8579,487.1,483.79
61.8786,485.88,482.43
61.9029,486.31,481.34
61.9234,485.24,483.08
61.9439,484.8,484.86
61.9644,487.04,495.69
61.9848,480.63,506.75
62.0053,468.1,514.2
62.0299,460.88,519.36
62.0504,455.51,522.29
62.0708,448.8,522.63
62.0913,449.24,522.7
62.1118,448.8,520.16
62.1364,451.04,514.53
62.1568,452.43,508.82
62.1773,455.94,504.46
62.1978,459.75,498.77
62.2183,464.2,494.61
62.2388,467.16,490.89
62.2633,467.93,489.51
62.2838,471.74,486.61
62.3044,479,487.29
62.3249,480.2,487.83
62.3453,483.96,489.66
62.3698,484.97,491.53
62.3903,485.37,494.83
62.4108,487.5,496.86
62.4313,490.2,497.89
62.4518,491.96,498.51
62.4723,492.77,497.21
62.4968,495.01,495.77
62.5175,493.41,492.61
62.5378,491.53,489.29
62.5584,490.02,486.23
62.5789,488.82,482.79
62.6034,488.45,481.43
62.6239,490.56,480.54
62.6445,490.65,481.83
62.6648,488.72,485.27
62.6853,492.18,487.01
62.7057,492.14,491.21
62.7303,492.71,495.37
62.7509,490.97,497.9
62.7715,492.58,500.72
62.7918,493.26,502.97
62.8124,494.01,503.98
62.8328,493.41,502.18
62.8572,488.33,499.15
62.8777,487.26,496.92
62.8983,485.61,493.73
62.9187,486.49,489.59
62.9392,485.19,485.87
62.9638,483.75,484.1
62.9843,483.4,483.68
63.0047,486.32,485.54
63.0253,489.26,487.43
63.0457,489.41,488.55
63.0662,490.92,490.84
63.0909,492.34,494.87
63.1112,493.27,497.1
63.1319,495.42,499.48
63.1523,494.53,501.98
63.1727,495.43,502.79
63.1972,494.14,502.83
63.2177,493.51,500.86
63.2382,496.21,499.09
63.2587,494.97,495.87
63.2792,494.77,492.9
63.2998,494.62,488.92
63.3242,495.5,487.53
63.3447,495.8,487.43
63.3653,497.44,486.94
63.3857,498.95,489.75
63.4061,500.76,490
63.4307,498.61,493.4
63.4511,499.89,496.32
63.4717,499.71,497.66
63.4923,499.77,500.73
63.5127,496.61,500.98
63.5331,497.09,499.18
63.5577,494.47,498.35
63.5782,494.78,495.28
63.5988,494.02,492.22
63.6191,492.22,491.38
63.6397,491.97,489.5
63.6601,490.58,487.8
63.6846,490.06,486.04
63.7052,496.25,480.63
63.7256,512.8,476.11
63.7462,527.04,475.09
63.7667,535.83,476.87
63.7911,540.07,478.89
63.8116,542.85,481.12
63.8321,542.48,484.29
63.8527,540.79,487.23
63.8732,536.23,488.99
63.8935,533.38,6.11498e-39
