Program Time [s],data 0,data 1
3.54234,502.33,506.73
3.54239,506.07,502.18
3.54244,512.25,499.34
3.5425,516.6,497.08
3.54252,515.17,515.33
3.54257,506.26,515.67
3.54262,505.8,514.13
3.54267,505.64,510.91
3.54271,503.91,506.73
3.54276,502.33,502.18
3.54281,506.07,499.34
3.54286,512.25,497.08
3.54291,516.6,511.4
5.05685,509.6,508.92
5.07733,508.28,506.54
5.1019,506.42,503.83
5.12238,505.94,500.26
5.14286,502.95,498.41
5.16339,502.36,497.93
5.18383,500.89,497.94
5.20838,502.71,501.35
5.22897,502.37,503.48
5.24942,503.9,504.99
5.2699,502.32,508.39
5.29039,503.45,511.91
5.31079,504.76,516.13
5.33546,506.61,517.1
5.35583,506.29,516.68
5.37635,506.03,515.55
5.39678,504.02,513.44
5.41736,500.82,510.75
5.44176,500.26,508.6
5.46248,501.6,504.68
5.48286,500.68,502.14
5.5033,504.15,501.52
5.52387,504.52,501.21
5.54424,507.61,502.37
5.56879,508.29,503.9
5.58933,507.43,507.52
5.60987,507.15,510.41
5.63031,506.92,514.73
5.65075,507.73,529.98
5.67121,508.79,567.19
5.69574,512.63,610.15
5.71627,514.3,641.72
5.73673,511.24,649.78
5.75733,508.79,642.22
5.7778,504.64,628.98
5.80224,502.11,614.98
5.82274,499.69,599.79
5.8433,496.15,585.83
5.86375,496.12,575.06
5.88418,496.7,566.05
5.90471,498.56,560.84
5.92928,497.25,558.27
5.94974,498.2,560.42
5.97021,499.56,555.73
5.9907,500.05,531.39
6.01116,501.84,494.11
6.03568,504.47,456.89
6.05621,507.78,429.91
6.07675,508.62,415.33
6.09719,508.7,407.26
6.11776,507.76,404.61
6.13821,509.81,404.69
6.16274,510.84,406.55
6.18321,511.08,411.64
6.20374,509.66,418.31
6.22413,509.13,426.65
6.24476,508.5,436.72
6.26913,507.8,447.98
6.28969,507.84,458.38
6.31016,505.67,467.3
6.3307,506.74,475.04
6.35111,508.39,482.84
6.37168,507.31,488.47
6.39615,506.25,492.57
6.41676,505,494.86
6.43721,504.6,496.09
6.45768,503.68,495.87
6.47812,504.74,495.5
6.49866,502.6,494
6.5232,502.48,492.6
6.54375,501.58,492.88
6.56412,502.46,495.3
6.58462,502.97,497.04
6.60505,503.18,500.03
6.62955,503.14,504.43
6.65011,503.11,507.54
6.67059,505.49,511.23
6.6911,506.39,513.39
6.71155,506.71,515.11
6.73211,506.97,515.49
6.75659,505.98,514.19
6.77717,507.38,512.75
6.79763,504.91,510.4
6.81811,504.92,507.72
6.83861,503.54,503.58
6.86302,503.23,501.06
6.88356,503.79,499.85
6.90408,502.83,499.68
6.92454,504.86,501.14
6.94506,507.29,502.91
6.96549,508.43,506.53
6.99003,509.75,510.03
7.01057,510.4,513.02
7.03105,510.72,516.22
7.05156,509.57,519.17
7.07209,508.06,519.34
7.09649,506.65,519.47
7.11705,506.72,518.38
7.13757,504.37,515.3
7.158,504.3,512.44
7.17849,503.44,507.55
7.19898,503.15,504.64
7.22351,503.12,502.31
7.24399,503.9,500.05
7.26459,503.52,500.44
7.28505,504.21,501.35
7.30553,505.57,504.28
7.32992,506.46,508.43
7.35045,508.37,510.34
7.37102,508.69,514.07
7.3915,507.95,515.86
7.41209,507.96,517.69
7.43241,507.17,516.15
7.457,505.54,515.52
7.47753,505.23,513.22
7.49804,506.38,509.37
7.51863,506.31,504.3
7.53905,505.45,500.04
7.55941,504.96,496.43
7.58393,503.37,496.54
7.60448,506.29,498.64
7.62498,505.83,498.91
7.6454,507.67,501.53
7.66593,508.33,506.22
7.69045,510.47,508.78
7.71095,510.17,511.42
7.73147,510.54,513.74
7.75191,513.63,513.79
7.77248,511.7,514.83
7.79283,508.56,513.87
7.81738,507.85,510.49
7.838,507.08,507.39
7.8584,506.86,504.12
7.87889,506.69,501.09
7.89939,505.75,498.67
7.9239,506,497.54
7.94443,505.8,495.83
7.96495,502.64,496.27
7.98548,504.51,499.21
8.00584,504.61,503.17
8.02631,505.29,507.54
8.05088,505.83,511.03
8.0714,505.46,514.62
8.09185,506.37,516.7
8.11241,505.1,517.36
8.13281,506.28,517.69
8.15728,505.02,516.35
8.17783,506.22,513.28
8.19849,504.97,510.42
8.21891,504.18,507.74
8.23938,499.74,505.19
8.26003,499.79,504.35
8.28435,500.44,501.68
8.30481,502.55,500.35
8.32535,501.64,498.88
8.34579,504.31,506.5
8.36628,506.05,509.8
8.38678,505.64,514.64
8.41131,505.71,517.11
8.43181,506.77,518.69
8.45228,509.02,520.35
8.47274,509.21,519.48
8.49328,507.37,518.39
8.51781,509.3,515.91
8.53832,508.04,510.33
8.55879,506.83,505.66
8.57931,505.66,502.93
8.59988,507.93,500.14
8.62026,511.54,496.71
8.64477,511.64,498.37
8.66527,514.11,499.1
8.68573,512.49,504.68
8.70621,517.19,503.74
8.72672,513.95,505.79
8.75125,514.36,509.04
8.77171,512.49,511.23
8.7923,512.19,512.38
8.81276,510.75,512.11
8.83327,509.6,512.08
8.85383,506.68,509.87
8.87831,503.75,507.89
8.89877,500.6,501.12
8.91928,503.28,501.09
8.93975,506.02,500.27
8.96025,500.62,498.62
8.98468,498.29,496.9
9.00519,498.84,495.12
9.02575,499.07,498.49
9.0462,497.65,503.99
9.06687,498.72,510.4
9.08717,497.78,517.72
9.11171,499.42,523.57
9.13222,503.74,525.86
9.15272,505.39,528.69
9.17314,505.11,527.35
9.19372,508.69,521.08
9.21816,509.55,514.26
9.23872,508.44,511.81
9.25934,506.95,506.45
9.27972,505.96,502.56
9.30019,509.57,503.25
9.32059,508.86,500.8
9.34516,504.68,503.24
9.3657,505.75,502.79
9.38614,513.6,504.83
9.40688,516.08,512.67
9.4272,519.06,536.93
9.44763,517.25,579.75
9.47215,514.2,620
9.49262,517.56,658.8
9.51316,522.85,670.64
9.5336,516.48,664.91
9.55411,510.38,652.13
9.57866,503.51,635.3
9.59914,503.21,617.04
9.61963,500.36,599.43
9.64007,499.29,584.95
9.66068,499.63,575.76
9.68106,503.31,569.81
9.70558,502.65,576.84
9.72631,504.72,594.08
9.74662,505.37,602.46
9.76715,506.3,582.37
9.78763,512.64,536.29
9.81206,515.11,484.84
9.8326,517.09,438.07
9.85305,516.67,417.85
9.87358,527.14,396.48
9.89399,522.71,386.59
9.91449,526.57,388.47
9.93898,534.65,386.38
9.95958,550.12,387.7
9.98005,543.7,393.56
10.0006,523.16,390.45
10.021,535.93,397.96
10.0457,536.34,408.97
10.066,518.07,422.17
10.0865,512.46,431.94
10.107,512.97,442.95
10.1275,522.97,454.56
10.1479,518.78,463.45
10.1726,519.62,466.76
10.193,518.1,473.21
10.2135,505.08,486.37
10.234,518.06,487.89
10.2544,516.25,490.51
10.2789,512.4,491.01
10.2995,510.52,494.61
10.3201,505.02,490.09
10.3406,505.41,490.27
10.3609,501.73,495.22
10.3814,502.78,497.37
10.406,501.43,500.9
10.4265,502.54,501.72
10.447,503.43,504.57
10.4675,501.95,507.66
10.488,501.56,513.13
10.5084,498.05,515.1
10.5329,498.04,517.28
10.5534,503.63,517.43
10.5739,505.3,518.34
10.5945,504.64,515.87
10.6149,502.31,511.7
10.6394,501.25,508.76
10.6599,503,506.81
10.6805,503.4,503.65
10.7009,502.32,503.92
10.7215,502.86,504.33
10.7419,497.89,504.67
10.7664,488.91,507.13
10.787,484.93,507.51
10.8074,481.74,510.81
10.8279,483.59,513.44
10.8483,483.67,515.76
10.8728,484.74,517
10.8934,485.19,515.2
10.914,482.75,514.56
10.9345,485.8,510.45
10.9549,486.64,505.76
10.9754,487.51,500.81
10.9999,488.81,497.25
11.0204,489.65,494
11.0409,492.12,492.2
11.0614,493.5,494.16
11.0818,494.8,495.33
11.1064,495.64,497.66
11.1269,498.31,501.53
11.1473,499.25,504.22
11.1679,502.4,507.78
11.1885,502.32,512.22
11.2088,503.65,513.78
11.2333,500.52,516.42
11.254,501.82,514.54
11.2745,500.86,512.23
11.2948,499.88,508.98
11.3153,502.11,505.59
11.3398,502.69,501.07
11.3603,504.35,498.66
11.3808,503.68,498.72
11.4013,502.94,500.38
11.422,500.15,502.9
11.4422,498.52,504.72
11.4668,500.02,506.58
11.4873,500.62,509.26
11.5079,500.49,512.61
11.5283,502.39,515.29
11.5488,503.92,517.23
11.5732,505.33,520.18
11.5938,505.27,518.75
11.6143,508.21,516.6
11.6348,507.57,514.08
11.6553,508.66,511.06
11.6757,507.72,506.25
11.7003,507.78,502.6
11.7208,508.22,499.48
11.7413,506.98,497.78
11.7617,507.18,497.63
11.7822,508.15,499.3
11.8028,510.12,503.24
11.8273,511.49,506.99
11.8478,512.2,510.19
11.8683,513.16,513.36
11.8888,512.52,515.68
11.9093,511.02,516.55
11.9337,509.82,518.04
11.9542,505.25,518.03
11.9747,505,514.22
11.9954,504.2,511.78
12.0158,504.16,508.82
12.0362,506.13,504.46
12.0607,507.5,500.57
12.0812,508.6,498.25
12.1017,508.08,497.8
12.1223,508.87,498.64
12.1427,509.69,502.31
12.1672,510.35,505.45
12.1878,509.88,509.36
12.2083,511.91,511.89
12.2288,510.73,515.71
12.2492,510.38,516.57
12.2696,510.3,518.86
12.2941,510.64,517.88
12.3147,508.11,516.31
12.3353,506.69,514.45
12.3557,504.55,509.96
12.3761,503.04,507.37
12.4006,500.23,504.29
12.4212,501.19,502.63
12.4417,503.15,501.11
12.4621,503.32,501.49
12.4827,502.06,503.79
12.5031,503.84,505.83
12.5276,505.28,507.66
12.5481,505.82,507.93
12.5686,511.46,505.55
12.5891,518.57,504.84
12.6096,523.45,503.27
12.63,525.16,503.82
12.6545,526.73,502.65
12.6751,522.38,500.72
12.6956,519.31,497.78
12.7161,517.85,495.62
12.7366,516.48,494.3
12.7611,515.58,493.44
12.7816,516.06,492.35
12.8022,516.45,492.88
12.8226,514.36,494.5
12.843,513.49,497.6
12.8635,513.39,501.48
12.8881,514.11,506.59
12.9086,511.29,510.67
12.9291,518.23,515.14
12.9497,524.79,518.11
12.97,528.23,520.29
12.9946,530.38,519.23
13.015,529.71,515.38
13.0357,525.37,513.71
13.0563,524.09,510.37
13.0767,520.67,507.49
13.0971,520.14,505.59
13.1215,519.71,502.68
13.1422,518.57,499.74
13.1626,516.46,500.59
13.1831,515.76,517.27
13.2036,512.01,553.42
13.228,509.01,594.34
13.2486,500.61,632.27
13.2692,487.49,657.81
13.2896,477.19,668.65
13.3101,467.35,664.12
13.3305,461.68,651.3
13.355,461.54,634.24
13.3757,459.44,616.99
13.3962,458.75,598.39
13.4165,461.6,581.71
13.437,465.28,566.17
13.4615,470.62,554.94
13.4821,473.3,544.75
13.5025,475.44,544.4
13.523,479.35,552.72
13.5434,482.68,562.78
13.5639,487.54,566.02
13.5884,496.84,552.82
13.6089,513.27,514.45
13.6294,528.81,467.96
13.6499,544.05,426.97
13.6704,554.44,400.78
13.6948,557.75,386.42
13.7154,558.2,379.94
13.736,558.16,378.95
13.7564,556.13,381.36
13.7769,552.9,386.69
13.7976,548.32,394.55
13.8219,545.06,403.84
13.8425,544.05,414.47
13.8631,540.24,426.98
13.8835,535.39,438.58
13.9039,532.71,450.27
13.9245,529.97,460.01
13.9488,527.78,467.21
13.9695,525.22,476.37
13.9899,518.98,482.49
14.0104,516.58,485.6
14.031,513.86,488.48
14.0556,511.69,489.58
14.0762,508.35,490.46
14.0965,506.88,489.37
14.1169,506.71,488.7
14.1374,506.17,488.16
14.1578,504.33,488.53
14.1824,501.07,489.42
14.2029,499.25,493.14
14.2233,498.8,495.91
14.2439,502.04,500.33
14.2643,504.43,504.86
14.2888,504.55,509.89
14.3093,502.24,513.51
14.3298,502.99,516.41
14.3503,505.19,518.53
14.3708,505.35,517.82
14.3912,503.28,516.66
14.4158,501.83,514.73
14.4363,502.26,512.78
14.4568,504.01,510.42
14.4773,501.61,508.74
14.4977,498.09,506.79
14.5222,494.87,505.83
14.5428,494.69,505.47
14.5633,497.76,506.97
14.5838,498.4,508.38
14.6043,498.92,509.9
14.6248,498.54,512.92
14.6492,498.23,515.14
14.6748,499.99,517.91
14.6905,503.39,519.73
14.7108,502.91,518.98
14.7313,500.13,517.79
14.7557,497.7,517.03
14.7762,500.36,514.02
14.7968,508.89,512.02
14.8172,512.51,508.21
14.8377,516.41,505.37
14.8583,515.93,502.9
14.8829,516.94,502.12
14.9033,517.35,503.49
14.9237,516.88,505.2
14.9443,515.31,508.16
14.9647,514.45,510.13
14.9853,513.56,512.5
15.0098,512.84,515.2
15.0303,513.28,516.56
15.0508,510.62,516.45
15.0712,508.3,513.96
15.0916,506.64,512.17
15.1162,504.91,509.33
15.1367,503.33,506.67
15.1571,500.46,503.33
15.1779,499.57,500.27
15.1982,501.26,498.61
15.2187,503.8,497.69
15.2432,504.84,499.55
15.2639,506.08,501.44
15.2842,507.06,503.95
15.3047,508.25,508.36
15.3251,509.6,511.69
15.3497,508.28,514.35
15.3702,508.42,516.48
15.3907,509.34,515.79
15.4111,508.87,514.83
15.4316,507.3,512.26
15.4521,505.64,510.61
15.4766,503.71,507.49
15.4971,503.37,503.19
15.5177,501.49,499.75
15.5381,503,496.2
15.5586,503.6,495.56
15.5831,503.68,496.25
15.6037,505.34,498
15.6241,505.07,501.8
15.6446,504.66,504.64
15.6651,505.33,508.51
15.6857,506.86,512.01
15.7102,507.09,514.61
15.7308,507.67,515.89
15.7511,508.54,516.31
15.7716,506.43,515.45
15.7921,505.14,513.56
15.8166,505.72,509.65
15.8371,504.57,506.92
15.8577,503.26,503.53
15.8782,504.61,501.23
15.8987,503.28,499.78
15.9191,502.83,498.83
15.9436,502.66,501.06
15.9641,502.93,503.45
15.9847,504.94,505.96
16.0051,506.56,510.17
16.0256,506.04,512.33
16.0461,507.24,515.67
16.0707,508.79,522.53
16.0912,509.03,549.63
16.1117,505.42,586.9
16.1322,496.34,620.52
16.1526,485.87,642.42
16.177,475.5,648.33
16.1977,467,639.47
16.2181,463.6,623.97
16.2386,461.28,607.38
16.2592,462.62,590.5
16.2797,465.3,577.8
16.3041,469.24,567.44
16.3247,473.59,559.55
16.3451,476.07,555.44
16.3655,479.26,554.15
16.3861,484.41,562.12
16.4106,485.93,580.9
16.431,487.94,602.12
16.4516,487.95,611.9
16.4721,487.36,598.12
16.4926,489.49,565.89
16.513,492.19,527.31
16.5375,493.95,488.25
16.558,498.56,449
16.5786,510.85,412.4
16.5989,527.68,382.12
16.6194,540.14,367.9
16.6439,545.92,366.52
16.6644,549.53,371.61
16.6849,551.43,382.09
16.7055,552.54,395.07
16.7262,551.23,408.86
16.7464,549.19,420.69
16.771,544.55,432.55
16.7916,539.24,443.04
16.8121,534.59,450.63
16.8325,533.27,455.91
16.8529,529.82,459.52
16.8774,527.85,462.22
16.898,524.68,464.38
16.9184,523.35,467.1
16.9388,522.08,467.68
16.9593,519.46,471.74
16.9801,516.97,477.6
17.0043,515.98,484.48
17.025,517.98,489.98
17.0454,516.78,494.98
17.0658,515.83,497.99
17.0863,516.26,499.79
17.1069,517.41,501.03
17.1314,518.13,500.43
17.1519,518.3,500.34
17.1724,514.64,498.67
17.1929,509.91,498.14
17.2134,505.73,498.11
17.2379,502.78,497.69
17.2583,503.03,498.95
17.2789,500.22,500.36
17.2995,500.58,501.89
17.3199,501.26,505.11
17.3404,500.61,508.29
17.3648,502.09,510.03
17.3856,501.07,511.62
17.406,500.06,512.3
17.4263,497.64,513.24
17.4469,496.12,512.79
17.4712,496.89,512.83
17.4919,498.11,513.07
17.5125,496.29,511.65
17.5329,491.03,510.52
17.5534,490.23,507.02
17.5737,491.58,504.01
17.5982,496.07,501.61
17.6187,495.25,499.69
17.6394,498.8,498.35
17.6599,500.44,498.08
17.6804,503.55,500.46
17.7048,504.24,501.37
17.7252,505.59,505.1
17.7457,507.68,508.08
17.7662,509.34,509.66
17.7869,511.27,510.73
17.8073,512.02,510.98
17.8317,511.41,511.99
17.8523,509.33,513.19
17.8728,508.07,512.55
17.8932,507.85,511.24
17.9137,508.28,507.99
17.9341,505.63,505.79
17.9587,503.7,504.24
17.9793,500.96,503.19
17.9998,502.97,502.55
18.0202,504.57,503.84
18.0406,504.26,508.07
18.0651,502.01,509.46
18.0857,504.21,511.77
18.1062,504.16,514.01
18.1267,507.13,516.81
18.1472,508.31,517.65
18.1676,506.84,518.32
18.1921,507.28,520.05
18.2127,508.22,519.84
18.2331,506.98,518.28
18.2538,504.78,516.42
18.2742,504.02,513.94
18.2986,503.82,511.15
18.3191,504.26,509.52
18.3397,504,510.22
18.3601,501.8,511.57
18.3807,501.84,510.86
18.4012,503.27,512.09
18.4256,507.02,512.47
18.4461,505.22,514.18
18.4666,505.97,516.14
18.4871,505.78,517.31
18.5076,508.22,515.65
18.5321,509.78,514.72
18.5526,507.22,512.38
18.5731,505.98,509.3
18.5936,506.78,507.64
18.6141,506.43,505.11
18.6345,504.54,503.89
18.6591,504.23,502.51
18.6796,505.19,502.21
18.7,508.15,501.37
18.7205,505.92,502.49
18.741,507.14,505
18.7655,508.11,507.4
18.7861,509.69,508.72
18.8066,509.35,511.37
18.8272,510.48,511.7
18.8476,512.98,513.16
18.8682,512.99,512.53
18.8926,512.39,512.62
18.9131,510.51,510.3
18.9336,508.01,509.44
18.954,508.41,508.75
18.9745,508.93,506.8
18.999,507.54,504.84
19.0195,506.43,504.07
19.04,505.75,504.26
19.0606,506.6,505.41
19.081,509.28,507.92
19.1015,510.42,510.14
19.1261,510.34,513.11
19.1465,509.07,516.09
19.1671,507.26,516.67
19.1876,504.6,517.54
19.208,504.48,517.83
19.2284,503.39,516.46
19.253,503.91,515.17
19.2737,501.93,514.54
19.2941,500.74,511.23
19.3144,501.19,509.18
19.335,502.96,505.95
19.3596,503.76,504.56
19.3801,506.21,503.45
19.4007,508.37,510.36
19.421,509.5,536.69
19.4416,505.4,576.95
19.4619,500.12,610.36
19.4864,493.49,634.69
19.507,483.39,641.95
19.5275,477.92,637.36
19.548,475.53,626.09
19.5685,475.83,614.47
19.5929,476.26,600.78
19.6135,477.01,586.22
19.6341,480.81,573.98
19.6546,482.25,562.38
19.6749,485.4,556.71
19.6955,486.52,553.96
19.7199,489.81,553.97
19.7405,489.45,552.58
19.7611,494.36,530.86
19.7815,505.09,495.29
19.8021,517.67,458.83
19.8263,531.74,427.27
19.8469,541.79,412.01
19.8675,546.03,406.21
19.888,549.03,404.77
19.9084,549.22,407.81
19.9289,545.18,412.25
19.9535,543.54,419.6
19.9738,538.83,425.08
19.9944,535.47,431.86
20.015,534.37,438.49
20.0355,530.5,446.79
20.0598,527,451.83
20.0804,526.6,457.07
20.101,526.48,461.85
20.1215,527.78,467.08
20.1419,527.43,471.07
20.1623,526.14,476.45
20.187,525.71,480.96
20.2075,525.17,486.77
20.2279,524.14,492.02
20.2484,522.11,495.61
20.2689,520.49,499.49
20.2893,519.19,499.39
20.3138,518.55,501.11
20.3343,517.64,501.09
20.3549,516.31,500.47
20.3753,513.85,498.98
20.3959,512.28,497.38
20.4203,509.42,498.91
20.4408,507.74,498.12
20.4613,508.79,498.7
20.4817,507.23,499.56
20.5023,506.39,502.85
20.5228,507.51,507.48
20.5473,506.21,510.58
20.5677,507.97,514.27
20.5882,508.57,516.01
20.6088,509.26,517.01
20.6292,508.01,516.61
20.6538,507.21,514.49
20.6745,505.76,510.79
20.6948,504.81,506.23
20.7152,503.25,503.19
20.7357,503.8,499.95
20.7562,501.24,497.36
20.7808,499.79,498.29
20.8013,500.63,500.03
20.8218,501.31,502.42
20.8422,500.05,507.34
20.8628,498.64,513.67
20.8872,500.11,516.94
20.9077,501.69,520.95
20.9282,503.55,522.36
20.9488,506.24,522.29
20.9692,507.59,521.03
20.9896,509.07,517.82
21.0142,507.46,513.46
21.0348,505.97,509.97
21.0553,506.17,504.97
21.0757,506.34,502.58
21.0962,505.87,500.26
21.1207,505.9,498.21
21.1413,505.92,499.97
21.1617,506.53,503.57
21.1823,507.83,507.06
21.2026,511.06,512.25
21.2231,513.65,516.4
21.2478,514.92,520.52
21.2683,516.14,524.21
21.2886,516.91,525.77
21.3091,515.33,524.62
21.3296,514.66,523.69
21.3541,512.33,518.76
21.3747,509.46,513.8
21.3953,506.77,509.04
21.4156,505.82,505.63
21.4361,503.65,504.91
21.4565,508.32,503.93
21.4811,507.86,505.34
21.5016,507.09,506.87
21.5221,506.47,511.9
21.5426,504.98,515.32
21.5631,505.18,519.25
21.5836,506.54,524.4
21.6083,505.44,526.72
21.6286,505.55,527.98
21.6491,505.44,526.58
21.6696,504.35,522.67
21.69,502.28,517.53
21.7145,502.82,512.23
21.735,503.26,506.38
21.7556,502.41,499.9
21.7761,502.33,496.52
21.7965,502.26,493.42
21.817,503.41,491.34
21.8415,502.73,492.87
21.8621,503.78,497.29
21.8825,505.43,501.84
21.903,506.34,506.67
21.9235,506.67,511.53
21.948,508.74,515.43
21.9685,507.79,518.14
21.9891,507.23,521.11
22.0095,507.59,519.89
22.0301,507.67,517.31
22.0505,504.53,514.05
22.075,504.43,509.64
22.0955,505.34,504.91
22.1163,505.07,500.13
22.1365,505.06,495.7
22.1571,503.85,495.76
22.1815,504.68,519.01
22.2021,503.74,561.61
22.2227,502.99,600.09
22.243,499.2,632.07
22.2635,497.16,648.06
22.284,493.12,647.24
22.3085,492.5,640
22.3291,492.6,626.8
22.3496,495.88,612.84
22.3699,494.7,598.47
22.3905,494.36,584.78
22.4109,493.69,572.42
22.4355,496.35,569.34
22.4561,497.08,580.07
22.4764,495.87,598.26
22.4969,495.29,604.6
22.5176,497.43,589.48
22.5419,499.75,564.79
22.5624,503.8,532.23
22.5829,511.64,493.98
22.6034,523.91,454.39
22.6239,532.73,420.91
22.6445,537.38,402.53
22.6689,538.71,394.22
22.6895,539.36,392.98
22.71,537.69,394.98
22.7305,535.75,398.79
22.7509,532,403.23
22.7753,529.6,406.78
22.7959,525.88,411.83
22.8164,524.11,416.26
22.837,520.68,421.41
22.8575,520.95,427.93
22.8779,520.36,435.54
22.9023,519.49,444.63
22.9229,518.19,455.11
22.9435,518.35,465.69
22.9638,515.28,474.35
22.9843,514.62,482.68
23.0088,514.1,490.34
23.0293,512.28,494.67
23.0499,511.62,498.54
23.0703,509.1,499.43
23.0908,509.68,499.55
23.1113,508.34,500.84
23.1359,506.67,497.87
23.1563,508.54,493.7
23.1769,506.63,490.76
23.1974,508.31,488.8
23.2178,508.24,488.84
23.2423,506.8,491.48
23.2628,506.64,494.58
23.2833,509.11,498.66
23.3038,507.49,503.73
23.3244,506.99,506.99
23.3448,506.79,512.39
23.3693,508.03,513.71
23.3898,509.23,516.17
23.4103,507.38,515.33
23.4308,506.51,513.67
23.4512,505.4,510.13
23.4718,505.52,505.51
23.4963,505.22,501.01
23.5168,503.37,498.8
23.5373,502.7,497.24
23.5578,502.96,494.8
23.5782,503.57,495.64
23.6027,504.85,498.51
23.6233,507.28,501.41
23.6438,512.23,504.93
23.6642,512.58,511.14
23.6847,510.87,515.91
23.7052,511.29,519.13
23.7299,510.43,519.9
23.7503,509.95,518.72
23.7708,509.96,515.78
23.7912,508.77,512.62
23.8117,507.81,508.7
23.8362,505.45,505.56
23.8568,506.56,500.65
23.8772,503.85,498.52
23.8977,503.08,497.21
23.9181,503.66,496.77
23.9386,505.73,498.02
23.9632,506.58,503.41
23.9837,507.87,506.73
24.0043,508.09,509.98
24.0247,509.48,514.39
24.0452,506.38,517.11
24.0696,506.7,518.29
24.0902,506.76,518.23
24.1108,506.41,516.98
24.1312,504.73,513.59
24.1516,503.98,510.67
24.1721,504.19,507.14
24.1966,504.95,502.11
24.2172,503.56,499.49
24.2378,504.05,497.59
24.2582,503.84,497.47
24.2788,506.47,500.18
24.3033,507.18,503.14
24.3239,507.74,506.71
24.3443,508.19,510.97
24.3647,507.35,516.18
24.3851,508.88,520.14
24.4056,508.91,522.11
24.4301,508.73,522.89
24.4506,509.58,522.91
24.4711,508.46,520.33
24.4916,507.97,516.46
24.512,507.78,511.17
24.5365,507.22,505.94
24.5571,506.78,501.15
24.5776,505.22,498.72
24.5981,504.38,497.98
24.6186,506.5,496.98
24.639,507,498.18
24.6636,506.2,502.75
24.6841,505.96,507.4
24.7046,507.97,510.92
24.7251,507.58,514.53
24.7457,507.06,516.63
24.766,506.25,519.5
24.7905,505.4,520.2
24.811,505.32,519.76
24.8315,504.06,516.61
24.852,503.64,511.89
24.8725,502.32,508.11
24.897,500.45,510.09
24.9177,500.76,536.87
24.9381,497.01,574.1
24.9587,492.21,598.28
24.979,487.17,627.62
24.9996,484.13,639.1
25.024,479.91,638.08
25.0445,479.13,629.86
25.065,478.3,620.49
25.0855,481.24,608.59
25.106,484.39,599.47
25.1304,487.11,588.78
25.1511,487.49,577.22
25.1715,489.39,566.18
25.192,491.91,556.54
25.2125,493.93,549.63
25.233,493.75,549.11
25.2575,497.2,562.69
25.278,495.76,578.75
25.2985,500.81,578.8
25.319,509.84,554.84
25.3394,521.08,514.87
25.3639,532.26,472.5
25.3846,543.41,436.2
25.4052,548.53,412.96
25.4254,552.62,401.97
25.446,553.3,398.97
25.4667,552.24,400.58
25.4909,547.59,404.26
25.5114,545.47,409.41
25.532,540.38,413.53
25.5525,535.1,416.62
25.5731,533.08,421.3
25.5934,528.27,423.84
25.6179,525.81,426.47
25.6384,523.85,431.18
25.6589,521.88,437.14
25.6793,520.1,444.31
25.7,520.08,454.25
25.7244,520.67,464.4
25.7449,521.73,475.92
25.7654,520.99,485.74
25.7858,519.19,493.79
25.8064,517.15,498.63
25.8268,513.12,502.71
25.8513,512.9,504.16
25.872,511.92,503.13
25.8923,510.93,500.5
25.9129,508.15,497.4
25.9334,506.92,494.92
25.9578,509.13,492.34
25.9783,510.11,490.87
25.9988,508.29,490.3
26.0194,508.23,492.44
26.0398,510.38,495.75
26.0605,512.31,500.8
26.0848,512.45,505.44
26.1054,511.96,509.55
26.1258,514.56,515.24
26.1463,516.45,517.39
26.167,515.56,519.91
26.1912,514.45,519.73
26.2118,512.76,517.59
26.2323,510.01,513.27
26.2529,510.01,508.61
26.2734,509.4,504.09
26.2939,506.12,498.87
26.3183,506.5,494.5
26.3388,506.8,491.6
26.3593,508.64,491.08
26.3798,507.11,493.46
26.4003,508.29,498.97
26.4247,508.83,502.98
26.4455,509.07,507.98
26.4658,508.05,512.79
26.4862,509.04,516.83
26.5068,507.83,518.46
26.5272,508.27,520.57
26.5517,506.41,520.06
26.5723,504.33,516.84
26.5928,504.66,514.08
26.6133,506.33,509.06
26.6337,505.87,504.25
26.6542,506.09,499.6
26.6788,505.87,497.08
26.6993,506.1,496.06
26.7197,506.08,496.85
26.7402,505.86,500.48
26.7607,507.49,503.58
26.7853,508.79,508.07
26.8057,509.03,511.85
26.8262,509.63,515.68
26.8467,510.7,517.35
26.8672,510.56,519.48
26.8878,509.05,518.38
26.9122,509.84,516.71
26.9327,508.07,513.56
26.9532,506.86,509.25
26.9736,506.09,504.8
26.9941,505.87,502.04
27.0187,505.89,498.63
27.0392,505.92,496.91
27.0598,507.13,497.13
27.0801,506.91,499.9
27.1007,509.13,503.12
27.1211,509.3,507.7
27.1456,510.84,512.56
27.1662,511.47,515.65
27.1866,511.58,518.32
27.2072,513.06,519.45
27.2276,510.85,519.56
27.252,509.88,517.65
27.2726,509.1,516.32
27.2931,508.08,510.66
27.3136,506.67,505.92
27.3341,507.53,500.74
27.3547,506.03,497.19
27.379,505.82,495.35
27.3996,506.06,494.68
27.4202,506.85,497.35
27.4407,507.28,499.48
27.461,508.02,503.78
27.4816,509.82,508.23
27.5061,512.45,512.78
27.5266,512.56,516.62
27.5471,510.45,518.7
27.5677,510.96,520.56
27.588,511.57,521.25
27.6125,508.85,517.8
27.6331,508.08,515.24
27.6539,507.07,511.19
27.674,507.05,509.75
27.6945,509.44,523.2
27.715,507.95,547.76
27.7395,506.56,574.81
27.76,502.05,591.85
27.7805,499.24,620.28
27.8011,497.39,649.62
27.8215,493.71,658.9
27.8461,490.97,655.92
27.8667,489.38,645.73
27.887,489.5,630.99
27.9075,491,618.19
27.9281,491.8,604.75
27.9486,492.24,588.6
27.973,491.99,575.88
27.9936,492.19,562.71
28.014,495.16,549.56
28.0345,495.52,541.25
28.0551,495.62,546
28.0795,495.1,564
28.1,497.88,583.4
28.1206,501.3,596.72
28.1411,502.44,594.18
28.1616,508.15,568.54
28.182,517.72,524.23
28.2064,528.18,472.39
28.2271,536.34,422.91
28.2475,539.67,390.73
28.268,540.94,372.98
28.2884,540.15,363.59
28.3089,538.32,358.47
28.3335,536.06,359.77
28.354,533.05,363.82
28.3744,531.04,370.46
28.395,527.83,378.36
28.4155,526.06,389.29
28.4399,523.05,399.83
28.4604,521.64,411.67
28.4809,521.31,423.93
28.5014,520.65,437.75
28.5219,519.92,450.2
28.5426,517.34,461.76
28.5669,514.67,471.81
28.5876,513.73,481.05
28.6079,515.19,487.04
28.6285,514.35,491.43
28.649,511.88,493.34
28.6735,511.9,492.67
28.6939,509.92,491.54
28.7144,507.94,489.43
28.7349,506.75,488.15
28.7555,505.4,488.72
28.7761,505.12,487.57
28.8004,505.7,489.06
28.8209,505.36,492.45
28.8413,508.89,496.56
28.8619,508.31,502.25
28.8825,510.85,507
28.9068,511.28,512
28.9273,512.62,515
28.9478,510.5,519.8
28.9684,512.4,520.44
28.9889,507.12,518.95
29.0094,504.69,515.36
29.0338,504.76,510.69
29.0544,503.8,506.55
29.0749,503.04,501.44
29.0953,504.04,497.35
29.1158,504.83,496.48
29.1362,507.46,495.79
29.1608,507.57,496.43
29.1815,507.86,498.74
29.2019,509.48,502.39
29.2223,510.39,507.52
29.2428,511.31,512.01
29.2673,511.65,516.61
29.2878,508.92,519.49
29.3083,508.73,521.19
29.3289,508.79,520.75
29.3492,508.83,517.2
29.3697,509.66,513.36
29.3943,508.53,507.89
29.4148,507.43,504.51
29.4353,509.74,499.41
29.456,507.59,497.93
29.4764,509.87,494.74
29.5008,510.9,494.99
29.5213,511.12,498.59
29.5418,511.1,502.48
29.5623,510.48,505.98
29.5827,512.18,511.58
29.6032,512.54,515.87
29.6277,511.44,519.49
29.6483,510.75,520.2
29.6688,510.2,520.36
29.6892,507.36,518.48
29.7097,506.49,514.79
29.7342,505.39,509.63
29.7547,506.71,505.1
29.7752,507.17,501.28
29.7957,506.94,498.03
29.8161,506.95,496.62
29.8366,506.36,495.7
29.8611,507.89,498.36
29.8817,507.91,503.09
29.9022,508.73,506.87
29.9231,508.78,511.1
29.9431,510.03,518.68
29.9677,510.42,522.54
29.9881,510.74,523.43
30.0087,509.39,523.95
30.0292,506.51,521.76
30.0496,506.01,517.81
30.0702,504.41,513.44
30.0947,502.33,508.96
30.1151,500.26,503.96
30.1356,503.21,499.97
30.1562,505.57,496.98
30.1766,510.65,494.98
30.1971,511.72,495.79
30.2216,513.78,498.83
30.2421,514.62,503.86
30.2627,516.5,507.49
30.2831,516,513.99
30.3036,515.8,516.19
30.3281,514.64,518.95
30.3487,514.11,520.36
30.3693,512.29,520.09
30.3896,511.83,517.67
30.4101,511.67,514.34
30.4306,509.33,509.87
30.4551,507.27,507.1
30.4758,508.41,521.48
30.4962,503.93,557.18
30.5165,498.34,588.55
30.537,489.28,618.84
30.5615,482.02,640.07
30.5821,476.42,644.46
30.6025,472.73,640.16
30.623,473.99,632.93
30.6435,474.19,622.55
30.664,476.15,610.24
30.6887,479.72,598.59
30.709,481.38,585.67
30.7295,484.1,576.14
30.75,486.88,568.11
30.7705,487.5,571.49
30.7951,488,584.19
30.8155,490,602.35
30.8362,489.8,608.88
30.8564,493.84,594.91
30.8769,500.67,560.52
30.8975,509.14,515.82
30.9219,519.11,466.46
30.9425,529.29,422.96
30.963,537.23,394.17
30.9834,543.38,379.74
31.004,545.31,377.19
31.0284,547.05,381.95
31.0489,544.04,385.76
31.0695,540.83,391.81
31.09,538.66,399.45
31.1104,535.53,408.56
31.1309,531.42,415.25
31.1553,529.54,421.2
31.176,526.83,427.36
31.1964,525.47,433.49
31.217,524.37,441.99
31.2374,520.9,451.59
31.2618,520.32,460.47
31.2824,521.05,469.58
31.3029,523.64,480.86
31.3234,522.72,489.89
31.3439,522.57,496.31
31.3644,518.06,502.05
31.3889,516.85,508.44
31.4094,514.88,510.75
31.43,513.5,509.6
31.4504,511.6,508.28
31.4708,508.88,504.42
31.4913,504.1,500.74
31.5159,503.48,498.39
31.5364,504.79,494.11
31.5569,507.03,492.89
31.5775,509.42,497.31
31.5978,509.74,516.05
31.6226,504.59,553.04
31.6429,497.27,592.63
31.6634,489.82,622.51
31.6839,480.85,630.8
31.7043,477.88,630.84
31.7249,478.71,620.87
31.7493,477.97,610.3
31.7699,479.37,598.04
31.7903,479.9,585.23
31.8108,479.12,573.59
31.8312,481.49,563.07
31.8559,484,556.85
31.8763,486.6,558.08
31.8969,490.28,560.67
31.9173,490.02,548.13
31.9378,493.42,518.71
31.9584,500.13,485.37
31.9828,511.91,453.29
32.0033,522.93,433.03
32.0238,530.94,425.23
32.0444,535.75,423.78
32.0647,538.4,425.03
32.0892,538.12,428.62
32.1099,537.7,432.7
32.1303,536.56,435.56
32.1507,532.85,439.85
32.1712,532.28,443.88
32.1918,529.02,444.9
32.2163,524.42,447.92
32.2367,520.93,451.74
32.2572,517.55,454.99
32.2778,519.04,461.19
32.2982,519.23,468.95
32.3189,519.38,477.76
32.3434,518.71,485.21
32.3638,516.37,491.57
32.3842,517.09,497.45
32.4047,518.07,503.56
32.4252,515.46,507.25
32.4497,513.97,509.2
32.4703,512.37,508.96
32.4907,512.5,505.57
32.5113,511,502.65
32.5317,511,498.32
32.5522,508.8,493.26
32.5768,508.44,492.01
32.5972,509.55,492.21
32.6177,508.24,493.16
32.6382,509.79,496.73
32.6588,511.63,501.19
32.6831,512.11,506.75
32.7037,510.69,512
32.7242,510.75,516
32.7447,512,519.6
32.7652,511,521.48
32.7856,510.6,521.38
32.8101,509.28,519.51
32.8309,507.82,517.61
32.8512,507.66,514.08
32.8717,507.53,508.67
32.8922,506.02,505.53
32.9167,507.02,501.03
32.9372,507.21,499.82
32.9578,510.17,499.26
32.9782,509.14,501.41
32.9986,507.71,505.32
33.0191,507.57,508.46
33.0436,510.25,513.97
33.0642,512,518.17
33.0846,512,520.34
33.1052,512.8,522.07
33.1259,512.24,522.06
33.1462,511.99,520.65
33.1706,510.99,517.92
33.1912,508.8,514.13
33.2117,505.04,508.71
33.2321,506.23,504.77
33.2527,504.58,501.21
33.2772,504.67,498.17
33.2976,502.13,497.34
33.3181,502.31,498.87
33.3385,502.25,500.09
33.359,504.6,502.68
33.3795,506.28,510.34
33.404,504.82,535.47
33.4246,503.06,568.78
33.445,496.85,594.82
33.4657,485.68,604.26
33.4863,481.74,601.61
33.5106,476.99,592.29
33.531,473.59,581.63
33.5515,471.88,571.1
33.5721,473.3,560.08
33.5926,473.84,549.47
33.6129,476.67,540.57
33.6376,478.14,530.86
33.6581,483.11,517.89
33.6785,492.69,510.11
33.699,497.35,506.09
33.7195,502.08,505.67
33.7442,507.86,507.74
33.7645,510.49,510.59
33.785,514.19,513.47
33.8056,516.15,514.58
33.8261,516.92,514.66
33.8464,513.94,505.73
33.8709,513.15,486.38
33.8915,517.52,466.51
33.9119,523.02,452.41
33.9324,524.81,444.32
33.9529,524.25,442.06
33.9774,523,441.05
33.9979,523.6,444.04
34.0185,524.28,448.83
34.0389,524.02,457.86
34.0594,523.02,465.89
34.0799,521.62,472.51
34.1044,523.09,479.61
34.125,525.67,484.89
34.1455,527.94,488.11
34.1661,528.15,490.69
34.1864,525.52,490.75
34.2069,524.22,490.4
34.2315,522.17,488.32
34.252,520.34,486.46
34.2724,518.07,485.57
34.2929,516.06,484.05
34.3135,515.05,483.24
34.3379,516.04,485.59
34.3584,514.83,488.67
34.3789,516.06,493.14
34.3994,515.85,498.31
34.4198,517.88,504.45
34.4403,516.9,509.56
34.4648,515.72,515.45
34.4854,515.18,517.76
34.5061,514.74,518.21
34.5263,516.39,519.17
34.5468,515.32,517.73
34.5713,514.65,514.39
34.5919,512.72,511.31
34.6124,510.78,506.45
34.6329,508.82,502.96
34.6534,508.26,497.37
34.6739,506.21,496.69
34.6983,506.56,497.15
34.7189,506.85,498.52
34.7393,508.28,502.22
34.7599,509.63,506.97
34.7804,508.5,511.18
34.8047,508.6,515.74
34.8253,507.48,520
34.8459,508.18,521.4
34.8663,507.55,523.72
34.8869,508.84,520.97
34.9072,507.47,515.98
34.9318,505.58,512.58
34.9525,505.26,508.47
34.9728,504.01,502.77
34.9934,502.21,498.22
35.0139,503.57,495.37
35.0382,505.65,496.7
35.0588,506.32,514.56
35.0793,503.46,548.65
35.0998,496.37,581.32
35.1203,485.89,600.25
35.1407,480.31,607.4
35.1653,476.05,606.12
35.1858,474.44,602.3
35.2062,474.15,595.64
35.2269,474.72,587.31
35.2473,477.78,578.25
35.2677,482.82,567.2
35.2922,485.46,559.96
35.3127,485.97,550.17
35.3332,487.17,542.33
35.3537,491.14,541.47
35.3743,491.91,545.37
35.3987,496.53,546.3
35.4192,504.22,528.64
35.4397,518.38,495.51
35.4603,530.3,468.81
35.4807,539.44,452.85
35.5011,546.35,442.08
35.5258,547.08,438.66
35.5463,547.07,438.53
35.5667,545.45,439.82
35.5872,542.96,441.26
35.6078,537.57,443.61
35.6323,531.26,445.29
35.6526,526.4,445.03
35.6733,523.92,445.22
35.6938,521.74,447.18
35.7142,520.19,453.14
35.7347,519.95,458.71
35.7591,518.76,466.37
35.7797,517.41,473.7
35.8001,516.93,481.56
35.8206,515.14,491.45
35.8413,514.71,499.36
35.8656,515.37,505.69
35.8861,516.5,509.15
35.9066,516.4,511.92
35.9271,514.92,511.94
35.9477,513.93,509.95
35.9682,511.95,507.56
35.9926,510.56,504.45
36.0132,508.65,500.56
36.0336,508.92,496.65
36.0541,505.53,495.92
36.0748,505.83,496.73
36.099,506.06,497.59
36.1196,506.45,500.87
36.1401,509.16,506.5
36.1607,511.13,511
36.1811,513.3,515.2
36.2015,512.24,519.76
36.2262,511.79,521.21
36.2465,511.23,521.36
36.2671,508.99,519.69
36.2875,509.39,517.75
36.3081,508.71,513.8
36.3326,506.57,508.44
36.3531,508.26,502.35
36.3736,509.2,498.28
36.394,507.16,496.63
36.4146,506.93,497.3
36.435,506.74,499.84
36.4596,507.6,502.27
36.48,507.68,505.62
36.5007,508.54,510.69
36.521,509.83,515.56
36.5415,512.87,519.64
36.5619,511.49,520.52
36.5865,511.19,521.21
36.607,511.16,520.37
36.6275,508.92,517.7
36.648,508.74,513.96
36.6685,506.19,509.77
36.6929,505.55,504.41
36.7135,507.64,498.73
36.734,506.91,501.78
36.7545,507.13,521.63
36.7751,502.51,549.7
36.7954,496.4,574.56
36.82,489.72,586.05
36.8405,483.38,589.24
36.861,479.3,588.19
36.8815,481.04,583.15
36.9019,483.83,578.92
36.9264,486.07,571.54
36.947,487.25,565.63
36.9675,486.4,555.7
36.9879,485.32,548.16
37.0084,486.26,539.53
37.0289,487.21,532.02
37.0534,489.97,524.22
37.0739,490.77,517.58
37.0944,491.22,514.66
37.1149,494.57,516.33
37.1354,497.46,520.66
37.1599,500.57,520.33
37.1805,507.85,509.46
37.2011,518.68,489.97
37.2215,532.95,473.38
37.2421,539.96,462.3
37.2624,543.97,454.04
37.2869,543.97,450.23
37.3074,546.58,449.59
37.328,544.46,447.47
37.3484,542.97,446.98
37.3689,538.58,445.38
37.3933,533.86,444.9
37.414,530.69,445.92
37.4345,526.35,449.94
37.4549,524.88,454.55
37.4756,522.7,459.44
37.4958,522.76,467.15
37.5204,522.01,475.92
37.5411,519.81,484.34
37.5614,519.85,493.87
37.5819,519.68,501.1
37.6023,518.94,507.28
37.6228,517.55,510.02
37.6473,519.04,511.62
37.6679,516.63,510.69
37.6883,512.71,510.36
37.7088,512.17,508.28
37.7293,512.73,503.23
37.7538,511.39,500.18
37.7743,511.91,497.15
37.7949,510.33,496.72
37.8154,510.06,497.37
37.8358,508.85,499.9
37.8564,511.48,504.32
37.8807,510.98,508.46
37.9013,510.99,511.96
37.9219,509.99,516.37
37.9422,510.79,518.9
37.9628,512.63,520.72
37.9873,510.71,520.17
38.0079,511.17,519.34
38.0283,508.33,514.67
38.0488,506.87,510.54
38.0693,505.89,505.63
38.0897,505.71,500.5
38.1143,505.57,496.8
38.1348,506.06,496.44
38.1553,507.25,494.95
38.1758,506,498.16
38.1963,505.4,501.73
38.2206,505.72,505.38
38.2413,508.17,509.71
38.2618,509.94,515.97
38.2823,510.75,519.17
38.3027,510.8,520.94
38.3233,511.04,521.15
38.3477,508.03,519.52
38.3682,506.23,515.62
38.3887,506.38,513.09
38.4093,506.9,508.87
38.4297,505.92,510.7
38.4541,504.14,524.16
38.4748,495.71,542.53
38.4952,484.17,561.22
38.5157,474.54,571.38
38.5362,466.23,572.1
38.5567,465.18,568.88
38.5811,467.55,565.71
38.6018,470.44,561.16
38.6223,473.95,558.13
38.6427,474.56,554.51
38.6631,477.65,548.6
38.6836,480.72,542.48
38.7082,481.37,536.39
38.7287,484.1,531.31
38.7492,484.88,522.85
38.7696,485.9,516.28
38.7901,489.32,511.82
38.8146,492.26,509.86
38.8351,494.41,510.29
38.8556,495.93,510.03
38.8762,505.34,504.82
38.8966,519.47,504.06
38.9171,530.98,503.85
38.9416,536.58,503.48
38.9621,538.87,506.78
38.9826,539.09,508.83
39.0031,538.67,504.86
39.0236,540.54,489.69
39.0481,543.63,475.75
39.0686,542.91,464.4
39.0891,540.32,456.72
39.1096,535.86,450.98
39.1301,533.69,445.98
39.1505,530.55,444.58
39.175,531.24,445.67
39.1956,529.79,448.33
39.2162,526.63,454.07
39.2365,526.11,462.05
39.257,523.09,470.84
39.2815,523.67,477.67
39.302,523.13,485.34
39.3226,521.31,492.07
39.343,519.45,496.46
39.3635,519.36,498.37
39.3841,519.69,498.09
39.4085,520.55,496.87
39.4291,518.24,494.3
39.4495,516.39,491.64
39.47,515.51,488.11
39.4905,514.41,486.89
39.5152,512.73,486.91
39.5355,511.38,487.33
39.5562,512.51,490.86
39.5765,513,495.09
39.597,512.4,501.47
39.6175,512.32,506.78
39.6421,510.46,510.82
39.6625,510.37,514.86
39.683,511.49,517.29
39.7034,511.39,517.63
39.724,510.12,517.3
39.7485,508.29,514.84
39.7689,505.63,511.47
39.7894,504.91,506.38
39.8101,504.73,502.1
39.8306,504.38,498.68
39.851,505.5,496.35
39.8756,505.6,497.68
39.896,507.88,499.14
39.9164,505.91,502.91
39.9369,505.53,507.13
39.9574,506.42,511.1
39.978,507.74,515.68
40.0025,507.79,520.35
40.023,509.03,521.48
40.0434,508.42,523.78
40.0639,507.54,522.23
40.0844,505.43,518.98
40.1089,505.15,515.58
40.1294,504.92,510.47
40.1499,505.93,505.37
40.1704,505.55,507.3
40.191,504.44,524.64
40.2113,495.55,547.71
40.2359,482.84,563.97
40.2564,470.47,571.58
40.2769,467.38,572.86
40.2974,466.9,572.29
40.3178,467.92,570.63
40.3424,470.94,567.7
40.363,473.35,564.36
40.3834,474.68,562.29
40.4039,477.54,555.43
40.4244,481.24,548.55
40.4448,483.59,542.04
40.4693,485.87,534.43
40.4899,489.3,528.14
40.5104,490.04,520.71
40.5309,492.23,515.17
40.5513,492.98,512.34
40.5758,494.59,511.07
40.5963,494.87,510.06
40.6168,500.5,504.64
40.6374,506.6,493.72
40.6578,516.88,480.57
40.6784,525.7,473.66
40.7028,531.76,471.73
40.7234,534.01,470.78
40.7438,533.81,470.03
40.7643,533.65,470.22
40.7848,532.72,468.18
40.8092,530.97,466.74
40.8298,529.78,465.19
40.8503,526.62,463.95
40.8708,522.7,462.16
40.8914,527.76,461.93
40.9118,534.01,463.94
40.9362,537.41,467.56
40.9567,538.52,473.44
40.9772,538.02,479.76
40.9978,537.22,488.2
41.0182,536.37,495.96
41.0387,532.7,500.97
41.0633,531.56,504.78
41.0838,527.45,507.42
41.1042,525.36,506.74
41.1247,521.89,505.19
41.1452,518.91,503.15
41.1697,517.53,501.52
41.1903,515.42,497.22
41.2107,513.74,493.77
41.2312,511.39,492.42
41.2517,511.31,493.94
41.2722,509.85,495.95
41.2968,510.68,500.36
41.3172,509.54,504.89
41.3377,510.23,510.51
41.3583,510.99,515.01
41.3787,511.19,518.01
41.4032,510.95,520.8
41.4237,510.76,521.84
41.4442,510.61,520.28
41.4647,507.69,519.02
41.4851,508.35,516.02
41.5058,508.88,512.01
41.5301,507.1,507.01
41.5508,507.68,502.21
41.5711,508.95,500.57
41.5917,507.36,501.25
41.6121,506.49,502.2
41.6366,508.99,505.16
41.6571,508.39,510.73
41.6777,510.31,516.38
41.6981,510.05,520.51
41.7187,509.24,523.41
41.7393,509.59,525.92
41.7636,509.67,526.54
41.7842,508.74,526.03
41.8047,508.39,522.23
41.8252,506.31,517.98
41.8456,505.85,512.78
41.8701,504.88,507.83
41.8906,504.7,502.46
41.9111,503.96,499.77
41.9316,504.37,499.42
41.9521,504.1,498.93
41.9726,505.48,501.55
41.9971,506.78,504.04
42.0177,508.83,507.43
42.0382,511.06,511.14
42.0587,511.85,514.91
42.0791,512.68,517.93
42.0995,510.14,519.95
42.1242,509.71,519.56
42.1447,509.37,518.05
42.1651,506.7,515.04
42.1855,505.76,510.83
42.2062,505.41,506.66
42.2305,504.52,501.33
42.2512,503.82,497.66
42.2716,504.66,496.73
42.292,505.52,495.79
42.3126,505.42,498.03
42.333,507.74,502.42
42.3576,507.79,506.14
42.3781,510.23,511.91
42.3985,509.78,515.53
42.4191,511.43,519.42
42.4394,509.14,523.14
42.464,507.31,538.91
42.4846,505.25,564.53
42.505,499.6,593.62
42.5256,492.48,607.7
42.5461,487.18,605.16
42.5665,482.15,595.73
42.591,479.12,584.78
42.6115,480.09,572.03
42.632,480.28,561.42
42.6526,483.22,554.74
42.6729,487.78,551.99
42.6974,489.22,549.59
42.718,489.78,549.47
42.7386,491.02,549.38
42.759,493.42,540.1
42.7795,498.13,521.28
42.7999,501.91,503.63
42.8244,507.53,491.5
42.845,508.82,483.2
42.8654,511.06,476.96
42.8861,512.05,470.57
42.9064,513.44,467.85
42.9309,512.35,464.88
42.9515,511.08,464.11
42.972,510.06,465.29
42.9925,510.25,469.03
43.0129,511.4,473.62
43.0335,511.12,481.7
43.0579,510.9,487.76
43.0784,509.92,494.61
43.099,510.53,501.49
43.1195,511.83,505.99
43.1399,511.46,506.79
43.1604,511.77,508.03
43.1848,509.42,507.43
43.2054,508.33,505.94
43.2259,508.67,501.95
43.2463,509.13,499.36
43.267,505.91,489.09
43.2914,509.92,474.07
43.3119,517.94,464.06
43.3325,523.55,460.05
43.3529,526.24,461.64
43.3733,526.39,465.31
43.3939,526.71,471.45
43.4184,528.17,478.36
43.4389,525.94,484.69
43.4595,526.95,490.55
43.4799,524.96,494.24
43.5003,520.77,497.39
43.5248,516.61,498.71
43.5453,515.29,497.57
43.5658,515.43,496.06
43.5863,515.55,493.45
43.6068,513.24,490.16
43.6273,509.99,487.92
43.652,508.59,487.34
43.6724,509.07,489.27
43.6928,510.06,492.22
43.7133,509.45,498.17
43.7338,508.96,502.74
43.7582,508.17,507.39
43.7789,510.33,513.11
43.7994,511.67,516.69
43.8198,510.33,517.75
43.8403,510.47,519
43.8607,508.97,518.2
43.8854,507.78,515.96
43.9059,507.42,512.17
43.9264,506.54,507.74
43.9468,505.83,503.39
43.9673,507.06,498.91
43.9919,507.65,497.33
44.0122,507.72,496.06
44.0327,504.98,498.45
44.0532,506.18,503.56
44.0737,507.35,507.85
44.0942,509.48,512.08
44.1187,510.38,517.46
44.1393,511.3,523.17
44.1597,509.84,534.34
44.1802,505.68,548.87
44.2007,499.94,567.3
44.2211,489.75,578.64
44.2457,481.4,578.51
44.2663,478.72,570.21
44.2868,475.78,557.97
44.3072,475.02,548.57
44.3277,476.82,549.06
44.3522,479.05,553.85
44.3727,480.24,554.08
44.3932,483.99,553.46
44.4137,486.6,551.97
44.4342,488.28,550.58
44.4546,490.22,549.66
44.4792,494.18,548.93
44.4997,496.14,547.34
44.5202,498.11,545.27
44.5407,499.49,540.22
44.5611,500.39,537.78
44.5857,500.91,536.42
44.6063,501.93,537.74
44.6268,502.15,544.79
44.6472,503.92,550.43
44.6679,506.93,542.34
44.6882,515.15,518.68
44.7127,523.12,491.94
44.7332,530.89,470.95
44.7536,537.11,458.76
44.7742,538.89,452.41
44.7947,540.51,451.93
44.8191,539.01,454.74
44.8396,537.21,458.19
44.8601,534.77,462.16
44.8806,532.41,464.12
44.9011,531.73,466.5
44.9217,527.18,465.2
44.9462,527.35,464.96
44.9666,525.68,463.57
44.987,525.34,462.85
45.0076,523.87,463.28
45.0281,522.5,465.63
45.0526,518.8,471.3
45.0732,518.04,476.64
45.0937,518.83,481.11
45.1141,519.07,487.89
45.1346,518.45,494.11
45.1552,516.96,500.29
45.1795,517.37,506.83
45.2001,517.7,510.47
45.2206,512.96,511.97
45.241,513.57,511.78
45.2616,514.45,509.02
45.2862,513.36,505.82
45.3065,509.49,501.85
45.3272,505.79,496.68
45.3476,505.03,494.15
45.368,506.23,494.12
45.3885,509.98,493.69
45.413,509.99,496.76
45.4335,510.19,500.8
45.454,511.55,504.44
45.4745,512.04,508.35
45.495,511.83,512.08
45.5154,510.67,515.27
45.5399,510.93,517.01
45.5605,510.35,518.61
45.5811,508.88,517.69
45.6015,506.3,514.75
45.6221,504.24,511.4
45.6466,504.19,508.32
45.667,505.75,503.46
45.6877,504.8,499.37
45.708,504.84,497.49
45.7284,505.67,495.59
45.749,505.54,499.08
45.7735,506.03,502.06
45.794,506.43,505.65
45.8144,507.14,509.12
45.8349,508.31,513.69
45.8554,509.65,516.96
45.8799,510.92,518.36
45.9005,510.94,520.29
45.9212,510.15,518.83
45.9414,508.92,516.27
45.962,509.34,512.21
45.9824,510.27,507.17
46.0069,505.21,502.74
46.0275,505.97,499.19
46.0479,506.18,496.55
46.0685,508.14,496.24
46.089,510.31,495.19
46.1134,510.25,496.55
46.1339,509.8,501.24
46.1545,512.24,505.19
46.1749,512.19,510.76
46.1956,510.95,514.4
46.2158,511.36,518.32
46.2404,511.09,519.46
46.2609,511.47,518.97
46.2814,508.38,515.57
46.302,508.7,511.86
46.3226,507.16,508.29
46.3468,505.73,503.63
46.3673,507.38,504.9
46.3879,512.71,517.32
46.4084,515.97,543.66
46.4288,517.17,571.73
46.4493,516.34,595.98
46.4738,515.47,608.39
46.4943,512.98,609.91
46.5148,511.38,605.13
46.5355,507.5,598.3
46.556,506.2,592.64
46.5762,503.96,584.11
46.6009,497.37,574.09
46.6215,490.5,563.07
46.642,486.6,552.26
46.6624,483.48,540.81
46.6828,480.98,531.65
46.7072,481.59,524.52
46.7278,482.47,516.41
46.7484,488.17,503.33
46.7688,498.54,481.06
46.7892,511.03,456.05
46.8097,519.23,440.24
46.8342,522.38,434.19
46.8548,527.1,434.75
46.8753,528.68,439
46.8958,530.35,444
46.9163,529.68,448.6
46.9407,526.94,454.08
46.9612,525.75,457.07
46.9818,524.2,460.45
47.0023,521.16,461.56
47.0227,520.93,460.85
47.0432,520.14,459.88
47.0677,516.32,460.9
47.0882,515.05,462.32
47.1087,515.24,465.66
47.1293,515.19,470.93
47.1497,515.15,477.74
47.1742,516.32,486.19
47.1947,516.46,492.75
47.2153,513.97,497.8
47.2358,513.57,505.04
47.2561,513.86,514.43
47.2766,505.29,522.35
47.3012,491.23,524.48
47.3218,480.98,521.58
47.3422,477.39,519.27
47.3627,474.31,513.41
47.3832,474.65,506.13
47.4076,476.72,500.3
47.4281,480.17,496.64
47.4488,485.94,496.11
47.4691,489.95,496.89
47.4898,493.36,498.51
47.5101,495.49,500.21
47.5346,501.79,502.97
47.5551,508.83,506.97
47.5757,513.67,507.18
47.5961,511.93,507.34
47.6166,510.75,507.48
47.6371,509.8,505.58
47.6617,509.24,504.26
47.6821,508.19,501.81
47.7028,506.35,497.05
47.7231,506.08,492.84
47.7436,505.07,489.87
47.7681,504.45,488.3
47.7886,507.36,488.24
47.8091,508.09,488.99
47.8296,509.27,492.59
47.8501,510.62,498.67
47.8706,512.49,503.14
47.895,514.4,507.71
47.9156,513.72,512.17
47.9361,512.97,514.94
47.9565,512.58,517.15
47.9771,512.86,517.32
48.0015,512.49,515.25
48.0221,513.39,512.4
48.0426,510.71,508.52
48.0631,509.77,503.62
48.0835,510.62,500.69
48.104,510.09,497.76
48.1286,508.47,495.4
48.1492,506.98,495.52
48.1695,505.78,499.22
48.19,506.83,503.38
48.2105,506.86,509.3
48.2349,509.69,514.04
48.2555,510.35,517.03
48.2761,510.28,518.23
48.2965,509.22,519.38
48.3171,507.58,519.3
48.3376,506.46,518.44
48.3621,505.17,514.75
48.3826,505.54,510.8
48.403,505.03,507.04
48.4235,502.82,503.43
48.444,503.26,498.75
48.4685,504.41,498
48.489,503.33,497.4
48.5095,502.86,499.12
48.53,501.09,502.9
48.5505,502.87,508.12
48.571,505.7,511.29
48.5955,506.76,515.23
48.616,510.21,518.19
48.6365,511.36,519.95
48.657,511.49,519.96
48.6774,510.39,518.97
48.6979,508.31,515.97
48.7225,506.85,512.58
48.743,506.68,509.06
48.7634,506.35,505.25
48.7839,505.28,500.8
48.8044,506.62,497.84
48.829,506.7,496.87
48.8494,506.76,498.5
48.8699,508.61,502
48.8904,510.08,505.4
48.9109,511.47,510.92
48.9314,510.77,513.74
48.9559,509.82,513.19
48.9765,510.26,511.15
48.997,508.8,510.52
49.0175,508.64,509.62
49.0379,507.91,507.49
49.0625,508.33,506.59
49.083,507.67,503.28
49.1035,505.73,500.02
49.1238,505.79,497.02
49.1443,505.63,496.21
49.1648,511.7,496.57
49.1894,521.36,4.02835e-29
