Program Time [s],data 0,data 1
6.15512,511.84,513.44
6.17552,513.07,514.35
6.20011,513.46,515.88
6.22056,513.37,515.51
6.24104,510.69,514.4
6.26152,510.15,512.52
6.28204,509.32,510.82
6.30654,509.66,507.06
6.32708,508.13,504.24
6.34756,507.7,502.4
6.36808,506.16,500.52
6.38857,506.93,499.41
6.40901,507.54,498.93
6.4335,509.83,500.54
6.45402,509.47,503.84
6.47458,508.37,507.47
6.49502,509.5,511.37
6.51548,509.2,513.1
6.53999,508.36,514.08
6.56053,508.69,513.86
6.58106,508.55,511.09
6.60149,507.64,508.27
6.62203,506.11,505.02
6.64255,504.09,501.41
6.667,499.47,496.93
6.68756,496.58,492.75
6.70796,494.66,491
6.72848,493.93,490.8
6.74897,494.74,492.04
6.76948,496.39,494.63
6.79409,497.92,497.1
6.81446,498.53,500.48
6.83497,499.63,503.59
6.8555,501.1,507.07
6.87596,502.28,509.26
6.90051,503.22,511.4
6.92101,501.98,511.72
6.94151,502.98,511.18
6.96193,503.19,508.54
6.98247,503.15,505.83
7.00286,502.52,502.67
7.02749,501.82,500.33
7.04801,503.65,498.27
7.06849,504.12,497.61
7.08891,503.9,498.49
7.10943,505.72,501.79
7.13394,505.97,503.43
7.15453,507.18,505.95
7.17489,509.94,508.16
7.19539,509.95,510.13
7.21595,509.16,511.5
7.23641,509.73,512.6
7.26089,508.78,513.08
7.28143,507.43,511.86
7.30186,503.94,508.09
7.32244,503.35,503.27
7.34296,503.08,500.62
7.36731,503.47,498.09
7.38794,503.17,495.88
7.40841,504.94,494.7
7.42889,506.95,494.76
7.44939,508.16,495.61
7.46988,507.73,498.09
7.49432,509.18,500.87
7.5149,508.95,504.1
7.53533,509.36,507.68
7.55588,509.49,510.34
7.57637,506.59,511.47
7.59686,505.87,511.38
7.62139,504.5,510.7
7.64182,502.8,508.16
7.66237,501.84,505.13
7.68278,502.67,502.5
7.70328,504.54,499.8
7.72783,503.83,497.24
7.74849,504.66,496.99
7.76903,505.93,497.6
7.78931,506.54,499.68
7.80983,506.64,501.54
7.8303,507.31,504.83
7.85492,507.45,507.47
7.87534,507.76,511.17
7.89581,506.61,513.94
7.91636,508.28,514.95
7.9369,509.03,515.56
7.96126,509.02,514.45
7.98181,507.22,512.36
8.00232,506.57,509.49
8.02282,506.46,505.99
8.04321,506.97,504.39
8.06373,506.57,501.51
8.08823,506.86,500.01
8.10877,507.69,499.61
8.12931,508.35,501.09
8.14976,509.28,514.67
8.17022,511.42,544.34
8.19468,514.94,576.47
8.21521,518.75,598.97
8.23581,519.8,608.18
8.2563,522.04,604.74
8.27678,521.43,595.2
8.29725,519.15,582.16
8.32173,518.12,568.52
8.34225,515.49,556.02
8.3627,513.59,544.02
8.3835,511.88,533.41
8.40377,511.3,524.33
8.42815,511.24,518.66
8.4487,511.79,515.73
8.46925,512.43,514.79
8.48966,509.55,517.23
8.51016,512.84,517.98
8.53063,512.47,505.59
8.55512,517.58,484.47
8.57565,519.86,462.78
8.59623,519.69,450.02
8.61663,518.95,443.82
8.63711,519.56,442.45
8.65758,517.45,441.56
8.68213,516.56,442.85
8.70273,514.05,444.68
8.72322,510.64,446.94
8.74377,508.91,447.96
8.76427,508.53,450.96
8.78864,507.22,455.17
8.80925,507.18,460.14
8.82968,507.54,466.11
8.85019,508.63,472.49
8.87058,510.71,479.99
8.89109,510.97,484.19
8.91561,509.97,489.35
8.9361,507.58,493.68
8.95658,504.46,496.75
8.97709,505.17,499.2
8.99765,504.94,499.96
9.02236,504.35,497.97
9.0427,504.28,496.37
9.06332,502.62,495.1
9.08366,502.3,492.68
9.10416,503.04,492.54
9.1247,503.83,491.83
9.14926,503.86,492.27
9.16981,504.89,494.81
9.19016,507.31,497.45
9.21067,508.65,501.56
9.23104,509.72,505.25
9.25553,508.18,508.8
9.27613,509.54,512.04
9.29668,508.23,513.63
9.31725,507.79,514.91
9.33767,507.83,513.52
9.35807,508.06,510.82
9.38257,507.85,507.66
9.40317,506.08,504.52
9.42374,504.86,501.22
9.44406,502.69,499.18
9.46451,501.95,497.74
9.48906,502.96,497.99
9.50954,504.37,499.79
9.53007,504.3,502.04
9.55056,505.64,504.23
9.57099,505.31,506.78
9.59162,507.65,510.43
9.61604,510.52,513.14
9.63667,511.01,514.51
9.65717,508.41,515.61
9.67768,504.53,514.89
9.698,504.82,511.91
9.71855,503.66,508.73
9.74303,504.13,506.58
9.76357,501.9,503.87
9.78413,502.52,501.29
9.8046,502.02,498.43
9.82495,502.01,497.15
9.84945,503.61,498.12
9.86994,506.29,499.49
9.89051,506.03,502
9.91109,507.62,505.6
9.93145,508.7,507.88
9.95196,509.96,511.3
9.97666,509.37,513.84
9.99695,507.49,514.27
10.0174,504.6,513.62
10.0379,503.48,511.89
10.0586,503.98,507.92
10.0829,504.58,504.93
10.1034,506.07,501.35
10.1239,505.65,497.48
10.1445,504.72,495.78
10.1649,504.98,497.03
10.1854,505.98,497.62
10.2098,507.79,500.5
10.2305,509.43,503.6
10.2509,510.54,507.68
10.2714,512.03,511.94
10.2919,510.83,513.75
10.3164,508.06,514.4
10.3368,507.65,515.52
10.3574,506.72,515.22
10.3779,508.58,511.77
10.3983,506.26,509.82
10.4188,505.61,506.86
10.4433,505.89,505.68
10.4639,505.31,502.15
10.4844,507.05,499.72
10.505,506.64,498.57
10.5253,504.11,498.66
10.5458,506.49,501.33
10.5704,505.59,503.46
10.591,508.27,508.57
10.6113,508.22,510.46
10.6318,509.37,513.36
10.6525,511.3,515.09
10.6768,510.04,515.27
10.6974,512.83,514.02
10.7178,512.47,512.61
10.7384,512.17,509.09
10.7588,513.54,507.67
10.7792,509.03,504.34
10.8038,507.62,500.87
10.8243,503.9,498.7
10.8449,505.12,496.96
10.8653,506.3,495.37
10.8861,506.84,499.69
10.9103,504.87,502.15
10.931,504.1,502.92
10.9514,502.48,505.14
10.9718,502.38,508.11
10.9924,502.1,509.69
11.0127,498.68,511.15
11.0373,500.15,512.72
11.0578,498.92,511.78
11.0783,496.13,511.42
11.0988,495.91,507.74
11.1195,496.73,505.59
11.1437,496.38,499.47
11.1643,498.7,496.78
11.185,500.36,495.82
11.2052,501.09,495.86
11.2257,505.07,496.89
11.2463,505.06,497.91
11.2707,506.45,500.53
11.2913,502.16,501.42
11.3118,501.73,503.34
11.3322,501.58,505.87
11.3527,500.26,506.7
11.3734,498.21,506.56
11.3977,499.77,505.65
11.4182,499.62,503.52
11.4389,499.09,500.61
11.4593,498.47,498.49
11.4798,498.58,495.59
11.5043,499.46,494.07
11.5247,500.57,492.66
11.5452,501.86,492.13
11.5657,501.69,494.9
11.5862,503.75,497.12
11.6066,504.8,500.9
11.6311,503.64,503.92
11.6517,504.91,507.73
11.6722,506.13,510.59
11.6926,506.5,512.07
11.7131,506.8,512.46
11.7376,504.24,514.16
11.7585,505.59,511.93
11.7788,505.67,509.95
11.7992,505.94,516.16
11.8196,503.95,539.33
11.8402,500.56,570.46
11.8646,498.65,601.97
11.8852,495.12,623.57
11.9057,491.3,628.26
11.9261,488.84,621.61
11.9467,489.67,610.89
11.9711,491.34,599.11
11.9916,493.07,588.49
12.0121,494.45,578.99
12.0326,495.36,571.39
12.0533,496.09,565.71
12.0736,495.47,563.17
12.0981,493.58,567.54
12.1186,494.06,574.23
12.1391,498.45,570.18
12.1598,506.16,544.95
12.1802,514.33,500.56
12.2046,519.66,455.85
12.2251,524.93,419.28
12.2457,526.34,399.62
12.2661,526.88,390.9
12.2865,526.9,388.92
12.307,529.12,392.93
12.3316,527.7,400.15
12.3521,526.16,408.92
12.3726,523.73,419.13
12.3931,518.18,427.71
12.4135,516.74,436.57
12.434,512.4,443.45
12.4586,510.52,448.76
12.4791,508.41,454.21
12.4996,500.93,459.17
12.52,501.94,462.53
12.5405,502.76,465.83
12.565,502.8,469.26
12.5855,504.44,472.01
12.606,504.35,476.21
12.6265,504.48,481.57
12.647,505.59,486.45
12.6676,507.07,493.96
12.692,505.66,499.37
12.7128,504.12,503.7
12.733,502.7,505.56
12.7536,503.16,506.25
12.7739,502.53,507
12.7985,502.82,506.2
12.8189,503.26,505.16
12.8395,505.21,503.73
12.86,500.77,501.98
12.8805,490.81,499.58
12.901,481.25,498.07
12.9255,474.8,497.45
12.946,473.84,498.76
12.9667,472.07,502.01
12.9872,475.86,504.01
13.0074,478.49,507.41
13.032,480.39,509.53
13.0526,481.91,511.02
13.073,483.93,511.02
13.0935,486.34,510.81
13.1139,487.47,511.05
13.1344,489.78,509.64
13.159,491.02,507.91
13.1794,492.42,505.53
13.2,493.14,502.42
13.2204,491.91,500.14
13.241,493.53,498.31
13.2614,494.02,497.85
13.2859,495.62,498.68
13.3066,497.09,499.94
13.327,498.27,502.35
13.3474,500.62,506.08
13.3679,502.7,508.47
13.3923,505.16,510.77
13.413,504.93,512.22
13.4334,504.14,513.18
13.4539,502.31,512.34
13.4744,501.45,510.07
13.4949,501.76,506.86
13.5194,503.61,503.69
13.5399,501.89,501.95
13.5603,501.51,498.76
13.5808,503.01,497.21
13.6013,505.61,496.57
13.6259,505.68,498.25
13.6464,507.95,498.8
13.667,509.56,501.24
13.6875,510.45,504.59
13.7079,509.16,508.67
13.7284,517.53,512.94
13.753,529.82,517.35
13.7735,535.26,519.48
13.7938,539.21,521.39
13.8143,539.76,519.11
13.8349,536.61,516.29
13.8593,535.69,512.43
13.8798,532.35,508.14
13.9005,529.48,505.91
13.9208,526.98,502.13
13.9414,524.19,500.71
13.9618,524.35,500.36
13.9863,523.88,500.49
14.0068,521.1,501.19
14.0274,519.28,503.75
14.0478,518.43,507.6
14.0683,516.74,508.88
14.0927,515.79,513.71
14.1132,510.43,533.17
14.1338,503.15,560.13
14.1543,494.72,590.11
14.1748,486.37,614.28
14.1952,479.1,628.63
14.2197,475.88,630.3
14.2403,474.3,620.04
14.2607,473.24,606.43
14.2812,475.39,592.55
14.3017,480.12,585.24
14.3262,481.49,590.39
14.3467,484.59,607.71
14.3674,489.08,620.77
14.3877,495.86,615.82
14.4082,506.89,583.65
14.4288,518.51,535.92
14.4532,527.01,485.14
14.4737,529.41,445.11
14.4942,530.33,416.69
14.5146,530.26,399.55
14.5351,530.41,391.64
14.5557,528.93,387.71
14.5803,524.74,388.77
14.6007,520.99,393.22
14.6211,521.39,398.97
14.6416,520.12,407.98
14.6623,519.89,417.58
14.6866,519.51,427.47
14.7072,521.21,440.17
14.7277,521.37,452.34
14.7482,518.7,463.47
14.7687,515.36,471.78
14.7892,514.28,477.62
14.8136,513.43,484.1
14.8342,511.14,489.08
14.8547,511.51,492.46
14.8751,510.01,491.77
14.8956,511.01,491.22
14.9201,510.21,489.97
14.9407,507.57,488.78
14.9612,504.25,488.02
14.9816,504.8,489.42
15.0021,507.04,490.73
15.0225,508.23,494.59
15.0472,509.99,498.47
15.0676,512.59,501.78
15.0881,510.87,506.02
15.1086,508.9,510.22
15.1291,508.32,512.37
15.1536,507.05,514.3
15.1742,506.84,514.84
15.1947,505.07,512.87
15.2152,502.46,511.5
15.2356,501.77,509.8
15.256,504.61,507.24
15.2806,504.29,503.79
15.3012,504.83,500.63
15.3216,505.27,499.51
15.3421,505.61,501.4
15.3626,505.09,502.52
15.3831,509.47,503.82
15.4077,509.58,507.66
15.4281,509.46,510.52
15.4485,506.17,513.42
15.4691,507.74,514.94
15.4896,507.99,515.35
15.5141,507.59,514.48
15.5345,505.47,512.98
15.555,504.38,510.99
15.5756,503.7,508.19
15.596,501.76,504.55
15.6165,499.01,500.84
15.641,499.81,498.27
15.6615,501.05,497.62
15.6821,501.84,497.69
15.7026,500.07,499.56
15.723,501.66,501.04
15.7477,503.92,503.04
15.768,506.74,504.03
15.7887,506.59,506.62
15.8091,509.47,509.3
15.8296,511.38,511.04
15.8499,513.5,511.03
15.8745,513.4,510.42
15.8949,514.12,506.34
15.9155,513.1,502.07
15.9359,511.88,501.26
15.9565,511.3,498.01
15.9809,510.24,495.6
16.0016,508.99,493.68
16.022,508.79,493.15
16.0425,507.44,494.32
16.063,508.15,497.05
16.0834,509.12,499.44
16.1079,508.5,503.55
16.1285,508.6,506.44
16.1489,506.88,509.96
16.1694,504.9,512.36
16.1899,502.72,513.29
16.2145,503.98,514.03
16.2351,502.18,511.43
16.2555,500.95,508.54
16.2761,498.76,504.83
16.2965,498.41,502.07
16.3168,497.12,499.05
16.3415,498.5,498.44
16.3619,500,497.75
16.3824,501.4,499.2
16.4029,502.72,500.56
16.4234,504.58,503.45
16.4438,509.46,507.76
16.4684,513.57,513.01
16.4889,516.45,517.01
16.5094,517.36,519.01
16.5299,518.29,520
16.5504,516.63,519.8
16.575,515.31,516.64
16.5953,513.85,519.51
16.6158,508.08,539.61
16.6364,499.26,566.69
16.6568,488.41,587.95
16.6773,478.13,603.16
16.702,469.5,605.93
16.7225,466.8,599.94
16.743,467.44,591.35
16.7634,470.95,583.68
16.7838,474.36,576.35
16.8082,477.29,570.68
16.8289,480.43,563.94
16.8494,481.95,561.35
16.8699,485.96,561.28
16.8904,487.57,565.23
16.9108,487.45,573.58
16.9354,490.76,575.46
16.9558,496.21,560.37
16.9763,505.97,527.3
16.9967,519.37,485.64
17.0173,529.5,449.91
17.0417,536.4,426.93
17.0623,538.92,415.14
17.0827,541.34,409.71
17.1033,541.67,410.97
17.1237,539.33,414.58
17.1442,537.67,422.46
17.1687,535.33,432.17
17.1892,531.07,440.14
17.2098,529.85,448.11
17.2303,529.68,453.89
17.2508,523.75,457.71
17.2753,524.2,458.97
17.2957,529.36,463.17
17.3163,531.09,466.34
17.3368,529.47,469.27
17.3572,530.18,470.22
17.3778,526.34,471.77
17.4022,524.27,474.42
17.4228,525.42,478.34
17.4432,526.13,483.87
17.4637,525.11,488.49
17.4841,523.49,493.8
17.5047,520.79,499.84
17.5292,521.03,502.27
17.5497,518.62,504.02
17.5702,516.1,505.01
17.5907,512.68,504.21
17.6112,512.14,502.37
17.6358,509.92,500.89
17.6563,509.73,499.32
17.6767,506.79,496.25
17.6972,502.03,494.8
17.7176,503.22,493.64
17.7381,502.58,493.91
17.7626,505.86,495.53
17.7832,506.29,498.42
17.8036,505.03,501.74
17.8242,505.63,504.39
17.8448,506.9,506.11
17.8693,507.72,508.89
17.8899,510.18,510.31
17.9101,509.54,510.65
17.9306,505.43,509.52
17.9512,505.35,506.62
17.9716,506.08,503.69
17.9961,504.46,498.75
18.0167,503.97,495.8
18.0371,502.38,492.84
18.0576,503.9,490.67
18.0781,504.92,489.74
18.1026,506.74,491.19
18.1231,507.19,493.15
18.1436,507.95,495.92
18.1641,508.16,500.14
18.1845,507.53,503.11
18.2051,510.42,506.09
18.2296,511.54,507.87
18.2501,508.83,510.1
18.2707,508.86,510.28
18.2911,506.89,508.62
18.3117,507.31,507.1
18.3361,506.85,505.28
18.3566,505.48,502.22
18.3771,505.38,500.18
18.3975,505.51,498.74
18.4182,505.21,498.59
18.4386,504.96,500.88
18.463,501.57,510.7
18.4836,492.66,534.16
18.5042,480.93,563.53
18.5245,470.54,587.42
18.545,466.03,596.54
18.5655,460.23,596.03
18.59,459.18,593.02
18.6106,461.14,583.62
18.631,463.52,573.3
18.6515,466.81,561.84
18.6721,470.65,551.27
18.6967,475.52,541.02
18.717,477.42,532.01
18.7376,480.33,524.21
18.7581,483.67,519.97
18.7785,485.73,518.17
18.7991,490.99,519.54
18.8234,495.59,523.03
18.8441,498.27,529.83
18.8645,504.22,532.66
18.885,512.77,519.93
18.9054,524.82,495.94
18.9299,534.46,471.15
18.9504,541.76,454.32
18.9709,540.41,445.46
18.9915,540.33,441.17
19.0119,538.06,440.53
19.0325,536.65,441.83
19.0571,532.52,443.26
19.0775,531.62,446.01
19.0979,537.29,449.41
19.1184,539.83,453.33
19.139,540.07,461.46
19.1634,538.85,466.57
19.1839,537.48,472.05
19.2044,535.19,476.84
19.2249,532.95,482.28
19.2454,532.56,487.42
19.2658,530.65,490.34
19.2903,526.92,492.07
19.3109,524.13,492.86
19.3315,520.71,492.08
19.3518,519.37,491.87
19.3724,514.49,491.09
19.3968,513.79,489.88
19.4174,512.44,488.5
19.4379,510.55,489.4
19.4584,508.84,489.32
19.4788,509.47,490.66
19.4994,509.18,493.92
19.5238,508.54,497.34
19.5444,508.43,501.67
19.565,506.55,505.54
19.5854,508.04,508.63
19.6058,506.03,511.3
19.6264,504.82,512.84
19.6508,503.66,511.27
19.6713,501.53,510.62
19.6918,501.22,508.3
19.7123,500.58,506.04
19.733,499.66,503.63
19.7573,499.93,500.7
19.7779,501.74,496.56
19.7984,501.79,494.65
19.8188,502.64,493.52
19.8393,502.11,495.82
19.8598,504.49,498.25
19.8844,503.79,501
19.905,505.43,504.8
19.9253,503.95,506.84
19.9458,503.36,507.47
19.9662,504.49,507.98
19.9908,502.99,507.78
20.0113,499.59,506.63
20.0318,499.27,503.9
20.0524,499.02,503.12
20.0728,499.21,502.5
20.0933,500.77,503.2
20.1178,504.62,505.96
20.1383,507.89,506.57
20.1589,507.72,509.65
20.1792,506.77,513.32
20.1998,504.02,517.06
20.2242,502.01,519.05
20.2448,501.81,519.44
20.2654,499.65,517.75
20.2858,497.52,517.6
20.3064,498.82,514.08
20.3268,499.05,510.46
20.3512,498.44,506.97
20.3718,495.35,503.18
20.3923,493.48,500.54
20.4128,494.79,498.23
20.4332,499.63,498.79
20.4537,502.7,500.23
20.4781,503.96,500.58
20.4988,506.17,501.87
20.5192,508.14,502.89
20.5398,505.71,503.51
20.5601,504.77,504.61
20.5846,503.61,505.69
20.6052,503.49,507.15
20.6257,501.99,506.92
20.6462,502.59,508.34
20.6666,500.48,506.27
20.6872,498.98,502.62
20.7117,501.38,499.49
20.7323,502.51,498.59
20.7527,501.21,497.88
20.7732,501.56,495.9
20.7936,504.65,495.12
20.8181,506.12,496.1
20.8386,504.7,497.08
20.8592,503.76,500.06
20.8797,502.21,508.85
20.9001,499.97,532.88
20.9206,497.77,563.7
20.9451,493.82,586.96
20.9658,489.85,593.37
20.9861,488.88,591.9
21.0067,485.71,584.32
21.0271,484.37,573.25
21.0515,483.69,561.4
21.0721,480.95,556.12
21.0926,477.56,551.1
21.1131,475.85,541.28
21.1336,478.48,531.62
21.1542,479.38,523.9
21.1787,482.91,517.52
21.1992,486.93,514.81
21.2196,489.14,513.65
21.2401,492.11,516.12
21.2606,493.49,519.5
21.2851,493.79,523.8
21.3056,497.43,529.64
21.3261,499.15,538.31
21.3465,502.92,545.05
21.3671,506.53,547.04
21.3875,510.43,533.23
21.4121,517.34,506.58
21.4325,523.07,480.07
21.453,526.26,460.25
21.4737,526.61,446.2
21.494,526.09,437.36
21.5145,523.67,434.29
21.539,523.33,434.23
21.5596,525.07,437.39
21.5801,524.05,444.31
21.6006,524.84,449.65
21.6211,524.87,456.12
21.6455,520.7,462.29
21.6661,519.56,469.04
21.6868,518.45,474.43
21.707,515.36,477.94
21.7275,512.69,480.15
21.748,510.55,480.72
21.7725,509.24,479.58
21.7931,507.19,479.06
21.8135,505.95,477.25
21.8343,505.16,477
21.8545,504.33,478.8
21.879,504.46,482.24
21.8995,505.37,487.19
21.92,506.9,489.75
21.9405,510.12,492.4
21.9609,511.09,495.12
21.9815,510.68,497.9
22.0061,510.34,500.52
22.0264,509.07,501.81
22.0471,510.26,503.25
22.0675,507.81,503.2
22.088,508.45,502.36
22.1126,509.56,500.69
22.133,506.64,497.75
22.1535,503.72,494.8
22.174,503.37,494.44
22.1944,504.5,493.95
22.2149,504.6,495.76
22.2394,502.88,498.01
22.2599,504.1,500.61
22.2804,504.48,504.29
22.3009,506.39,507.23
22.3213,507.31,510.98
22.3458,505.85,512.99
22.3664,504.48,514.99
22.3869,505.78,515.39
22.4074,505.23,514.51
22.4278,503.38,511.01
22.4484,502.9,507.61
22.4728,499.12,504.49
22.4934,498.7,502.39
22.5139,497.16,499.31
22.5343,496.73,500.25
22.5549,498.78,501
22.5753,500.23,502
22.5998,500.78,502.4
22.6203,502.82,504.12
22.6409,503.06,506.5
22.6613,506.25,510
22.6818,507,512
22.7063,507.8,513
22.7268,507.24,514.2
22.7473,506.19,513.76
22.7679,505.95,512.01
22.7883,503.56,509.21
22.8089,502.65,507.36
22.8333,502.92,504.29
22.8538,503.14,501.23
22.8743,502.91,499.79
22.8948,504.33,498.83
22.9152,505.46,501.06
22.9397,506.17,501.65
22.9603,505.14,504.32
22.9808,506.91,506.06
23.0013,507.93,508.85
23.0218,506.54,512.08
23.0422,506.63,513.26
23.0668,506.51,513.61
23.0874,505.81,511.69
23.1078,504.24,510.15
23.1282,501.2,507.32
23.1487,500.36,504.86
23.1732,498.09,501.48
23.1937,499.27,500.39
23.2143,498.21,499.31
23.2348,497.97,498.85
23.2552,497.18,500.08
23.2757,497.94,501.66
23.3002,501.95,504.13
23.3208,502.76,506.9
23.3412,505.61,513.72
23.3618,506.89,536.78
23.3823,504.11,562.42
23.4027,499.09,582.54
23.4273,496.27,589.03
23.4478,494.42,585.82
23.4683,493.73,576.26
23.4887,492.39,565.01
23.5093,492.91,555.41
23.5338,491.93,545.72
23.5542,492.34,537.18
23.5747,493.47,530.54
23.5952,494.18,525.84
23.6157,495.34,523.67
23.6362,500.07,523.73
23.6608,500.86,525.19
23.6812,502.09,525.75
23.7018,501.47,526.4
23.7222,501.78,529.32
23.7426,499.42,532.46
23.7673,496.14,536.16
23.7877,497.11,525.33
23.8082,499.09,502.47
23.8286,504.87,480.97
23.8491,508.3,463.58
23.8696,509.84,451.66
23.8941,510.27,444.53
23.9148,513.02,441.62
23.9351,514.01,442.5
23.9556,515.81,445.6
23.9762,516.05,451.48
24.0006,516.04,457.38
24.0211,514.83,463.91
24.0418,517.06,469.73
24.0621,518.45,473.98
24.0826,521.16,477.58
24.103,519.33,481.07
24.1275,517.46,484.05
24.1482,514.37,483.84
24.1687,513.1,484.87
24.1891,512.68,484.7
24.2097,510.34,483.76
24.234,507.27,482.81
24.2546,507.82,483.45
24.2751,509.05,485.56
24.2956,509.64,489.05
24.3161,508.12,493.84
24.3367,506.89,499.27
24.361,508.51,502.02
24.3817,510.41,504.61
24.402,509.93,506.89
24.4225,507.34,508.71
24.443,507.07,509.37
24.4635,507.06,509.1
24.488,505.65,507.28
24.5086,503.52,505.42
24.5293,501.01,502.94
24.5496,500.61,499.95
24.5701,501.29,498.56
24.5945,502.03,497.65
24.6151,504.03,498.12
24.6356,504.82,499.49
24.6561,505.26,502.4
24.6764,505.4,504.92
24.697,507.52,507.93
24.7215,507.02,510.95
24.7422,506.42,513.16
24.7624,505.13,513.13
24.7831,504.91,512.9
24.8037,504.92,511.52
24.828,503.34,509.62
24.8486,502.87,507.29
24.8691,499.9,504.23
24.8898,499.32,501.59
24.91,498.65,499.07
24.9305,499.12,496.66
24.9549,498.7,496.52
24.9755,498.76,497.02
24.9961,502.01,498.02
25.0164,501.01,505.01
25.0369,499.6,526.41
25.0615,495.08,558.73
25.0819,486.47,586.38
25.1024,481.57,596.51
25.123,477.86,595.4
25.1435,476.49,587.72
25.1638,477.79,577.18
25.1884,477.23,565.14
25.2091,476.59,552.71
25.2295,477.67,542.37
25.2498,479.53,533.1
25.2705,482.03,524.48
25.2909,483.02,518.18
25.3153,484.82,514.55
25.3361,488.45,513.64
25.3564,492.16,513.91
25.3769,494.53,515.13
25.3975,496.42,517.3
25.4219,498.94,520.04
25.4424,499.55,521.23
25.4629,498.44,521.19
25.4834,500.35,522.55
25.5039,502.48,516.24
25.5243,508.39,494.99
25.5489,517.11,469.39
25.5694,525.09,446.91
25.5899,530.67,433.93
25.6104,530.34,427.95
25.6309,530.07,428.16
25.6553,529.45,429.93
25.6759,528.16,435.14
25.6964,527.53,443.91
25.7169,529.62,452.53
25.7374,526.1,461.02
25.7579,524.48,468.82
25.7824,521.78,475.46
25.8029,519.83,480.16
25.8234,517.06,483.93
25.8438,517.25,486.75
25.8644,514,488.2
25.8889,513.2,488.96
25.9093,511.76,488.77
25.93,511.01,488.41
25.9503,510.01,486.93
25.9707,508.6,488.74
25.9913,507.88,489.6
26.0157,508.11,491.88
26.0365,506.69,494.7
26.0571,506.95,497.36
26.0774,505.36,501.09
26.0979,507.69,505.87
26.1222,507.55,507.5
26.1429,507.04,508
26.1634,504.63,508
26.1838,503.71,507.4
26.2043,503.96,505.52
26.2248,503.97,503.81
26.2493,501.38,500.45
26.2698,499.7,497.16
26.2902,501.56,495.13
26.3107,500.85,493.5
26.3313,502.28,493.6
26.3517,503.82,495.88
26.3763,503.46,500.11
26.3969,503.57,502.28
26.4173,504.45,505.03
26.4377,504.76,507.02
26.4582,504.61,510.22
26.4827,503.69,510.37
26.5033,501.55,510.1
26.5237,498.64,508.48
26.5443,499.11,507.78
26.5647,499.09,505.43
26.5851,498.27,502.54
26.6096,498.42,500.03
26.6301,497.93,498.03
26.6508,498.15,497.02
26.6713,500.52,497.22
26.6918,502.41,498.17
26.7162,502.53,499.54
26.7368,503.43,501.63
26.7573,504.74,503.5
26.7777,507.39,505.6
26.7981,505.91,508.08
26.8187,502.93,509.67
26.8431,504.54,510.33
26.8637,501.44,509.67
26.8842,501.35,508.33
26.9046,501.08,507.07
26.9252,500.06,505.05
26.9497,498.65,501.64
26.9702,497.52,500.11
26.9908,497.22,506.69
27.0112,494.77,529.95
27.0316,489.42,562.36
27.0522,483.93,591.29
27.0767,479.15,613.03
27.0973,475.52,623.23
27.1176,474.81,620.98
27.1382,476.85,613.58
27.1585,476.88,602.07
27.179,477.11,591.65
27.2036,479.68,579.92
27.2241,480.75,567.14
27.2448,480.8,556.11
27.265,482.64,545.09
27.2857,483.51,535.27
27.3102,485.81,526.62
27.3306,486.85,524.09
27.3512,488.88,532.67
27.3716,488.7,551.54
27.3921,492.96,571.63
27.4125,499.57,578.71
27.4371,509.66,563.76
27.4576,519.32,529.81
27.478,529.06,488.25
27.4986,536.45,453.2
27.5189,537.96,429.76
27.5434,538.37,416.61
27.5641,536.09,409.69
27.5846,533.67,406.35
27.6051,531.54,406.28
27.6256,528.43,407.22
27.646,525.75,410.98
27.6707,522.8,417.18
27.691,520.04,424.35
27.7116,520.03,432.68
27.732,517.42,439.74
27.7525,515.74,448.99
27.777,513.79,457.99
27.7974,512.83,467.8
27.818,515.87,475.84
27.8385,516.49,483.67
27.8591,512.99,488.94
27.8794,511,491.95
27.904,507.4,493.16
27.9246,506.52,493.93
27.945,504.21,493.94
27.9654,503.97,494.15
27.9859,503.98,492.32
28.0063,501.98,490.66
28.031,502.59,490.33
28.0514,502.47,490.26
28.0719,503.77,492.41
28.0924,503.42,494.93
28.1129,503.94,498.34
28.1374,503.95,501.87
28.1579,504.76,505.1
28.1784,506.41,506.68
28.199,504.93,507.94
28.2196,505.74,509.15
28.24,502.99,507.72
28.2644,499.79,506.78
28.2849,500.84,504.22
28.3053,499.87,501.78
28.326,499.89,498.42
28.3465,500.32,496.14
28.3709,499.85,494.11
28.3915,501.08,494.09
28.412,502.07,496.27
28.4323,504.65,498.62
28.4532,506.72,500.49
28.4734,508.78,503.59
28.4978,509.02,505.28
28.5183,508.22,506.82
28.539,507.17,509.06
28.5593,507.54,510.25
28.5798,506.83,509.6
28.6044,503.27,509.08
28.6248,503.41,506.46
28.6454,501.93,503.97
28.6659,500.14,500.98
28.6863,499.72,498.58
28.7069,499.77,497.46
28.7312,499.42,498.97
28.7518,497.93,515.38
28.7725,492.75,551.7
28.7929,487.2,588.16
28.8134,481.16,613.53
28.8339,475.53,621.02
28.8583,475.42,616.62
28.8788,474.54,606.69
28.8993,475.03,596.56
28.9199,478.42,586.44
28.9404,478.74,576.16
28.9649,478.19,565.12
28.9854,478.75,556.1
29.0058,479.2,548.68
29.0264,479.76,547.54
29.0468,481.61,556.24
29.0672,482.69,569.79
29.0918,484.95,574.43
29.1123,490.36,557.94
29.1327,495.29,527.56
29.1533,503.23,493.44
29.1738,510.38,465.56
29.1983,515.91,447.24
29.2187,518.33,438.4
29.2392,520.46,433.32
29.2597,519.77,433.05
29.2802,516.82,434.84
29.3007,515.05,435.47
29.3253,512.84,437.78
29.3458,513.67,442.02
29.3663,513.14,445.22
29.3868,511.11,448.77
29.4072,514.09,448.42
29.4318,524.07,443.54
29.4522,528.26,441.03
29.4728,532.21,441.82
29.4932,530.76,446.46
29.5136,531.61,453.37
29.5341,530.29,459.69
29.5587,530.23,465.35
29.5792,529.99,471.48
29.5996,525.79,477.99
29.6202,522.03,481.99
29.6406,518.62,483.99
29.6652,513.9,486.39
29.6858,512.32,486.11
29.7063,511.26,486.09
29.7266,510.4,486.47
29.7471,509.92,486.78
29.7677,509.14,486.82
29.7923,508.71,488.66
29.8128,509.17,492.13
29.8333,509.54,495.5
29.8536,510.63,500.2
29.8741,511.3,504.96
29.8985,510.44,508.17
29.9191,508.55,509.54
29.9396,507.84,510.63
29.9601,506.87,510.9
29.9808,503.3,509.52
30.0011,500.84,506.82
30.0255,501.27,504.65
30.0461,501.22,501.72
30.0666,499.97,498.78
30.0871,499.78,497.42
30.1076,501.02,496.74
30.128,500.82,497.79
30.1525,502.45,499.43
30.1731,502.36,503.15
30.1935,502.29,505.52
30.214,502.03,508.81
30.2346,504.43,511.25
30.259,506.14,513.2
30.2795,505.31,513.76
30.3002,505.85,512.61
30.3206,505.28,510.89
30.3412,504.22,508.31
30.3615,502.78,505.45
30.386,500.22,502.96
30.4066,500.98,500.77
30.4271,500.58,499.21
30.4477,502.27,497.77
30.468,504.01,499.22
30.4924,503.81,499.97
30.513,503.25,501.18
30.5335,505,503.74
30.5541,503.2,506.79
30.5748,504.36,517.84
30.5949,503.09,544.87
30.6197,498.87,579.29
30.6402,494.5,608.84
30.6606,489.2,626.47
30.6809,484.76,626.77
30.7014,483.61,619.62
30.726,480.28,606.3
30.7465,479.83,591.04
30.767,481.86,578.23
30.7875,482.49,565.98
30.8079,483.99,556.79
30.8284,489.39,550.03
30.8532,492.71,547.22
30.8735,495.17,548.18
30.894,494.54,563.74
30.9146,495.03,585.39
30.935,494.42,602.12
30.9593,494.54,603.29
30.9799,496.83,587.83
31.0004,503.87,555.07
31.021,510.89,512.25
31.0414,516.51,468.6
31.062,519.61,437.48
31.0865,520.69,415.39
31.1069,521.75,401.91
31.1275,520.6,397.13
31.1478,520.48,398.9
31.1683,519.18,402.12
31.1888,519.55,408.5
31.2133,520.64,417.6
31.2339,518.11,427.48
31.2543,515.89,437.58
31.275,515.71,447.47
31.2953,513.97,456.37
31.3198,512.97,459.7
31.3403,510.98,461.96
31.3609,509.78,465.17
31.3814,506.03,466.93
31.4019,504.82,469.35
31.4223,504.86,469.48
31.4469,503.69,470.18
31.4674,503.55,472.15
31.4878,504.24,475.92
31.5083,505.19,480.33
31.5288,508.35,484.47
31.5532,507.88,490.57
31.5738,506.71,495.66
31.5944,507.36,499.93
31.6149,506.49,502.34
31.6353,506.59,504.87
31.6558,505.67,505.3
31.6804,503.94,507.04
31.7008,503.75,506.63
31.7213,502.6,505.3
31.7418,499.08,501.84
31.7622,495.86,500.48
31.7867,496.29,498.78
31.8074,498.63,497.22
31.8278,496.71,497.38
31.8483,500.37,499.3
31.8688,499.69,501.64
31.8892,501.75,503.51
31.9137,503.8,505.81
31.9343,502.64,508.25
31.9547,503.51,510.8
31.9752,504.21,512.04
31.9958,505.57,513.03
32.0163,506.06,512.63
32.0407,506.04,511.9
32.0612,505.44,510.12
32.0817,503.75,508.1
32.1023,502.8,506.28
32.1227,502.84,503.22
32.1471,501.27,500.98
32.1677,501.02,500.98
32.1883,501.21,501.39
32.2087,502.97,501.11
32.2291,505.98,503.29
32.2497,506.18,505.43
32.2744,505.35,507.14
32.2948,506.28,508.91
32.3152,507.02,508.93
32.3356,508.82,510.15
32.3562,508.85,510.12
32.3806,505.28,508.49
32.4012,501.83,506.19
32.4217,501.06,503.96
32.4422,498.65,501.36
32.4627,498.32,497.69
32.4831,497.86,494.55
32.5076,498.68,493.24
32.5282,500.55,494.59
32.5486,498.44,496.08
32.5691,501.55,498.86
32.5896,502.44,501.09
32.6141,505.15,503.67
32.6346,504.92,507.74
32.6551,505.94,509.39
32.6756,505.15,510.91
32.6962,505.12,511.33
32.7165,502.9,510.06
32.7411,501.72,508.65
32.7617,501.57,507.52
32.7821,500.46,505.82
32.8027,498.57,504.25
32.8233,498.45,502.8
32.8476,501.56,501.04
32.8682,501.05,500.23
32.8886,502.24,500.39
32.9091,502.59,501.91
32.9296,503.87,504.13
32.9501,505.1,507.3
32.9746,505.08,510.64
32.9952,504.86,512.91
33.0156,505.49,515.13
33.0361,505.19,515.7
33.0565,505.35,514.56
33.0771,504.08,514.25
33.1015,503.27,510.6
33.1221,501.21,507.48
33.1425,498.37,503.78
33.163,497.7,500.23
33.1836,498.76,498.38
33.208,499.61,496.91
33.2286,500.48,498.12
33.249,501.19,498.7
33.2695,501.95,501.16
33.2901,502.56,505.53
33.3104,501.05,519.82
33.3351,503.84,546.66
33.3556,507.07,577.73
33.3761,507.26,605.38
33.3967,508.01,620.1
33.4171,505.2,620.08
33.4414,503.76,611.67
33.4621,502.81,600.53
33.4825,503.45,588.03
33.503,504.96,578.82
33.5235,508.37,571.06
33.544,511.09,564.85
33.5686,507.87,554.28
33.5891,502.7,541.82
33.6095,499.56,532.86
33.6299,501.25,534.09
33.6504,499,545.07
33.675,499.6,552.65
33.6954,502.08,545.32
33.7159,504.86,525.86
33.7364,506.89,506.49
33.757,507.71,488.79
33.7775,505.17,473.23
33.8019,504.54,462.99
33.8225,507.03,455.99
33.843,505.62,449.39
33.8634,502.1,446.91
33.884,502.28,446.13
33.9044,502.22,448.1
33.9289,505.78,451.88
33.9495,505.62,457.11
33.9699,505.7,464.49
33.9904,504.76,470.79
34.0109,505.21,477.23
34.0354,506.97,484.98
34.0558,507.37,489.99
34.0764,509.3,489.59
34.097,514.44,477.87
34.1174,514.75,465.7
34.1379,516.2,457.56
34.1624,515.96,453.25
34.1829,514.97,450.2
34.2034,513.57,449.76
34.224,512.86,449.81
34.2445,512.29,450.85
34.2689,512.43,455.48
34.2894,511.74,460.58
34.3099,511.2,466.66
34.3304,512.56,474.53
34.3509,513.25,480.03
34.3713,512.8,485.02
34.3958,511.64,490.22
34.4163,508.11,493.37
34.4368,505.49,495.5
34.4573,506.19,495.6
34.4777,504.95,497.28
34.5022,502.36,497.02
34.5229,499.29,496.22
34.5434,498.63,495.17
34.5639,499.51,494.74
34.5845,499.8,494.99
34.6049,502.24,495.79
34.6293,501.79,497.63
34.6499,503.44,499.71
34.6704,503.95,503.57
34.6908,506.36,506.85
34.7113,505.49,508.68
34.7357,504.19,509.95
34.7563,502.35,510.76
34.7768,502.48,511.01
34.7973,502.79,510.2
34.8177,500.63,508.56
34.8382,499.7,506.65
34.8628,497.96,502.52
34.8833,497.77,499.82
34.9038,499.02,497.65
34.9242,499.41,497.32
34.9447,499.73,498.46
34.9652,499.18,498.97
34.9897,500.15,501.17
35.0105,502.52,503.94
35.0308,506.21,506.75
35.0512,507.17,509.6
35.0717,508.94,509.28
35.0963,508.35,510.62
35.1167,507.28,510.9
35.1372,505.22,510.52
35.1577,504.58,507.62
35.1781,503.86,506.49
35.1986,501.29,504.19
35.2231,500.03,500.76
35.2437,499.63,499.4
35.2642,500.1,498.32
35.2847,499.28,496.86
35.3051,501.22,497.69
35.3296,503.38,500.55
35.3501,504.9,504.44
35.3706,504.72,506.75
35.3912,505.98,509
35.4116,505.38,510.4
35.4323,504.71,511.52
35.4566,505.56,512.02
35.4773,504.85,510.41
35.4976,503.68,508.93
35.5182,502.35,507.14
35.5386,501.28,503.92
35.5631,501.82,500.93
35.5836,499.46,498.55
35.6042,500.17,496.44
35.6246,500.33,496.35
35.6452,502.87,497.28
35.6656,504.89,500.62
35.6902,503.71,502.3
35.7108,504.77,506.24
35.7311,503.42,507.99
35.7518,503.33,508.19
35.7721,505.87,510.15
35.7926,505.09,511.92
35.8171,501.87,513.34
35.8376,501.9,511.67
35.8582,498.72,509.34
35.8786,501.58,509.67
35.8991,502.46,522.14
35.9236,502.77,547.71
35.9442,505.21,570.37
35.9646,509.57,582.29
35.985,511.86,583.03
36.0055,512.49,580.63
36.0262,513.79,577.3
36.0505,511.03,573.64
36.0713,512.22,569.31
36.0915,511.38,565.85
36.112,511.5,562.48
36.1325,510.8,557.98
36.1569,506.44,550.79
36.1775,502.35,538.83
36.198,500.68,527.66
36.2185,499.75,518.73
36.239,501.8,510.59
36.2594,500.44,506.47
36.2839,497.95,506.17
36.3045,496.96,505.54
36.325,496.57,505.03
36.3457,496.45,506.03
36.3659,498.96,506.82
36.3906,501.97,503.26
36.411,504.98,488.2
36.4316,509.58,466.96
36.452,511.27,449.57
36.4725,515.21,440.66
36.4929,514.97,439.33
36.5174,513.58,437.86
36.538,512.66,437.69
36.5585,509.73,439.15
36.5789,509.18,440.32
36.5994,507.75,443.06
36.6239,506.6,446.45
36.6444,509.08,450.56
36.6651,508.46,455.44
36.6855,507.97,461.36
36.706,507.38,467.68
36.7266,507.5,473.95
36.7509,507.4,479.56
36.7714,509.12,484.45
36.7919,510.3,488.96
36.8124,509.44,491.57
36.8329,506.55,495.05
36.8534,505.24,497.04
36.878,502.79,497.43
36.8984,500.43,495.75
36.9189,499.35,494.8
36.9394,499.28,492.84
36.9599,500.22,490.87
36.9844,500.18,491.5
37.005,500.74,491.8
37.0254,499.59,492.84
37.0459,501.87,496.47
37.0664,502.5,498.98
37.0868,503.4,502.38
37.1113,504.12,505.9
37.1319,503.5,508.72
37.1524,505.4,510.58
37.1729,505.92,511.46
37.1933,506.33,511.97
37.2178,504.07,510.98
37.2383,500.85,507.18
37.2589,500.08,504.54
37.2794,498.67,503.84
37.2998,497.13,500.67
37.3203,493.91,498.54
37.3451,495.33,498.43
37.3654,496.26,498.34
37.3859,498.61,498.67
37.4064,499.29,500.94
37.4268,500.83,504.15
37.4513,502.06,507.12
37.4718,506.05,510.5
37.4923,506.64,513.6
37.5128,504.91,514.48
37.5333,501.93,513.78
37.5538,501.34,511.63
37.5783,501.28,509.5
37.5989,501.62,508
37.6193,500.9,505.6
37.6398,501.32,502.68
37.6603,499.05,501.14
37.6807,500.24,498.92
37.7053,499.59,498.53
37.7259,499.08,498.83
37.7462,499.66,499.86
37.7667,499.93,501.09
37.7872,500.74,506.07
37.8117,499.59,518.66
37.8322,496.48,548.73
37.8527,490.98,572.38
37.8733,487.38,585.5
37.8937,486.71,587.8
37.9141,486.77,581.44
37.9387,486.41,572.15
37.9593,484.33,560.72
37.9797,483.26,549.78
38.0002,485.01,543.42
38.0206,486.01,535.94
38.0453,489.01,529.95
38.0657,491.61,525.56
38.0863,494.28,523.45
38.1067,497.83,523.16
38.1272,500.06,522.53
38.1476,502.65,522.62
38.1722,503.32,523.9
38.1927,505.06,525.52
38.2134,504.04,527.41
38.2338,503.84,531.13
38.2543,503.07,532.91
38.2786,502.65,538.32
38.2992,499.52,551.46
38.3197,503.22,552.17
38.3403,508.58,533.53
38.3607,514.86,500.43
38.3813,520.49,466.94
38.4057,524.79,442.35
38.4262,526.43,429.28
38.4466,529.95,424.03
38.4672,532.16,424.62
38.4878,530.13,428.5
38.5121,527.5,434.4
38.5326,527.4,440.72
38.5533,525.52,447.37
38.5737,523.42,453.9
38.5942,517.93,458.52
38.6146,512.35,461.82
38.6391,510.08,464.65
38.6596,509.26,466.32
38.6801,507.01,468.46
38.7005,506.41,472.17
38.7211,507.13,475.73
38.7416,507.5,477.59
38.766,508.4,482.27
38.7866,508.52,486.62
38.8071,507.22,490.89
38.8276,506.37,495.71
38.8481,506.9,499.77
38.8725,507.72,502.42
38.893,505.98,506.13
38.9136,505.78,506.71
38.9341,505.22,506.77
38.9546,504.58,506.61
38.975,503.26,504.49
38.9995,500.81,502.59
39.02,499.65,500.47
39.0405,499.12,498.18
39.0611,499.3,495.94
39.0816,499.04,496.15
39.106,500.23,496.12
39.1266,501.78,497.5
39.147,503.23,499.6
39.1675,506.38,502.48
39.188,507.9,505.58
39.2085,505.72,508.47
39.233,506.18,509.37
39.2535,506.54,511.3
39.274,506.23,510.04
39.2944,504.19,508.03
39.315,502.55,506.42
39.3395,501.64,503.74
39.36,500.71,500.39
39.3806,500.37,497.91
39.4009,498.9,496.13
39.4214,499.12,495.3
39.442,499.09,495.44
39.4664,500.07,496.96
39.487,502.06,499.96
39.5075,502.65,502.77
39.5279,503.32,506.42
39.5484,503.45,509.33
39.5689,502.56,509.67
39.5934,505.05,510.73
39.614,505.84,511.39
39.6344,503.67,509.91
39.6549,502.74,508.93
39.6755,501.79,506.34
39.6999,501.03,502.87
39.7204,501.03,502.1
39.7409,500.42,515.68
39.7614,498.74,539.34
39.7819,498.39,555.07
39.8024,497.71,561.06
39.8269,500.77,561.05
39.8475,502.22,558.44
39.868,503.37,554.75
39.8883,504.9,552
39.9088,504.12,548.8
39.9334,504.49,545.84
39.9538,504.2,542.07
39.9744,504.36,538.86
39.9949,502.69,533.89
40.0153,503.15,527.91
40.0358,499.12,524.13
40.0603,487.49,519.1
40.0809,475.4,512.88
40.1014,467.32,507.71
40.1219,464.85,505.76
40.1424,464.08,506.61
40.1669,471.07,503.09
40.1875,486.45,488.27
40.2078,502.36,470.62
40.2284,513.29,460.09
40.2488,519.03,455.47
40.2693,521.63,453.78
40.2938,522.5,453.82
40.3145,523,455.06
40.335,520.8,455.85
40.3553,519.44,457.68
40.3759,517.95,459.54
40.4002,513.16,460.63
40.4208,513.13,462.71
40.4413,512.7,466.37
40.4618,514.76,471.09
40.4823,518.01,475.47
40.5027,516.61,479.78
40.5272,516.89,486.02
40.5478,516.11,489.62
40.5683,517.69,494.09
40.5888,516.75,499.08
40.6092,515.8,501.86
40.6297,515.04,503.89
40.6542,513.63,504.91
40.6748,511.71,504.93
40.6953,509.96,503.54
40.7158,507.57,502.43
40.7363,504.46,499.55
40.7607,503.97,497.84
40.7813,503.97,495.67
40.8018,503.18,495.34
40.8222,501.34,495.47
40.8428,503.07,496.98
40.8632,504.06,498.98
40.8877,505.05,502.58
40.9083,505.44,506.27
40.9287,505.35,509.41
40.9492,505.48,511.93
40.9697,507.98,513.54
40.9944,507.19,513.24
41.0147,507.35,511.39
41.0353,504.48,508.31
41.0558,501.98,505.65
41.0762,500.19,503.32
41.0966,501.15,502.66
41.1211,500.92,500.52
41.1417,500.34,498.42
41.1622,498.47,498.94
41.1826,500.37,499.95
41.2032,503.3,501.76
41.2276,503.64,504.81
41.2481,504.51,507.45
41.2688,506.41,510.16
41.2891,507.93,511.33
41.3098,510.54,512.86
41.3301,508.63,512.69
41.3547,506.31,510.35
41.3751,501.85,507.28
41.3957,499.88,505.02
41.4161,501.7,503.02
41.4366,500.36,500.42
41.4571,500.29,497.73
41.4816,499.83,497.39
41.5022,500.46,496.31
41.5227,501.37,496.85
41.5431,502.9,499.28
41.5637,503.92,501.22
41.5881,502.33,505.18
41.6086,501.47,508.54
41.6291,501.57,511.23
41.6495,502.06,512.19
41.6701,502.45,513.15
41.6906,500.36,513.32
41.7151,498.69,511.46
41.7356,497.35,509.36
41.7561,495.88,506.29
41.7766,495.9,504.03
41.7971,494.52,502.63
41.8215,494.42,500.1
41.842,495.13,499.48
41.8626,497.11,499.78
41.8831,497.09,501.63
41.9035,500.67,504.3
41.924,503.54,506.04
41.9486,503.83,508.43
41.9691,505.46,510.35
41.9896,506.17,511.68
42.0101,504.74,512.14
42.0305,504.39,512.31
42.055,502.91,511.45
42.0755,503.93,508.96
42.096,501.94,505.37
42.1166,501.35,501.69
42.137,500.48,499.36
42.1576,500.59,497.88
42.182,500.07,497.51
42.2025,501.26,497.61
42.223,502,498.89
42.2435,502.6,500.31
42.2639,504.08,503.25
42.2885,505.47,505.2
42.3089,505.97,522.96
42.3295,509.58,560.17
42.35,510.66,597.33
42.3704,509.53,621.67
42.3909,508.62,634.93
42.4154,507.9,629.55
42.436,505.12,617.64
42.4565,503.9,601.51
42.477,503.72,586.21
42.4974,503.17,572.97
42.5179,502.54,560.17
42.5424,503.03,551.14
42.563,505.42,544.91
42.5834,503.34,541.13
42.6039,502.67,540.3
42.6244,499.74,537.44
42.6489,499.19,535.95
42.6694,499.35,534.96
42.6899,498.88,534.97
42.7104,499.51,534.18
42.7309,499,539.94
42.7514,495.6,554.95
42.7761,496.48,570.96
42.7964,495.99,572.77
42.817,497.99,552.62
42.8374,501.79,515.09
42.8579,506.83,470.47
42.8825,509.27,430.98
42.9029,510.61,407.78
42.9234,512.49,396.03
42.9439,512.39,392.82
42.9643,514.51,395.46
42.9849,512.41,400.77
43.0093,513.33,408.21
43.0299,512.46,416.57
43.0505,509.77,425.06
43.0709,509.22,433.24
43.0915,507.57,439.2
43.1158,504.66,444.76
43.1363,503.33,448.41
43.1569,501.66,452.32
43.1774,502.53,454.86
43.1979,503.02,458.29
43.2184,504.42,462.43
43.2428,505.33,466.14
43.2634,507.47,472.12
43.2838,508.17,478.49
43.3043,509.94,484.59
43.3248,508.35,489.88
43.3492,510.28,494.7
43.3698,510.43,498.16
43.3903,511.14,500.73
43.4109,509.31,502.78
43.4313,507.05,502.63
43.4517,507.44,501.1
43.4764,506.35,499.08
43.4968,504.68,497.06
43.5173,504.35,494.45
43.5378,503.68,492.96
43.5582,502.94,492.97
43.5787,503.55,493.58
43.6032,501.84,495.46
43.6238,500.47,498.97
43.6443,502.18,501.97
43.6648,503.14,503.98
43.6852,503.91,508.78
43.7097,503.33,510.03
43.7302,502.07,510.42
43.7507,502.05,508.94
43.7712,502.04,507.95
43.7917,500.43,506.56
43.8121,498.15,505.45
43.8368,498.12,502.36
43.8573,497.49,499.69
43.8777,495.8,497.35
43.8982,496.04,496.88
43.9188,500.43,496.7
43.9432,501.94,497.36
43.9636,503.95,499.49
43.9842,503.96,501.79
44.0047,501.37,503.83
44.0252,505.3,506.67
44.0457,506.64,509.33
44.0702,505.71,510.67
44.0907,503.17,512.53
44.1112,501.93,511.43
44.1316,501.55,509.74
44.1521,501.64,508.19
44.1766,501.71,506.15
44.1972,499.17,504.52
44.2176,497.73,501.42
44.2382,495.99,500.54
44.2586,498.39,499.43
44.2792,498.91,500.94
44.3037,497.53,503.15
44.3241,499.22,505.52
44.3446,501.98,507.62
44.3651,503.38,509.09
44.3856,503.91,511.88
44.4102,504.73,513.3
44.4307,505.18,513.04
44.4512,503.14,510.83
44.4716,502.92,509.27
44.4921,501.73,506.01
44.5126,500.39,504.21
44.5371,501.31,501.97
44.5576,499.85,499.17
44.5782,500.28,497.74
44.5986,501.02,497.19
44.619,503.42,497.75
44.6396,503.93,500.6
44.6642,504.55,503.28
44.6846,505.84,505.43
44.7051,505.47,506.74
44.7256,506.38,509.39
44.746,505.1,510.91
44.7705,503.68,511.33
44.7912,501.94,511.66
44.8115,500.76,509.33
44.832,501.8,507.27
44.8526,501.24,505.61
44.873,500.59,502.29
44.8976,499.28,499.03
44.918,500.42,497.03
44.9385,500.74,496.42
44.959,503.79,495.74
44.9795,504.43,498.19
45.0041,504.35,500.75
45.0245,503.88,503.6
45.0451,503.9,506.48
45.0656,502.52,508.78
45.086,502.62,510.83
45.1064,502.49,510.66
45.131,504.19,511.33
45.1515,502.96,509.66
45.172,501.96,506.73
45.1925,502.17,502.78
45.2129,502.74,505.23
45.2374,505.39,522.98
45.258,509.51,552.19
45.2786,512.61,577.75
45.299,514.69,591
45.3194,514.95,592
45.3399,516.76,585.4
45.3645,516.01,579.52
45.385,512.41,573.62
45.4054,510.73,566.69
45.4259,509.78,562.75
45.4464,509.62,556.8
45.467,508.9,550.04
45.4914,506.52,544.83
45.5119,504.02,539.67
45.5326,501.21,534.93
45.553,497.77,530.55
45.5734,494.22,525.64
45.5979,492.17,520.51
45.6184,492.34,517.81
45.6389,492.87,520.65
45.6594,495.1,526.12
45.6798,498.88,517.09
45.7005,502.9,494.08
45.725,506.72,470.86
45.7454,507.98,453.89
45.766,508.98,446.51
45.7866,507.19,441.01
45.8068,506.75,438.41
45.8313,507,439.73
45.8519,506,440.78
45.8724,505.2,443.62
45.8928,505.36,444.9
45.9134,504.89,446.32
45.9339,504.11,447.86
45.9583,502.89,451.48
45.9789,501.71,455.19
45.9994,500.77,461.15
46.0198,501.41,467.52
46.0405,503.73,469.02
46.0648,504.59,468.81
46.0854,504.27,470.85
46.1059,505.81,474.88
46.1263,506.45,477.9
46.1469,504.56,479.92
46.1673,502.65,482.14
46.1919,501.52,483.51
46.2123,499.82,482.81
46.2328,499.85,482.65
46.2534,500.88,482.12
46.2738,499.91,481.09
46.2983,500.52,481.88
46.3188,501.22,482.3
46.3393,501.98,485.64
46.3598,504.38,489.91
46.3804,505.9,497.33
46.4008,507.92,508.26
46.4253,506.74,516.21
46.4457,506.99,521.97
46.4664,508.99,525.58
46.4867,510.19,526.26
46.5072,510.36,525.01
46.5277,509.28,521.61
46.5523,506.63,517.69
46.5727,504.3,512.95
46.5932,501.44,508.56
46.6137,501.55,506.05
46.6342,501.24,503.84
46.6587,502.19,503.07
46.6792,501.56,502.06
46.6997,502.64,501.84
46.7202,503.32,502.88
46.7407,504.05,506.3
46.7612,505.44,508.64
46.7857,503.35,510.11
46.8062,502.28,511.09
46.8267,502.23,509.87
46.8471,497.98,510.5
46.8677,496.78,508
46.8921,497.63,506.2
46.9129,499.5,504.16
46.9332,499.4,501.53
46.9537,501.12,498.22
46.9742,500.9,493.98
46.9948,501.72,491.58
47.0192,502.37,489.87
47.0397,504.5,490.29
47.0602,507.8,493.03
47.0807,509.04,494.43
47.1011,510.03,498.54
47.1256,509.63,503.03
47.1463,508.7,506.23
47.1668,510.16,506.98
47.1871,509.53,506.79
47.2077,509.82,506.23
47.2281,510.06,505.38
47.2526,510.25,504.71
47.2731,509.2,504.36
47.2936,507.56,502.09
47.3141,506.65,499.07
47.3348,507.32,497.66
47.3551,506.85,496.73
47.3797,507.68,497.18
47.4004,507.55,500.15
47.4208,507.84,502.32
47.4413,505.47,505.05
47.4616,503.38,509.04
47.4861,503.9,512.43
47.5066,502.52,512.95
47.5271,502.22,514.36
47.5477,502.57,514.29
47.5682,501.66,512.83
47.5887,500.33,511.66
47.6133,499.86,509.13
47.6337,496.69,506.1
47.6541,493.55,504.08
47.6748,485.04,506.07
47.695,474.43,506.85
47.7195,471.55,507.68
47.7401,469.24,509.55
47.7607,469.59,512.44
47.7812,470.67,512.95
47.8015,472.94,514.36
47.8219,474.55,516.49
47.8466,475.24,516.79
47.867,478.39,516.43
47.8877,480.51,514.55
47.908,482.81,511.64
47.9285,486.05,509.11
47.9529,487.84,506.89
47.9736,490.67,501.91
47.994,491.94,498.13
48.0147,493.75,495.9
48.035,496.4,493.72
48.0555,499.72,493.98
48.08,503.38,495.58
48.1006,502.1,496.07
48.121,502.88,497.85
48.1415,505.5,500.88
48.1619,504.2,504.11
48.1824,504.16,507.08
48.2069,502.13,506.87
48.2275,501.9,507.09
48.248,499.32,507.68
48.2684,499.06,505.54
48.2889,498.45,503.63
48.3135,499.76,500.11
48.334,501.21,498.48
48.3545,502.96,496.99
48.3749,503.77,496.19
48.3955,502.62,496.75
48.416,503.29,497.4
48.4405,503.04,498.72
48.461,504.03,501.18
48.4814,505.42,502.94
48.502,506.74,504.95
48.5225,508.79,507.16
48.5469,509.03,507.73
48.5675,507.23,507.78
48.5879,505.58,507.23
48.6085,503.06,504.18
48.629,502.85,500.95
48.6495,500.68,498.16
48.6739,501.55,494.93
48.6944,504.64,494.14
48.715,504.11,492.51
48.7355,503.89,492.81
48.7558,502.71,494.85
48.7803,504.77,496.28
48.8009,504.01,499.82
48.8216,502.61,503.46
48.8419,504.49,507.17
48.8625,505.39,510.33
48.8828,505.91,512.47
48.9073,505.33,513.17
48.9279,503.46,512.14
48.9484,504.17,510.51
48.9688,504.74,507.41
48.9892,505.59,504.13
49.0139,505.27,500.9
49.0344,505.62,498.92
49.055,505.49,496.94
49.0754,506.4,496.55
49.096,508.32,495.64
49.1164,507.05,496.91
49.141,507.64,500.53
