Program Time [s],data 0,data 1
5.96553,473.45,516.96
5.98645,473.72,516.65
6.00725,475.97,518.22
6.02658,475.40,517.40
6.04688,474.09,518.35
6.06555,477.81,520.23
6.08555,476.53,523.43
6.10568,477.55,526.09
6.12701,474.94,528.04
6.14600,474.99,527.70
6.16686,477.42,528.12
6.18621,474.98,529.76
6.20709,472.32,525.98
6.22713,476.82,523.53
6.24507,475.54,528.31
6.26679,477.64,525.04
6.28630,480.24,524.98
6.30593,481.23,524.98
6.32705,479.05,523.35
6.34593,479.96,523.05
6.36667,478.99,521.05
6.38643,477.45,519.57
6.40702,478.28,515.48
6.42675,477.41,517.34
6.44818,474.45,514.79
6.46629,472.13,513.85
6.48654,472.28,514.96
6.50773,473.57,516.73
6.52759,473.13,515.05
6.54700,471.81,516.30
6.56698,473.85,514.36
6.58669,473.53,514.61
6.60613,473.16,516.12
6.62758,471.30,515.40
6.64722,471.91,512.41
6.66650,469.08,519.93
6.68639,473.71,537.17
6.70707,473.65,553.11
6.72630,475.62,578.78
6.74776,475.88,596.75
6.76635,476.53,608.46
6.78686,478.34,612.36
6.80653,475.73,604.08
6.82787,474.93,603.52
6.84722,474.02,601.71
6.86743,477.42,592.75
6.88742,474.57,589.19
6.90697,474.11,585.71
6.92627,476.69,581.21
6.94634,475.89,571.55
6.96615,473.63,567.49
6.98633,475.40,562.34
7.00723,473.89,555.48
7.02683,475.68,554.04
7.04747,471.13,548.85
7.06724,470.47,542.55
7.08675,472.93,541.17
7.10769,469.88,540.56
7.12923,471.13,537.24
7.14941,468.06,533.14
7.16937,467.85,531.43
7.18860,469.57,527.40
7.20977,472.02,527.26
7.22829,469.82,523.69
7.24987,468.90,519.25
7.27145,467.64,519.64
7.29150,470.47,518.16
7.31195,467.42,515.06
7.33156,469.96,514.96
7.35081,472.56,519.06
7.37212,470.40,517.09
7.39140,469.83,518.20
7.41107,469.37,518.97
7.43065,466.59,518.45
7.45159,466.99,518.26
7.47162,466.81,517.04
7.49132,468.60,514.74
7.51175,469.95,516.40
7.53116,469.93,516.30
7.55109,472.09,516.62
7.57105,469.67,511.96
7.59210,471.01,516.58
7.61231,471.65,514.01
7.63235,469.97,515.24
7.65181,469.74,511.05
7.67248,469.66,499.06
7.69159,470.26,477.82
7.71275,470.30,449.59
7.73215,465.42,425.08
7.75325,465.57,412.41
7.77370,464.50,406.96
7.79220,464.31,407.28
7.81337,463.56,413.45
7.83347,466.12,417.56
7.85348,464.92,424.46
7.87259,466.48,430.60
7.89398,465.12,436.73
7.91364,468.84,443.48
7.93278,469.81,453.20
7.95519,467.37,456.52
7.97367,471.92,466.53
7.99318,475.17,471.10
8.01429,477.14,477.05
8.03384,476.49,484.90
8.05376,476.72,487.81
8.07335,477.83,492.98
8.09415,476.70,496.62
8.11468,475.07,498.40
8.13413,474.99,502.07
8.15355,475.13,502.72
8.17409,476.93,506.75
8.19349,477.18,506.68
8.21477,477.99,505.94
8.23373,478.46,506.08
8.25499,476.54,510.40
8.27428,478.27,510.41
8.29464,476.14,511.32
8.31503,475.56,512.41
8.33341,477.09,512.49
8.35361,476.41,511.68
8.37418,477.79,511.34
8.39435,478.95,514.82
8.41495,478.82,515.68
8.43310,478.24,516.15
8.45309,480.84,513.13
8.47411,481.64,512.34
8.49413,481.09,511.44
8.51478,478.78,512.71
8.53416,476.13,512.20
8.55404,479.17,514.23
8.57444,476.33,512.14
8.59486,477.56,512.85
8.61386,476.33,514.49
8.63408,476.16,512.93
8.65470,479.59,513.54
8.67377,478.21,513.09
8.69462,480.54,513.59
8.71461,479.52,515.07
8.73373,480.15,515.80
8.75450,480.32,515.51
8.77394,476.93,515.34
8.79452,476.66,516.05
8.81296,480.00,515.36
8.83429,480.90,516.48
8.85354,479.77,515.20
8.87380,479.37,513.46
8.89333,480.72,514.92
8.91421,477.37,514.15
8.93472,477.18,513.77
8.95336,475.60,516.08
8.97322,476.25,513.66
8.99403,477.37,514.09
9.01366,481.49,515.71
9.03395,480.98,516.28
9.05412,481.10,514.90
9.07417,480.78,517.45
9.09410,479.25,518.46
9.11424,479.14,518.26
9.13384,480.61,516.01
9.15421,480.92,515.72
9.17413,481.36,515.89
9.19348,479.35,516.17
9.21319,478.46,518.06
9.23489,477.88,514.74
9.25461,478.37,516.42
9.27309,474.62,515.52
9.29432,476.92,516.21
9.31584,477.47,517.92
9.33723,478.55,517.02
9.35508,478.11,518.21
9.37554,479.90,518.16
9.39567,483.11,522.20
9.41559,484.44,521.29
9.43519,485.66,520.65
9.45623,486.99,520.33
9.47532,485.93,521.23
9.49539,485.01,522.33
9.51517,487.39,524.29
9.53504,483.58,521.68
9.55538,486.13,523.99
9.57549,487.17,521.97
9.59568,486.99,522.88
9.61520,486.07,523.53
9.63669,486.84,521.35
9.65603,485.41,522.76
9.67692,485.89,520.92
9.69594,485.02,519.42
9.71679,488.05,523.17
9.73701,486.07,521.94
9.75541,484.23,520.75
9.77625,485.83,520.05
9.79650,486.94,516.40
9.81591,486.25,518.24
9.83682,484.24,516.95
9.85530,484.68,520.02
9.87658,485.01,517.33
9.89563,482.25,518.67
9.91560,483.06,518.63
9.93629,485.30,516.36
9.95655,485.02,518.89
9.97669,485.90,517.46
9.99538,486.34,516.38
10.01532,483.55,519.86
10.03523,485.07,516.63
10.05684,485.16,514.41
10.07634,483.62,515.35
10.09641,486.71,515.48
10.11543,487.42,513.99
10.13511,487.70,522.82
10.15544,489.34,551.20
10.17662,494.12,576.09
10.19679,494.79,604.78
10.21558,497.83,629.95
10.23720,499.08,642.84
10.25698,502.39,645.58
10.27579,498.64,643.07
10.29542,497.70,630.75
10.31565,497.00,624.39
10.33670,497.68,617.03
10.35524,498.27,602.87
10.37564,495.21,587.24
10.39522,495.87,580.20
10.41621,493.85,571.53
10.43657,490.39,562.25
10.45558,491.19,556.85
10.47534,492.38,551.13
10.49691,491.68,548.35
10.51546,495.91,546.37
10.53631,491.70,546.55
10.55652,489.67,547.75
10.57633,493.43,543.35
10.59536,493.39,542.98
10.61636,491.20,535.89
10.63678,489.11,533.86
10.65696,488.99,532.27
10.67630,486.02,535.76
10.69680,489.72,532.67
10.71727,491.66,530.69
10.73692,490.62,526.49
10.75712,489.79,525.25
10.77757,489.80,526.42
10.79742,490.24,521.71
10.81753,487.17,525.48
10.83795,488.70,527.87
10.85702,489.62,524.79
10.87693,492.60,527.74
10.89711,488.66,525.70
10.91766,489.37,522.05
10.93785,490.17,524.02
10.95788,488.37,522.51
10.97674,487.02,525.05
10.99596,487.67,523.53
11.01640,489.69,522.53
11.03792,487.07,522.72
11.05689,486.68,516.84
11.07783,490.35,519.82
11.09627,486.95,521.19
11.11767,486.82,520.13
11.13642,488.32,521.89
11.15624,488.04,525.17
11.17764,489.57,537.01
11.19689,492.09,556.83
11.21744,497.71,580.00
11.23728,500.90,591.65
11.25639,503.37,591.40
11.27779,499.64,571.19
11.29620,497.16,535.59
11.31711,492.48,493.28
11.33699,489.24,453.40
11.35763,486.04,425.76
11.37758,484.70,405.27
11.39764,482.47,392.89
11.41725,481.67,392.25
11.43759,478.99,387.20
11.45776,478.84,392.69
11.47750,479.41,402.72
11.49774,483.16,407.71
11.51637,480.06,416.01
11.53776,482.49,424.94
11.55696,482.01,434.38
11.57652,483.51,442.88
11.59720,481.82,449.52
11.61639,486.92,460.10
11.63789,484.93,467.37
11.65667,485.10,472.66
11.67725,485.87,482.09
11.69650,486.65,483.92
11.71780,489.64,488.49
11.73791,488.97,492.93
11.75619,489.56,498.28
11.77663,491.30,500.75
11.79725,491.63,504.55
11.81681,492.51,508.68
11.83809,492.24,511.37
11.85727,489.92,512.82
11.87781,488.26,511.30
11.89635,488.41,515.41
11.91648,489.34,515.26
11.93708,490.39,513.65
11.95767,490.70,513.86
11.97713,489.39,517.99
11.99675,490.47,517.83
12.01728,489.90,519.46
12.03694,492.16,517.77
12.05745,489.10,520.99
12.07644,487.96,520.72
12.09716,489.71,518.42
12.11632,489.15,520.14
12.13874,489.36,519.33
12.15751,487.33,521.46
12.17767,490.07,522.87
12.19893,489.74,520.21
12.21832,489.90,519.92
12.23735,489.10,520.39
12.25772,485.84,521.76
12.27798,486.53,523.07
12.29857,486.83,523.52
12.31789,489.77,522.02
12.33916,486.53,523.65
12.35760,489.43,520.58
12.37793,490.24,521.56
12.39870,489.33,523.18
12.41871,490.14,520.89
12.43742,489.15,521.78
12.45879,489.44,521.89
12.47730,491.54,521.25
12.49814,489.29,519.11
12.51896,493.27,518.86
12.53845,493.36,520.01
12.55759,491.20,522.03
12.57719,489.33,521.03
12.59776,489.06,519.92
12.61804,490.43,521.80
12.63724,489.45,520.01
12.65810,489.01,520.23
12.67841,491.51,520.46
12.69829,488.81,521.10
12.71894,488.67,519.76
12.73707,489.63,522.00
12.75712,488.14,522.03
12.77845,489.97,519.92
12.79718,490.91,519.95
12.81712,489.67,519.85
12.83897,489.58,521.40
12.85701,488.87,519.44
12.87904,488.89,520.29
12.89879,488.95,519.16
12.91749,488.07,519.88
12.93806,490.36,521.02
12.95799,489.33,521.33
12.97723,490.33,518.05
12.99799,489.11,522.79
13.01798,491.23,518.56
13.03691,491.55,518.90
13.05719,489.96,518.47
13.07700,488.91,521.39
13.09703,489.67,522.61
13.11897,491.88,523.03
13.13757,488.32,524.48
13.15819,490.43,520.71
13.17714,489.04,522.17
13.19773,489.29,520.94
13.21837,489.97,521.11
13.23747,490.16,522.51
13.25862,487.08,520.83
13.27785,490.64,520.58
13.29835,488.25,523.42
13.31783,488.97,522.81
13.33860,489.10,520.53
13.35854,487.53,522.91
13.37761,488.57,522.27
13.39767,488.74,521.84
13.41796,488.39,522.69
13.43823,491.94,521.53
13.45905,490.74,523.48
13.47777,489.33,519.96
13.49868,489.54,524.29
13.51713,486.87,523.92
13.53833,489.72,522.93
13.55800,492.48,522.10
13.57854,489.07,521.14
13.59710,489.77,521.35
13.61798,490.00,520.32
13.63859,489.29,519.92
13.65900,493.20,519.51
13.67727,492.21,521.64
13.69877,490.73,521.01
13.71906,492.44,524.42
13.73821,489.75,522.85
13.75757,491.00,521.44
13.77722,490.90,523.26
13.79850,491.99,521.10
13.81887,490.15,522.61
13.83808,489.10,521.94
13.85744,486.82,522.32
13.87778,487.08,521.34
13.89788,489.29,522.40
13.91759,490.72,520.19
13.93744,491.92,521.38
13.95740,491.20,520.52
13.97706,492.15,524.27
13.99748,494.64,521.24
14.01774,491.70,520.77
14.03858,493.53,522.60
14.05767,493.05,520.35
14.07786,490.60,519.20
14.09728,490.22,518.52
14.11682,491.17,518.15
14.13671,488.21,525.88
14.15784,487.82,541.95
14.17776,488.79,564.19
14.19907,495.05,590.07
14.21849,493.57,611.43
14.23829,495.87,629.82
14.25833,496.37,636.71
14.27810,497.63,634.39
14.29810,499.40,630.25
14.31827,497.73,613.89
14.33797,499.76,605.49
14.35816,501.04,597.31
14.37736,496.85,585.67
14.39719,499.36,575.32
14.41778,495.02,563.88
14.43785,496.60,556.23
14.45717,493.94,551.89
14.47886,492.54,547.27
14.49711,493.19,540.64
14.51811,489.55,536.50
14.53725,490.28,535.97
14.55712,489.02,535.15
14.57739,491.33,531.51
14.59782,491.51,529.55
14.61742,490.22,530.53
14.63764,490.81,529.94
14.65734,490.56,524.99
14.67741,487.16,527.72
14.69882,489.64,527.22
14.71873,488.85,527.03
14.73885,486.71,528.13
14.75815,487.68,528.49
14.77753,488.21,527.63
14.79753,487.03,524.86
14.81729,486.41,524.63
14.83768,486.09,526.49
14.85709,484.45,521.15
14.87736,487.48,521.57
14.89877,487.84,524.03
14.91754,486.23,522.59
14.93813,485.91,521.60
14.95834,488.63,524.06
14.97779,489.87,524.79
14.99740,487.00,524.01
15.01714,488.40,523.01
15.03699,488.97,523.15
15.05724,487.85,524.95
15.07708,487.09,522.18
15.09722,487.75,525.68
15.11815,489.72,523.62
15.13865,489.34,525.15
15.15808,488.32,522.95
15.17708,487.60,521.57
15.19729,486.50,503.45
15.21811,484.08,479.13
15.23733,482.89,455.66
15.25847,480.66,441.00
15.27703,476.70,428.19
15.29812,477.62,423.77
15.31713,477.02,424.85
15.33877,473.98,430.07
15.35840,477.37,435.06
15.37879,477.86,440.18
15.39885,480.10,450.47
15.41877,480.05,457.60
15.43725,482.59,462.70
15.45868,482.64,468.35
15.47845,481.77,475.82
15.49908,482.58,483.25
15.51720,483.24,487.14
15.53794,484.98,489.73
15.55865,486.54,496.59
15.57764,488.82,498.27
15.59710,488.79,501.49
15.61838,486.32,506.91
15.63750,488.51,510.36
15.65724,487.41,512.38
15.67768,488.11,515.47
15.69895,487.34,517.84
15.71729,490.50,520.87
15.73781,489.12,517.44
15.75873,488.31,521.02
15.77701,490.23,522.52
15.79822,487.99,522.85
15.81896,486.89,525.14
15.83966,490.39,522.34
15.85870,487.11,522.72
15.87975,486.69,521.62
15.89937,484.05,523.02
15.91826,483.69,521.09
15.93970,485.84,521.51
15.95832,482.21,519.71
15.97832,480.64,518.33
15.99933,482.01,521.27
16.01807,484.00,520.30
16.03899,483.16,521.55
16.05903,484.82,518.65
16.07830,482.84,522.28
16.09986,483.37,520.25
16.11916,482.90,518.87
16.13978,483.68,520.67
16.15862,484.15,522.69
16.17961,481.90,522.45
16.19807,485.32,522.47
16.21932,485.33,519.59
16.23795,486.32,518.75
16.25953,485.55,517.99
16.27890,484.11,520.78
16.29985,484.83,521.42
16.31876,482.85,518.89
16.33954,485.41,521.02
16.35948,484.71,521.35
16.37863,485.71,520.97
16.39850,485.65,520.67
16.41856,483.23,519.18
16.43884,486.04,518.58
16.45946,482.72,520.13
16.47815,483.27,520.48
16.49907,483.51,515.43
16.51975,480.59,520.21
16.53874,481.29,520.06
16.55862,483.29,521.92
16.57782,481.29,520.96
16.59889,479.76,523.49
16.61878,480.70,524.45
16.63798,482.81,522.76
16.65837,483.22,524.08
16.68039,482.85,524.26
16.70003,485.10,524.55
16.71957,483.48,524.77
16.74041,483.37,523.67
16.75894,482.93,520.11
16.77883,484.10,517.78
16.80012,479.23,520.67
16.82081,480.35,519.85
16.83997,481.45,519.44
16.86029,481.58,516.66
16.88078,479.48,518.01
16.89986,480.06,517.59
16.92033,480.91,519.80
16.93972,480.90,517.57
16.95911,478.31,520.18
16.98056,479.14,517.53
16.99940,480.59,519.25
17.02050,477.99,519.46
17.03906,481.87,517.04
17.05999,479.35,517.35
17.08051,476.65,518.58
17.09904,478.15,517.00
17.12076,479.17,519.66
17.14073,481.50,519.54
17.15955,480.09,518.43
17.17890,480.97,521.37
17.19900,483.44,521.52
17.21983,479.89,520.21
17.23899,478.72,521.26
17.26020,480.74,521.81
17.27904,476.60,519.98
17.30000,479.01,520.39
17.32091,476.93,519.91
17.33959,476.52,518.33
17.36084,479.04,521.59
17.37962,479.04,518.58
17.40054,478.79,520.51
17.42040,476.38,520.98
17.43912,476.66,518.60
17.46029,478.57,519.35
17.48036,476.13,520.58
17.49901,476.83,519.30
17.51997,477.81,519.87
17.54051,477.68,521.83
17.55968,477.40,519.15
17.58023,478.15,522.40
17.59981,478.01,520.94
17.62075,476.67,523.98
17.64044,478.83,519.68
17.65955,477.91,522.25
17.67939,476.20,518.02
17.70034,474.61,519.39
17.71910,474.91,520.46
17.74085,475.27,519.89
17.76003,474.69,518.94
17.78059,474.18,522.20
17.80040,473.99,518.74
17.82081,475.33,519.33
17.83919,473.50,519.12
17.86059,474.36,522.18
17.88065,473.05,520.41
17.89915,474.80,523.00
17.91964,475.67,522.57
17.93972,473.60,520.55
17.95994,475.43,521.36
17.97981,474.80,519.85
18.00006,477.76,520.57
18.01912,475.92,522.61
18.04013,476.91,518.48
18.05991,477.32,518.38
18.08066,476.18,518.41
18.09949,474.89,521.11
18.12049,476.84,521.73
18.13943,476.82,521.15
18.15994,478.34,520.02
18.17966,478.19,520.27
18.20008,478.19,519.95
18.22041,477.17,520.47
18.23926,478.08,520.03
18.25958,474.22,520.35
18.27930,474.56,520.70
18.30061,473.85,519.73
18.31897,473.77,518.62
18.34025,475.48,518.59
18.35980,473.43,519.11
18.37938,476.48,517.73
18.39982,474.26,518.78
18.42057,475.70,520.59
18.44047,475.31,517.68
18.46076,473.73,519.93
18.48014,470.84,517.14
18.49945,473.23,518.01
18.51955,472.63,519.70
18.53904,473.91,516.74
18.55899,473.49,515.43
18.58012,474.91,517.74
18.60073,476.33,517.35
18.62031,475.60,516.05
18.64078,474.40,517.88
18.66089,477.39,518.12
18.68030,476.04,515.23
18.70024,473.50,517.47
18.71923,475.36,516.87
18.74040,476.66,515.48
18.76059,474.32,516.71
18.77923,475.79,513.83
18.80064,473.85,514.35
18.82058,476.16,516.76
18.83960,475.06,513.76
18.85903,476.15,511.65
18.88052,475.16,512.10
18.89894,476.60,507.88
18.92012,475.75,505.64
18.93938,473.29,503.06
18.95922,475.09,507.18
18.97914,474.75,506.64
18.99902,474.88,504.82
19.01928,476.41,514.90
19.04162,476.43,533.71
19.06217,479.01,556.30
19.08134,481.23,583.03
19.10107,483.69,593.84
19.12208,484.29,602.05
19.14112,483.44,604.07
19.16107,482.61,603.94
19.18118,481.91,595.48
19.20109,479.50,586.83
19.22132,478.84,578.40
19.24181,476.92,572.87
19.26207,474.64,563.54
19.28209,470.76,559.84
19.30108,469.63,552.86
19.32266,470.54,545.89
19.34290,469.54,542.38
19.36301,471.01,536.88
19.38301,472.31,535.09
19.40213,468.68,530.87
19.42210,470.58,528.04
19.44238,470.10,526.06
19.46321,466.84,525.91
19.48291,469.34,525.28
19.50368,468.01,521.45
19.52350,466.58,522.95
19.54281,467.78,522.31
19.56286,468.48,521.14
19.58259,465.59,519.82
19.60307,467.92,522.51
19.62307,467.78,521.03
19.64367,468.07,521.62
19.66226,465.97,522.30
19.68244,467.51,519.14
19.70351,466.24,519.83
19.72348,466.31,521.91
19.74198,467.19,518.91
19.76285,467.50,517.76
19.78386,471.25,519.35
19.80246,467.28,514.05
19.82244,468.35,517.44
19.84195,466.88,517.07
19.86346,465.72,514.14
19.88297,467.60,515.78
19.90305,469.03,516.72
19.92367,468.39,512.28
19.94321,468.94,515.02
19.96294,466.22,517.08
19.98207,469.25,517.28
20.00207,468.82,518.80
20.02303,470.54,522.03
20.04286,470.35,520.44
20.06222,471.88,520.14
20.08361,470.62,514.38
20.10280,468.57,495.81
20.12315,463.76,476.95
20.14310,460.48,456.09
20.16328,457.17,443.72
20.18241,456.83,434.78
20.20310,457.88,436.08
20.22193,455.33,435.81
20.24346,459.55,436.53
20.26194,457.42,437.72
20.28276,457.44,445.22
20.30243,459.55,448.81
20.32192,460.18,455.68
20.34230,457.60,461.87
20.36192,458.23,468.43
20.38273,459.19,471.17
20.40218,460.63,478.03
20.42192,463.15,479.90
20.44293,465.41,487.23
20.46360,465.21,492.25
20.48327,467.75,495.54
20.50203,467.62,493.37
20.52327,466.23,497.72
20.54266,465.61,500.28
20.56324,466.13,501.44
20.58300,467.24,504.82
20.60256,467.21,503.93
20.62274,469.49,503.94
20.64344,466.79,505.43
20.66323,469.12,506.84
20.68191,467.76,509.37
20.70328,467.13,508.62
20.72294,466.77,510.22
20.74275,469.97,511.39
20.76207,468.94,511.04
20.78210,470.39,512.48
20.80340,468.12,510.64
20.82266,470.06,513.81
20.84299,468.72,512.83
20.86321,469.53,513.68
20.88374,470.18,511.19
20.90270,469.79,512.75
20.92308,470.13,512.97
20.94357,468.42,511.36
20.96374,467.63,515.12
20.98240,470.97,512.05
21.00295,468.15,512.93
21.02188,468.74,512.94
21.04233,469.74,515.07
21.06395,469.25,513.73
21.08349,470.26,511.66
21.10287,468.72,513.88
21.12246,469.11,512.01
21.14324,467.31,513.93
21.16334,467.16,512.36
21.18224,467.10,515.78
21.20456,467.53,513.98
21.22462,468.84,514.98
21.24328,470.04,517.11
21.26431,471.02,514.22
21.28439,472.66,517.02
21.30512,472.36,517.39
21.32493,472.10,517.44
21.34523,471.45,513.75
21.36604,472.72,513.31
21.38515,476.45,513.30
21.40670,476.66,516.18
21.42628,476.77,511.93
21.44568,477.49,515.97
21.46670,480.06,514.77
21.48492,476.46,516.18
21.50559,479.75,514.61
21.52653,480.02,515.07
21.54653,477.35,515.66
21.56760,480.21,515.02
21.58740,479.58,514.92
21.60582,481.42,513.26
21.62787,482.28,518.12
21.64817,482.89,516.96
21.66798,481.85,518.86
21.68753,480.61,516.59
21.70860,483.76,516.20
21.72764,483.01,518.78
21.74812,487.52,517.72
21.76686,485.39,518.71
21.78836,485.08,519.02
21.80783,486.27,520.55
21.82664,485.71,519.16
21.84751,483.78,520.19
21.86740,484.33,517.69
21.88811,486.60,521.83
21.90701,486.26,519.00
21.92760,485.07,518.76
21.94825,488.39,519.97
21.96786,488.16,519.25
21.98841,487.27,517.45
22.00844,485.63,518.94
22.02787,484.14,519.56
22.04711,486.95,520.53
22.06707,487.57,518.56
22.08706,484.46,520.18
22.10858,486.86,518.62
22.12841,487.80,521.74
22.14803,487.85,521.23
22.16818,489.86,521.77
22.18823,490.10,520.51
22.20930,488.53,522.79
22.22892,490.47,523.46
22.24871,489.04,524.95
22.26874,489.16,521.81
22.28860,489.17,521.89
22.30950,488.50,522.33
22.32819,486.49,521.53
22.34791,486.07,523.80
22.36919,484.38,522.56
22.38880,485.86,522.96
22.40874,484.03,521.09
22.42926,483.65,520.24
22.44971,485.75,521.60
22.46978,486.25,517.80
22.48872,483.32,519.56
22.50970,486.69,520.69
22.52859,488.38,520.08
22.54905,486.14,522.21
22.56922,487.68,521.98
22.58856,486.52,522.93
22.60823,486.36,523.40
22.62908,485.19,520.01
22.64914,484.91,522.14
22.66866,487.62,521.55
22.68883,487.15,520.68
22.70815,488.92,518.36
22.72882,486.48,518.12
22.74942,488.85,520.62
22.76858,485.61,519.59
22.78974,486.56,520.77
22.80898,488.71,521.39
22.82932,486.38,519.45
22.84922,488.48,517.80
22.86938,487.30,519.47
22.88844,488.67,519.21
22.90899,486.05,518.32
22.92895,487.92,517.83
22.94992,487.28,518.61
22.96927,485.45,517.99
22.98918,484.60,520.63
23.00857,486.84,517.16
23.02909,484.89,516.36
23.04943,486.18,519.66
23.06937,488.24,517.31
23.08882,489.29,517.00
23.10799,487.86,520.70
23.12929,486.01,521.21
23.14875,485.81,520.82
23.16802,487.80,520.74
23.18825,488.67,519.58
23.20777,488.60,532.04
23.22800,490.60,546.66
23.24796,493.37,561.14
23.26949,492.85,576.02
23.28793,492.15,583.92
23.30964,491.88,590.17
23.32800,494.79,594.84
23.34911,493.70,591.40
23.36901,495.78,593.41
23.38939,498.31,587.66
23.40905,499.12,589.27
23.42787,501.33,589.86
23.44974,501.94,586.08
23.46823,502.50,582.82
23.48857,501.60,582.14
23.50826,500.89,574.44
23.52854,498.50,572.79
23.54844,500.94,566.54
23.56824,501.92,568.53
23.58974,502.42,561.99
23.60789,500.79,563.19
23.62878,499.72,559.52
23.65076,497.70,556.32
23.66982,497.66,553.57
23.68961,497.52,550.67
23.70909,493.69,549.64
23.73073,494.72,545.35
23.75058,492.85,544.69
23.76938,492.76,543.68
23.79060,491.67,540.00
23.81026,492.18,537.14
23.82899,492.22,535.51
23.84965,492.06,529.53
23.87053,490.57,532.06
23.89045,490.81,532.03
23.91050,488.69,532.09
23.93120,487.52,533.58
23.95091,488.62,533.44
23.97040,488.06,531.96
23.99074,487.82,531.51
24.01043,489.73,529.06
24.03104,489.00,531.31
24.05148,489.41,527.45
24.07142,489.33,525.72
24.09161,487.56,526.14
24.10991,491.90,529.53
24.13103,488.11,528.87
24.15173,488.96,526.17
24.17147,489.00,523.71
24.19268,491.60,522.47
24.21257,488.64,515.65
24.23212,488.11,501.95
24.25176,484.25,487.91
24.27073,483.24,470.57
24.29272,478.38,456.02
24.31249,475.41,443.28
24.33217,470.92,432.56
24.35267,472.84,424.17
24.37172,470.72,420.44
24.39177,471.22,414.60
24.41232,471.77,414.20
24.43152,471.20,420.48
24.45119,472.34,427.46
24.47135,472.51,430.90
24.49144,474.23,439.44
24.51170,476.91,443.78
24.53128,476.40,449.55
24.55118,480.32,457.01
24.57154,479.71,462.89
24.59133,482.73,468.12
24.61142,480.20,473.04
24.63194,480.95,478.07
24.65140,484.55,484.16
24.67205,485.51,485.21
24.69245,482.35,489.89
24.71171,485.70,498.15
24.73265,484.55,500.02
24.75119,484.47,502.54
24.77071,483.15,509.68
24.79232,483.48,509.41
24.81177,488.81,515.27
24.83257,492.51,520.12
24.85160,495.81,522.01
24.87223,495.69,522.46
24.89150,495.55,525.53
24.91174,498.31,524.97
24.93238,499.47,525.05
24.95212,497.11,523.92
24.97248,495.63,526.00
24.99094,493.38,524.04
25.01234,495.63,520.20
25.03103,493.47,521.68
25.05141,492.97,521.52
25.07241,490.62,520.92
25.09261,492.97,517.09
25.11158,490.91,516.52
25.13130,491.28,516.92
25.15210,491.59,515.92
25.17125,489.33,517.13
25.19228,489.70,516.78
25.21219,488.77,517.27
25.23151,489.55,520.74
25.25166,490.20,521.33
25.27116,490.71,520.35
25.29102,490.52,522.03
25.31245,487.34,520.33
25.33123,487.94,521.16
25.35122,487.21,520.42
25.37267,486.85,517.57
25.39089,484.47,520.62
25.41217,484.33,517.79
25.43224,486.85,515.83
25.45193,486.29,517.30
25.47089,485.43,516.78
25.49088,484.08,518.50
25.51194,487.72,518.39
25.53261,487.76,515.99
25.55196,485.89,519.50
25.57118,486.63,516.77
25.59260,486.21,518.50
25.61072,487.12,516.66
25.63184,487.39,517.91
25.65228,487.37,518.98
25.67082,489.79,516.76
25.69245,487.60,516.84
25.71188,486.88,519.05
25.73171,486.81,520.06
25.75184,488.46,521.03
25.77233,489.91,520.34
25.79167,486.41,522.94
25.81089,487.12,521.31
25.83075,487.78,521.95
25.85145,484.52,520.21
25.87073,486.95,522.53
25.89162,488.65,521.01
25.91169,487.18,519.54
25.93210,488.08,519.79
25.95125,487.42,521.91
25.97252,488.77,519.88
25.99052,488.18,518.34
26.01055,487.18,519.08
26.03180,484.54,518.72
26.05213,487.39,517.11
26.07136,489.19,517.50
26.09165,488.82,514.97
26.11065,489.29,517.67
26.13102,485.17,518.15
26.15168,483.72,517.49
26.17140,486.22,516.19
26.19233,486.41,518.59
26.21114,484.57,519.75
26.23091,483.51,521.28
26.25233,484.90,519.88
26.27180,483.59,519.22
26.29196,483.58,520.11
26.31104,486.40,519.63
26.33151,486.76,518.80
26.35149,484.67,520.75
26.37250,485.01,517.53
26.39226,483.03,519.58
26.41119,485.07,518.80
26.43233,484.90,518.06
26.45298,483.06,520.03
26.47333,485.31,519.30
26.49364,480.36,521.66
26.51303,479.18,521.26
26.53173,479.58,518.66
26.55202,480.66,520.32
26.57192,482.01,518.54
26.59244,480.77,522.47
26.61213,483.00,521.78
26.63194,483.13,520.91
26.65335,484.84,522.04
26.67190,483.62,522.59
26.69331,483.29,522.04
26.71337,484.80,519.17
26.73364,482.86,521.19
26.75254,482.72,522.11
26.77290,484.75,521.81
26.79186,483.04,522.83
26.81225,485.89,521.46
26.83287,484.99,522.35
26.85354,486.01,521.23
26.87252,483.67,520.34
26.89202,484.90,520.61
26.91202,482.23,519.00
26.93380,482.12,521.09
26.95225,481.98,518.18
26.97199,480.39,521.25
26.99247,482.02,519.95
27.01302,483.06,517.39
27.03176,479.99,520.95
27.05175,480.26,520.81
27.07214,481.24,520.40
27.09349,481.16,519.52
27.11376,482.07,518.49
27.13198,479.65,517.06
27.15274,480.61,520.13
27.17274,481.26,516.04
27.19314,480.54,519.52
27.21236,479.11,536.41
27.23271,480.95,565.16
27.25373,481.53,600.81
27.27367,485.21,617.11
27.29254,486.05,632.73
27.31178,486.74,634.59
27.33323,486.10,636.46
27.35220,485.77,625.97
27.37261,485.85,622.31
27.39270,485.85,613.37
27.41325,485.35,606.76
27.43266,484.24,598.19
27.45301,487.44,587.96
27.47243,487.28,581.61
27.49265,489.58,581.00
27.51243,491.26,574.22
27.53159,492.66,567.69
27.55357,490.23,560.53
27.57308,491.67,556.23
27.59200,488.77,553.64
27.61176,490.65,550.77
27.63325,489.75,544.83
27.65284,487.39,543.48
27.67188,483.35,539.75
27.69278,485.89,535.79
27.71187,482.00,536.61
27.73264,482.89,530.73
27.75174,480.91,530.20
27.77353,481.04,529.32
27.79232,481.78,528.95
27.81336,482.34,526.55
27.83160,481.15,530.92
27.85318,480.93,529.27
27.87274,480.90,524.57
27.89256,480.99,525.11
27.91174,480.07,523.66
27.93246,477.47,523.37
27.95233,480.41,521.32
27.97318,478.72,519.58
27.99317,479.41,521.14
28.01295,480.03,523.23
28.03246,479.71,517.98
28.05334,480.17,519.82
28.07354,477.05,519.82
28.09303,478.35,520.00
28.11252,477.05,518.59
28.13215,480.12,520.88
28.15366,477.02,520.72
28.17272,479.12,520.31
28.19303,475.58,519.61
28.21230,475.32,522.26
28.23329,476.16,530.10
28.25197,478.69,540.39
28.27277,479.38,538.72
28.29300,480.19,528.72
28.31200,475.90,496.59
28.33234,472.41,464.19
28.35314,467.98,431.55
28.37286,467.79,411.67
28.39388,467.69,395.68
28.41374,465.26,394.07
28.43282,465.27,398.68
28.45447,463.34,402.55
28.47320,467.61,408.82
28.49353,467.76,418.11
28.51374,467.13,430.01
28.53403,466.70,438.48
28.55348,467.32,444.82
28.57369,467.50,455.34
28.59367,467.27,463.77
28.61463,467.49,469.21
28.63371,463.10,476.24
28.65556,455.25,488.15
28.67401,450.43,491.29
28.69482,448.49,496.71
28.71525,446.92,497.61
28.73488,447.40,504.24
28.75455,449.07,506.98
28.77479,447.31,506.20
28.79491,449.49,507.42
28.81546,450.50,510.08
28.83512,451.40,511.45
28.85467,452.89,510.76
28.87365,454.08,508.07
28.89377,458.33,509.23
28.91535,459.89,510.35
28.93412,460.64,511.08
28.95440,463.42,513.24
28.97449,461.96,514.07
28.99512,462.52,513.40
29.01463,463.87,516.16
29.03433,467.76,517.54
29.05531,464.69,518.74
29.07477,467.49,517.24
29.09394,467.51,519.29
29.11507,468.17,516.75
29.13424,468.25,514.06
29.15555,470.77,517.21
29.17416,469.53,515.57
29.19381,468.18,515.86
29.21532,470.18,514.90
29.23445,470.22,517.91
29.25518,467.58,515.00
29.27494,468.63,518.61
29.29513,468.37,520.14
29.31523,468.97,516.66
29.33523,467.33,518.04
29.35426,472.69,517.22
29.37418,481.43,518.18
29.39384,488.06,514.54
29.41545,488.99,517.15
29.43528,490.82,516.21
29.45541,489.47,515.03
29.47485,488.05,513.89
29.49351,488.98,512.14
29.51546,489.60,514.97
29.53547,485.71,516.10
29.55390,484.23,513.48
29.57373,484.08,511.69
29.59416,481.23,511.91
29.61557,481.82,514.76
29.63493,477.90,513.77
29.65446,479.23,515.22
29.67428,476.41,515.76
29.69400,472.77,514.45
29.71374,473.70,513.81
29.73521,469.54,516.35
29.75375,469.04,515.74
29.77411,473.18,516.31
29.79413,473.50,516.26
29.81419,472.98,518.89
29.83567,471.33,517.36
29.85428,472.65,515.12
29.87517,470.25,517.10
29.89524,470.48,513.23
29.91424,472.55,514.01
29.93535,472.10,517.52
29.95429,470.29,516.17
29.97477,471.60,515.10
29.99524,472.89,516.32
30.01355,471.89,514.03
30.03415,469.98,515.62
30.05473,469.61,513.67
30.07417,469.38,513.46
30.09438,470.52,513.90
30.11515,468.86,515.01
30.13437,470.82,514.74
30.15458,471.08,515.30
30.17540,468.22,514.54
30.19339,469.28,516.34
30.21398,468.56,516.19
30.23379,469.71,516.81
30.25348,467.82,517.00
30.27459,469.07,513.87
30.29407,467.25,512.67
30.31469,466.93,515.34
30.33549,467.09,515.34
30.35388,469.77,513.85
30.37421,468.53,514.49
30.39547,470.46,516.09
30.41420,466.56,514.91
30.43469,469.85,515.36
30.45505,467.10,515.24
30.47546,468.44,514.38
30.49475,468.76,517.83
30.51517,469.82,518.87
30.53505,472.00,517.29
30.55398,471.08,515.45
30.57389,470.90,515.37
30.59343,469.95,512.08
30.61569,468.45,515.48
30.63532,467.62,514.31
30.65521,470.27,516.15
30.67435,470.08,512.91
30.69348,469.98,517.36
30.71565,471.85,517.28
30.73435,471.15,516.61
30.75526,472.88,516.31
30.77489,470.20,515.39
30.79386,471.68,517.33
30.81454,469.64,518.97
30.83389,467.58,514.90
30.85411,467.37,514.89
30.87395,469.81,516.49
30.89420,469.72,516.88
30.91397,469.04,514.51
30.93399,466.35,514.45
30.95368,465.28,516.20
30.97367,469.08,512.94
30.99391,467.29,514.89
31.01427,467.27,515.02
31.03538,466.94,514.73
31.05409,465.47,513.61
31.07450,466.65,514.60
31.09363,466.81,516.01
31.11424,467.97,515.39
31.13417,467.51,515.05
31.15436,466.53,515.15
31.17460,467.31,513.68
31.19451,469.48,514.25
31.21484,468.08,514.84
31.23453,468.08,513.64
31.25377,469.27,510.88
31.27400,466.73,511.40
31.29510,470.24,510.10
31.31447,469.33,512.20
31.33377,469.13,511.87
31.35391,467.69,504.97
31.37442,469.44,512.15
31.39367,470.25,526.77
31.41428,470.58,547.88
31.43360,471.30,567.09
31.45513,469.77,588.38
31.47560,471.28,609.38
31.49360,468.88,621.37
31.51429,472.48,628.60
31.53534,470.18,632.97
31.55441,471.81,628.63
31.57394,474.60,624.31
31.59502,471.99,613.62
31.61389,474.26,603.02
31.63383,478.12,595.81
31.65538,476.83,586.95
31.67368,477.91,574.45
31.69453,478.91,567.61
31.71591,478.41,558.78
31.73627,481.04,550.70
31.75631,476.62,542.29
31.77612,479.30,539.49
31.79635,479.75,534.19
31.81644,477.37,535.24
31.83634,478.19,532.45
31.85751,479.01,530.38
31.87888,478.49,527.15
31.89917,480.93,528.94
31.92040,480.16,527.29
31.93950,480.60,524.71
31.96017,482.80,520.32
31.98048,484.24,521.77
31.99946,483.26,521.47
32.02056,483.79,521.07
32.03958,482.29,518.51
32.06035,485.26,520.22
32.07914,485.01,520.75
32.09959,486.97,520.55
32.11981,483.48,521.63
32.13951,484.58,521.23
32.16034,485.20,521.98
32.17961,483.12,521.31
32.19989,486.14,520.48
32.22078,486.54,518.70
32.23971,485.90,521.08
32.26136,485.24,517.83
32.28079,484.73,518.78
32.30101,484.82,520.89
32.31978,486.74,517.95
32.34144,485.43,519.85
32.36062,485.33,521.74
32.38129,486.72,521.02
32.40146,488.73,519.02
32.42056,485.87,521.54
32.43973,487.23,519.28
32.46119,487.46,510.79
32.48066,481.52,486.79
32.50073,482.71,464.49
32.52109,478.53,439.82
32.54085,475.71,419.34
32.56069,474.76,408.43
32.58079,473.10,404.16
32.60123,475.66,404.22
32.62088,474.28,409.53
32.64053,479.28,415.53
32.66144,477.68,422.77
32.68063,481.98,432.48
32.70130,480.11,440.58
32.72176,483.10,446.04
32.74076,481.84,456.66
32.76159,483.64,461.97
32.78137,485.33,471.04
32.80314,483.71,475.99
32.82390,488.29,483.36
32.84489,487.72,486.63
32.86466,485.87,493.22
32.88572,484.69,494.45
32.90552,486.72,500.18
32.92622,484.94,505.26
32.94680,483.27,507.32
32.96660,482.27,506.67
32.98626,481.89,509.71
33.00687,483.20,513.50
33.02683,479.48,513.43
33.04659,483.13,510.98
33.06731,483.25,514.64
33.08802,483.05,515.01
33.10693,483.37,513.87
33.12724,480.98,516.77
33.14715,483.97,514.03
33.16664,482.69,517.43
33.18730,483.69,516.08
33.20877,479.99,519.18
33.22836,479.40,518.06
33.24770,479.51,517.18
33.26804,480.45,517.64
33.28785,477.92,518.96
33.30876,476.56,518.43
33.32794,479.66,517.94
33.34752,479.56,517.14
33.36766,479.24,516.90
33.38754,480.73,516.85
33.40785,478.18,516.72
33.42923,475.78,518.35
33.44826,478.67,519.78
33.46787,477.17,519.51
33.48736,475.96,517.80
33.50795,475.36,519.79
33.52774,478.51,520.44
33.54778,475.35,519.72
33.56810,476.67,520.66
33.58822,476.16,521.91
33.60745,475.29,522.98
33.62808,474.19,519.34
33.64800,475.15,521.59
33.66822,476.28,518.65
33.68777,476.71,519.34
33.70959,473.42,520.22
33.73020,473.77,518.18
33.75118,474.72,517.16
33.77063,472.62,518.81
33.79093,472.06,516.14
33.81109,469.02,515.21
33.83056,469.83,515.95
33.85009,468.37,516.64
33.87075,468.97,519.18
33.89141,465.90,517.41
33.91159,469.67,517.09
33.93187,466.90,516.48
33.95342,469.12,515.41
33.97412,466.85,516.23
33.99268,469.19,514.98
34.01248,468.88,513.93
34.03266,469.28,517.88
34.05411,470.05,514.63
34.07342,467.76,519.00
34.09383,468.87,516.80
34.11421,468.04,517.38
34.13419,465.43,517.62
34.15291,466.36,514.95
34.17289,466.35,513.85
34.19373,469.03,514.74
34.21335,465.18,513.08
34.23287,468.96,513.10
34.25270,468.96,513.14
34.27307,467.17,513.79
34.29345,467.66,513.41
34.31373,468.41,513.34
34.33407,467.41,512.32
34.35446,470.31,513.81
34.37284,468.92,513.23
34.39240,471.13,510.00
34.41257,470.87,510.63
34.43361,470.71,508.33
34.45402,472.20,506.68
34.47429,468.95,508.30
34.49237,472.24,509.81
34.51264,470.96,508.27
34.53308,470.62,507.51
34.55259,470.81,510.93
34.57356,469.30,508.29
34.59258,474.06,507.49
34.61409,471.69,508.62
34.63599,474.67,510.85
34.65574,474.37,511.72
34.67779,477.42,511.51
34.69797,480.40,512.66
34.71748,480.21,513.19
34.73779,479.56,513.19
34.75706,482.93,513.05
34.77753,482.21,513.79
34.79651,483.24,515.69
34.81885,484.61,512.70
34.83877,484.98,514.59
34.85904,486.04,517.67
34.87751,486.49,514.78
34.89810,486.71,515.62
34.91942,487.51,518.12
34.93813,487.43,516.55
34.95820,487.32,515.03
34.97947,486.40,516.90
34.99797,488.97,515.82
35.01925,489.22,516.40
35.03884,490.00,518.94
35.05888,488.16,515.57
35.07838,486.67,517.51
35.09830,487.64,519.27
35.11755,487.20,519.20
35.13813,487.75,516.80
35.15932,486.29,517.15
35.17823,487.69,518.45
35.19890,487.89,518.77
35.21769,485.48,518.66
35.23916,485.56,518.68
35.25889,488.24,518.13
35.27792,489.14,517.89
35.29876,488.01,517.10
35.31929,487.94,519.65
35.33902,488.28,520.39
35.35752,487.04,519.58
35.37892,488.86,522.00
35.39765,490.06,517.62
35.41825,489.71,519.60
35.43886,488.17,517.48
35.45944,487.45,517.16
35.47828,489.30,519.93
35.49934,488.26,520.26
35.51837,491.80,519.32
35.53829,489.04,522.16
35.55756,490.48,520.21
35.57760,490.90,519.39
35.59881,490.95,520.73
35.61904,488.43,517.97
35.63787,490.84,519.34
35.65768,489.50,518.81
35.67768,490.23,522.65
35.69755,487.88,518.27
35.71727,491.30,519.86
35.73802,488.77,520.85
35.75812,490.62,520.63
35.77869,491.87,519.50
35.79860,493.23,518.87
35.81817,490.92,521.17
35.83795,493.14,527.60
35.85836,493.04,548.61
35.87881,492.18,573.43
35.89837,495.89,597.46
35.91876,494.69,614.96
35.93763,497.94,625.20
35.95857,495.22,627.91
35.97868,496.58,629.66
35.99727,495.40,620.62
36.01744,495.64,615.04
36.03801,494.32,604.26
36.05766,495.83,595.57
36.07810,494.17,589.11
36.09916,494.22,581.29
36.11759,496.66,572.41
36.13875,497.35,563.98
36.15931,496.92,560.34
36.17908,494.52,553.68
36.19886,495.70,545.78
36.21823,495.14,544.23
36.23791,495.53,541.05
36.25923,492.28,536.07
36.27906,492.16,535.80
36.29745,490.98,536.48
36.31825,492.40,535.69
36.33802,491.56,531.86
36.35890,489.64,530.41
36.37789,491.77,529.55
36.39881,489.74,527.98
36.41777,491.96,531.79
36.43890,491.29,530.12
36.45808,492.50,527.71
36.47891,494.46,524.76
36.49844,496.27,525.78
36.51765,494.29,529.21
36.53796,493.47,528.15
36.55747,494.53,528.85
36.57908,495.85,528.71
36.59911,495.68,527.15
36.61811,492.26,526.86
36.63858,493.75,524.62
36.65780,493.16,522.47
36.67877,489.70,523.22
36.69761,490.83,523.07
36.71872,489.31,523.43
36.73888,489.53,524.35
36.75781,492.03,522.45
36.77798,492.14,523.31
36.79894,492.76,525.52
36.81846,490.25,527.04
36.83780,492.82,518.62
36.85877,491.01,499.34
36.87896,489.34,470.14
36.89901,484.84,444.25
36.91968,486.12,427.22
36.93977,484.90,417.28
36.95959,482.83,414.62
36.97973,484.85,417.29
36.99909,484.07,421.49
37.01903,484.32,426.14
37.03999,483.37,432.67
37.06026,483.19,441.95
37.07836,488.33,447.98
37.10008,485.66,457.82
37.11982,484.39,467.55
37.13925,487.30,471.02
37.15933,486.82,477.78
37.17903,488.86,486.26
37.19931,489.57,490.80
37.21882,488.49,493.70
37.23849,490.07,500.55
37.25899,488.85,504.37
37.27839,489.87,506.38
37.29950,487.73,511.35
37.31836,488.63,511.97
37.33863,492.22,512.07
37.35955,491.91,517.13
37.38016,489.73,513.58
37.39835,490.98,517.87
37.41832,489.35,518.39
37.43849,486.75,520.24
37.45886,488.16,521.02
37.48036,487.75,522.51
37.49963,487.47,522.97
37.51940,484.95,521.33
37.53871,485.71,521.40
37.55909,484.19,521.78
37.57915,485.47,519.97
37.60021,487.89,522.13
37.61932,488.50,524.21
37.63891,489.56,520.45
37.65986,486.40,521.05
37.67865,488.45,521.27
37.69872,487.85,522.24
37.71843,489.80,523.86
37.73914,489.58,525.12
37.75903,491.30,520.53
37.77994,488.22,522.81
37.80094,486.98,520.89
37.82006,488.17,523.39
37.84030,489.90,521.46
37.86128,487.14,522.34
37.88009,486.40,523.12
37.90003,486.29,524.18
37.92078,487.23,521.11
37.94066,487.86,523.43
37.96066,484.82,523.63
37.98033,483.73,519.14
37.99933,482.77,519.16
38.02096,482.17,517.42
38.04060,484.84,518.81
38.06028,483.07,519.52
38.08097,486.06,521.47
38.10007,483.02,521.18
38.12085,484.46,520.25
38.14106,484.19,521.28
38.16104,482.89,519.98
38.18045,482.27,523.38
38.20213,483.87,523.59
38.22046,484.65,521.34
38.24096,483.83,521.22
38.26163,483.68,524.27
38.28058,481.64,521.12
38.30117,483.22,523.31
38.32227,481.44,522.69
38.34141,482.98,520.56
38.36050,480.65,520.75
38.38062,481.86,523.32
38.40191,481.82,524.32
38.42204,485.55,525.31
38.44127,482.95,524.29
38.46223,482.42,522.16
38.48209,482.89,523.11
38.50171,483.97,519.63
38.52074,483.67,519.52
38.54059,481.38,520.42
38.56151,484.54,520.64
38.58071,485.58,522.41
38.60072,483.49,522.30
38.62066,484.26,519.19
38.64080,484.74,521.28
38.66087,485.73,522.65
38.68120,484.77,520.57
38.70198,484.09,521.39
38.72229,483.44,520.35
38.74180,481.40,521.46
38.76200,482.80,521.72
38.78217,483.61,521.59
38.80152,485.14,524.07
38.82176,484.91,520.82
38.84092,482.92,520.52
38.86095,481.71,519.78
38.88224,482.57,522.38
38.90098,482.54,520.03
38.92167,482.69,523.92
38.94077,480.72,521.55
38.96117,484.05,519.89
38.98132,484.11,522.07
39.00171,481.94,520.71
39.02030,482.74,520.34
39.04136,479.43,521.60
39.06139,482.21,521.66
39.08126,481.21,522.93
39.10082,481.88,522.17
39.12180,480.96,522.28
39.14220,479.40,519.02
39.16090,482.16,520.91
39.18086,479.37,518.96
39.20096,479.87,520.87
39.22217,482.01,520.92
39.24139,480.18,519.95
39.26215,481.92,519.32
39.28122,482.34,519.37
39.30082,481.43,521.04
39.32133,480.66,519.92
39.34163,479.49,519.72
39.36080,477.87,518.64
39.38141,479.57,519.44
39.40059,480.60,520.74
39.42222,479.45,520.12
39.44193,478.98,522.37
39.46152,479.68,520.56
39.48050,479.01,521.40
39.50155,482.91,521.17
39.52129,481.79,522.55
39.54168,480.68,520.93
39.56194,479.46,521.28
39.58045,477.51,523.78
39.60190,481.28,521.64
39.62047,480.50,522.76
39.64117,478.82,520.52
39.66237,479.50,521.88
39.68211,480.38,520.14
39.70179,481.31,521.77
39.72113,478.03,520.96
39.74145,480.54,522.12
39.76161,479.66,520.71
39.78111,480.18,520.70
39.80136,478.56,523.28
39.82166,477.87,522.21
39.84180,479.07,519.59
39.86036,479.00,520.18
39.88100,477.82,526.97
39.90236,480.79,539.50
39.92220,480.13,559.50
39.94161,481.29,582.62
39.96074,481.85,602.47
39.98226,485.18,616.55
40.00207,486.65,629.28
40.02147,487.24,626.84
40.04217,489.23,623.45
40.06171,489.67,617.09
40.08094,487.38,609.67
40.10122,487.25,601.41
40.12118,486.61,595.38
40.14201,486.41,590.47
40.16156,488.83,582.70
40.18219,487.56,574.83
40.20186,487.24,567.13
40.22175,487.54,560.08
40.24291,487.13,552.15
40.26186,483.96,549.84
40.28237,483.17,547.29
40.30206,483.41,543.62
40.32270,481.64,541.23
40.34163,478.86,536.08
40.36253,475.87,537.11
40.38154,476.41,533.24
40.40167,476.56,529.86
40.42330,477.40,532.20
40.44318,476.12,526.29
40.46209,478.15,524.60
40.48226,476.18,524.40
40.50243,477.46,524.05
40.52203,474.22,525.15
40.54161,473.65,523.78
40.56142,472.87,525.67
40.58302,472.69,524.57
40.60254,475.60,524.18
40.62162,475.54,520.21
40.64131,477.28,521.57
40.66170,476.95,521.21
40.68219,474.74,522.00
40.70197,476.22,519.91
40.72274,477.40,519.02
40.74308,476.72,521.78
40.76220,474.69,516.50
40.78309,475.02,517.10
40.80321,473.46,519.80
40.82296,472.79,516.90
40.84233,471.96,519.77
40.86208,473.66,520.28
40.88303,470.75,521.21
40.90186,471.68,522.62
40.92314,471.17,525.07
40.94276,467.99,525.08
40.96339,468.77,510.90
40.98304,466.22,489.00
41.00323,465.70,465.57
41.02164,467.25,442.93
41.04328,464.92,428.88
41.06262,464.18,419.39
41.08234,465.57,416.51
41.10277,461.90,415.70
41.12195,464.47,416.44
41.14310,466.51,423.98
41.16272,465.06,426.81
41.18146,467.20,434.62
41.20168,469.11,445.41
41.22160,468.41,449.89
41.24249,470.03,458.13
41.26225,471.12,463.34
41.28303,468.44,468.81
41.30310,468.84,473.78
41.32256,469.57,480.80
41.34287,469.25,482.11
41.36316,468.51,488.10
41.38158,468.78,490.38
41.40232,471.16,493.65
41.42338,471.09,497.19
41.44325,469.03,499.78
41.46329,470.77,502.83
41.48235,473.49,502.71
41.50225,470.98,505.70
41.52218,473.37,508.92
41.54277,471.12,509.43
41.56133,471.44,511.84
41.58171,472.44,511.37
41.60228,469.04,510.70
41.62165,471.26,510.53
41.64290,471.56,514.75
41.66235,472.29,514.61
41.68259,469.11,513.83
41.70339,472.35,515.28
41.72322,473.77,516.58
41.74237,471.18,515.86
41.76170,471.35,516.85
41.78159,471.80,517.22
41.80156,472.34,515.41
41.82275,468.46,514.46
41.84288,468.12,514.73
41.86128,470.42,513.93
41.88142,470.89,518.98
41.90284,470.09,518.73
41.92237,472.03,518.23
41.94408,469.43,517.16
41.96225,467.69,515.33
41.98262,468.25,516.25
42.00419,465.33,513.22
42.02324,467.75,515.51
42.04294,465.09,514.51
42.06266,468.86,516.26
42.08400,467.15,516.43
42.10374,470.44,517.21
42.12385,470.68,517.21
42.14417,470.02,515.39
42.16363,469.67,517.59
42.18394,468.15,513.61
42.20501,468.30,515.92
42.22493,470.37,513.95
42.24556,467.26,512.70
42.26560,467.12,512.50
42.28610,468.69,511.60
42.30469,467.16,513.41
42.32625,467.97,510.58
42.34459,469.72,512.94
42.36519,469.16,510.17
42.38511,466.50,514.48
42.40515,469.65,512.92
42.42507,467.49,512.94
42.44520,470.54,514.40
42.46577,468.56,512.19
42.48466,470.40,512.30
42.50604,469.25,512.82
42.52510,469.72,514.70
42.54490,469.40,517.59
42.56567,470.72,515.64
42.58513,469.16,511.75
42.60606,468.61,511.80
42.62454,471.09,512.46
42.64499,469.49,514.69
42.66594,472.24,514.06
42.68451,470.12,514.19
42.70538,473.40,513.37
42.72466,473.53,511.36
42.74620,471.46,511.99
42.76562,470.65,512.86
42.78525,469.53,512.31
42.80615,471.05,515.46
42.82420,469.65,518.06
42.84467,469.96,517.44
42.86452,471.45,521.73
42.88546,470.95,523.33
42.90437,474.20,529.60
42.92494,477.13,534.60
42.94461,483.26,546.00
42.96455,486.14,552.06
42.98552,485.63,554.87
43.00483,484.29,550.55
43.02430,480.66,532.88
43.04599,476.89,512.31
43.06447,475.20,490.35
43.08446,468.20,467.82
43.10630,467.33,452.04
43.12560,461.80,438.83
43.14609,461.00,429.45
43.16507,458.99,419.87
43.18597,461.60,415.09
43.20634,459.10,415.01
43.22456,459.33,416.62
43.24464,460.65,421.26
43.26462,460.91,428.76
43.28476,461.45,437.08
43.30445,459.79,444.48
43.32605,459.44,455.08
43.34481,463.12,465.66
43.36482,463.22,471.28
43.38628,466.86,479.71
43.40531,466.08,485.52
43.42547,467.66,493.02
43.44476,470.21,496.01
43.46526,468.51,499.31
43.48537,472.24,507.91
43.50614,473.86,515.43
43.52456,477.55,520.99
43.54478,476.45,524.38
43.56534,477.20,528.80
43.58585,482.02,529.30
43.60423,479.98,531.71
43.62475,480.79,535.61
43.64538,484.51,554.05
43.66627,486.71,585.02
43.68568,488.53,622.24
43.70548,495.43,647.43
43.72495,496.87,656.34
43.74513,493.29,654.60
43.76436,493.46,640.07
43.78536,486.79,620.61
43.80499,486.50,599.50
43.82614,482.99,579.98
43.84454,479.18,562.47
43.86530,477.40,549.40
43.88472,476.87,541.02
43.90623,478.85,543.68
43.92569,485.34,558.80
43.94604,491.29,576.67
43.96664,494.45,600.26
43.98617,495.30,616.68
44.00622,501.70,627.01
44.02648,503.99,634.23
44.04713,505.39,639.84
44.06641,503.74,643.89
44.08549,504.44,641.83
44.10688,501.98,638.75
44.12668,502.00,633.69
44.14609,501.03,628.43
44.16591,497.67,627.42
44.18663,498.15,623.77
44.20572,493.81,618.96
44.22531,494.13,617.10
44.24570,489.95,611.49
44.26579,491.13,610.76
44.28719,486.75,607.50
44.30639,486.11,601.53
44.32567,483.14,599.47
