Program Time [s],data 0,data 1
6.73368,430.46,499.15
6.75355,430.48,485.25
6.77424,429.39,469.57
6.79354,428.83,461.90
6.81381,431.39,457.10
6.83373,430.25,458.62
6.85357,426.38,470.17
6.87378,432.20,501.95
6.89491,436.25,541.42
6.91426,440.08,574.67
6.93354,443.25,594.52
6.95470,445.49,602.77
6.97489,442.59,597.63
6.99484,442.32,579.78
7.01319,441.41,550.00
7.03322,436.48,514.55
7.05333,435.81,482.48
7.07459,432.16,452.39
7.09487,428.31,426.94
7.11456,430.31,411.43
7.13457,428.27,397.49
7.15591,428.54,389.00
7.17605,429.25,394.13
7.19780,430.29,406.76
7.21771,432.51,436.94
7.23788,434.45,480.11
7.25769,432.91,526.07
7.27680,429.93,566.04
7.29635,421.58,589.74
7.31615,409.73,604.86
7.33704,395.56,610.63
7.35705,380.26,606.18
7.37793,368.85,599.58
7.39715,364.62,579.48
7.41737,366.02,558.49
7.43637,375.83,524.39
7.45772,391.19,489.67
7.47652,407.54,457.11
7.49801,430.56,422.70
7.51648,445.70,393.15
7.53641,460.44,372.22
7.55758,467.05,357.38
7.57804,468.64,345.69
7.59757,469.18,341.86
7.62001,467.62,344.45
7.63987,468.70,344.94
7.65817,466.57,350.78
7.68019,461.76,359.73
7.70007,458.36,364.03
7.71956,453.30,372.27
7.74047,452.57,378.61
7.75947,450.13,386.03
7.77926,447.50,394.86
7.79983,446.75,400.99
7.82018,445.09,405.43
7.84104,442.31,412.99
7.86148,442.00,418.06
7.88089,437.96,426.16
7.90271,438.48,430.47
7.92247,433.73,435.68
7.94167,432.99,440.54
7.96290,431.24,443.35
7.98296,428.43,449.91
8.00256,430.62,450.85
8.02308,427.23,452.53
8.04258,426.26,453.57
8.06119,425.37,457.67
8.08173,427.19,457.03
8.10224,426.32,457.22
8.12220,427.31,460.71
8.14237,425.12,458.97
8.16110,423.45,463.56
8.18150,424.29,466.03
8.20286,428.09,464.59
8.22137,427.21,465.31
8.24156,425.87,464.15
8.26173,427.07,468.36
8.28308,428.21,466.81
8.30158,428.99,467.05
8.32219,427.13,467.63
8.34298,425.85,468.81
8.36305,427.17,466.82
8.38290,426.82,468.16
8.40196,427.31,469.16
8.42174,425.12,466.08
8.44128,427.67,467.08
8.46311,425.77,465.08
8.48104,427.69,471.31
8.50118,429.22,475.30
8.52212,430.13,476.51
8.54274,430.00,478.71
8.56101,427.18,478.32
8.58115,426.24,477.25
8.60120,425.53,476.74
8.62267,424.50,476.85
8.64142,428.27,473.00
8.66234,428.14,475.78
8.68188,424.77,473.99
8.70178,427.64,470.44
8.72210,427.51,467.74
8.74259,425.80,470.90
8.76198,424.51,482.00
8.78130,427.01,506.63
8.80178,426.13,531.64
8.82101,429.09,548.81
8.84219,425.71,557.41
8.86122,426.59,561.54
8.88096,428.53,558.91
8.90220,426.27,553.83
8.92280,426.96,548.08
8.94254,427.61,541.97
8.96291,424.25,531.32
8.98096,425.50,523.25
9.00146,424.73,514.00
9.02229,426.14,509.21
9.04244,425.53,504.20
9.06143,424.45,500.21
9.08142,426.01,495.15
9.10143,425.08,492.28
9.12151,425.91,490.18
9.14228,427.94,484.58
9.16138,430.99,485.60
9.18169,430.12,482.81
9.20109,427.78,483.83
9.22205,428.37,480.74
9.24309,428.49,479.83
9.26329,427.98,474.69
9.28207,429.14,473.58
9.30240,427.88,476.31
9.32339,429.05,472.34
9.34309,427.39,470.37
9.36440,423.50,469.31
9.38589,424.79,468.55
9.40560,424.34,466.92
9.42590,423.95,468.95
9.44542,420.88,468.99
9.46577,421.34,465.64
9.48589,420.31,467.28
9.50681,421.86,462.40
9.52539,419.38,464.54
9.54662,422.70,462.15
9.56726,420.16,462.30
9.58599,421.18,462.93
9.60722,418.09,460.86
9.62776,420.02,463.61
9.64755,420.60,460.93
9.66706,420.74,464.24
9.68681,418.15,460.34
9.70635,421.59,460.53
9.72795,419.45,462.19
9.74628,419.88,464.09
9.76631,418.19,465.17
9.78602,420.18,454.13
9.80725,418.50,433.89
9.82786,414.80,405.73
9.84679,412.62,386.28
9.86792,413.48,379.24
9.88754,412.64,371.56
9.90809,415.57,372.39
9.92958,415.96,375.16
9.95093,415.35,382.41
9.97083,417.17,388.52
9.99062,419.95,392.66
10.01036,421.47,401.44
10.02966,422.48,408.94
10.05072,423.12,413.86
10.06902,423.69,419.40
10.09038,423.43,425.37
10.11160,426.94,432.64
10.12995,425.75,438.15
10.14983,428.82,439.55
10.17045,432.13,443.80
10.19117,429.99,444.90
10.21079,430.25,450.07
10.23032,430.51,449.73
10.25108,434.03,453.68
10.27063,433.51,454.14
10.29087,430.02,454.96
10.31177,432.09,457.66
10.33142,431.86,459.44
10.35194,431.55,458.90
10.37086,434.15,461.75
10.39131,434.25,462.83
10.41260,432.62,463.10
10.43132,432.47,467.24
10.45216,434.35,467.76
10.47284,435.30,469.51
10.49196,434.86,466.95
10.51219,436.13,467.86
10.53145,435.66,468.21
10.55295,433.11,470.73
10.57246,435.60,469.41
10.59233,432.22,466.94
10.61230,432.93,470.51
10.63300,432.27,470.29
10.65275,433.91,471.76
10.67284,431.95,470.70
10.69110,433.40,467.83
10.71167,433.95,467.96
10.73250,432.77,466.84
10.75099,433.07,468.22
10.77114,435.67,465.87
10.79279,435.21,464.63
10.81243,435.33,467.33
10.83106,435.69,465.80
10.85239,437.00,465.97
10.87151,434.14,468.59
10.89289,433.00,466.46
10.91197,434.91,468.82
10.93255,434.53,469.76
10.95286,435.83,467.37
10.97236,434.17,463.17
10.99280,434.16,466.38
11.01217,435.58,467.21
11.03299,437.83,464.84
11.05284,437.80,467.89
11.07280,435.13,466.23
11.09342,435.18,465.41
11.11252,435.77,466.90
11.13322,437.42,465.76
11.15419,436.87,468.99
11.17382,436.74,466.66
11.19589,435.88,468.91
11.21534,431.89,469.93
11.23551,436.13,470.45
11.25549,431.80,468.53
11.27404,433.70,468.35
11.29461,434.91,469.40
11.31483,435.73,468.80
11.33544,433.57,468.21
11.35411,434.77,468.21
11.37413,432.48,470.25
11.39491,433.88,470.57
11.41561,434.60,470.62
11.43398,433.56,473.42
11.45391,434.90,473.31
11.47609,432.02,471.29
11.49418,433.07,469.01
11.51526,433.72,468.29
11.53443,434.98,470.45
11.55553,434.12,467.79
11.57544,433.39,466.12
11.59573,433.17,465.59
11.61496,433.35,468.36
11.63590,435.34,467.06
11.65419,434.14,467.13
11.67440,434.45,467.05
11.69452,434.77,467.91
11.71441,433.22,470.44
11.73569,432.79,472.85
11.75474,431.22,472.16
11.77444,434.73,469.51
11.79445,431.26,469.98
11.81438,434.68,469.09
11.83486,433.82,471.92
11.85579,432.80,472.41
11.87475,432.46,472.05
11.89549,433.32,470.15
11.91450,432.32,472.33
11.93420,434.87,471.13
11.95475,435.52,468.13
11.97553,433.75,466.65
11.99553,437.77,478.45
12.01545,438.36,500.92
12.03413,438.71,525.90
12.05564,440.39,551.19
12.07609,442.82,572.48
12.10569,442.74,583.07
12.11426,440.93,586.67
12.13454,443.85,585.48
12.15443,439.66,577.81
12.17605,439.66,572.70
12.19564,439.30,559.39
12.21576,442.26,551.71
12.23558,442.53,548.41
12.25525,442.32,535.45
12.27637,441.41,524.94
12.29520,441.30,517.11
12.31605,439.95,509.81
12.33640,437.40,504.08
12.35597,436.55,502.83
12.37518,437.57,497.39
12.39738,436.26,490.11
12.41645,438.79,486.46
12.43742,435.81,482.86
12.45647,436.14,480.01
12.47732,434.68,478.41
12.49792,433.88,475.09
12.51716,432.37,475.48
12.53731,434.91,475.55
12.55858,434.71,475.79
12.57827,432.96,471.49
12.59847,430.86,474.30
12.61758,431.71,474.54
12.63975,431.76,475.80
12.65812,430.87,473.39
12.67808,430.44,475.13
12.69881,430.79,468.80
12.71881,429.49,470.46
12.73810,427.15,469.68
12.75997,427.36,471.09
12.77887,427.78,470.78
12.80023,427.63,469.31
12.81953,425.83,467.59
12.84000,423.29,466.83
12.85994,424.16,468.82
12.88086,422.00,471.83
12.90029,422.75,460.01
12.91983,415.87,439.71
12.93931,415.08,415.34
12.96070,409.91,388.45
12.97993,410.83,370.89
13.00058,408.18,362.29
13.01963,409.27,359.39
13.04008,408.81,358.34
13.05941,410.70,363.27
13.07966,413.01,367.99
13.10061,411.73,373.01
13.12064,414.09,383.42
13.14012,415.17,389.99
13.15989,415.96,397.67
13.18048,417.33,406.51
13.19965,416.75,412.03
13.21965,418.80,418.37
13.23911,420.81,423.68
13.26061,422.99,429.93
13.28013,424.06,434.94
13.30019,424.33,439.71
13.31934,424.43,446.11
13.33922,423.79,449.73
13.35939,427.61,451.73
13.37971,425.79,452.04
13.39915,422.95,455.01
13.41912,422.25,454.69
13.43929,424.90,455.31
13.45897,423.40,460.03
13.48085,426.03,459.94
13.49932,422.46,462.83
13.51901,425.63,462.83
13.53899,424.38,460.62
13.55972,422.27,463.02
13.58088,423.94,460.20
13.59984,423.46,461.57
13.61969,423.18,462.05
13.64090,423.29,464.85
13.65890,420.62,461.87
13.68038,422.81,464.42
13.70019,421.66,465.54
13.71937,421.04,465.78
13.74074,420.16,466.45
13.76063,421.66,463.50
13.78070,425.12,465.83
13.80008,421.48,463.63
13.81966,425.34,463.12
13.83966,425.35,465.28
13.85961,424.11,466.01
13.87952,425.65,467.88
13.89987,422.24,469.07
13.92005,421.03,469.50
13.93995,421.55,470.62
13.96044,422.88,473.18
13.98060,423.76,472.04
13.99967,423.56,472.14
14.01915,423.02,469.32
14.04024,424.37,469.33
14.05913,423.20,465.73
14.07985,424.93,466.08
14.09995,423.97,465.95
14.12071,424.23,463.18
14.13901,426.09,465.89
14.16085,424.90,466.00
14.17959,422.80,466.00
14.19906,422.07,460.64
14.22079,423.73,461.52
14.24068,420.14,462.32
14.26004,424.17,462.13
14.28021,420.91,460.79
14.30001,423.07,463.60
14.31914,422.90,461.74
14.34058,421.25,462.91
14.36036,423.16,463.17
14.38097,420.45,461.88
14.40033,420.52,464.31
14.42063,421.68,466.05
14.44020,418.20,464.66
14.45944,419.20,464.46
14.48028,418.60,463.90
14.50018,420.84,464.81
14.51938,418.70,463.26
14.53992,417.70,464.36
14.55979,418.09,465.65
14.57950,418.24,465.46
14.60001,416.35,465.42
14.62028,415.53,462.09
14.64067,417.82,466.13
14.66114,417.58,464.75
14.68164,419.18,464.84
14.70047,418.87,461.86
14.72132,419.08,463.32
14.74032,418.00,465.41
14.76007,420.08,465.00
14.78140,418.48,462.94
14.80116,418.60,460.98
14.82014,419.08,459.28
14.84171,421.65,460.89
14.86020,419.70,461.24
14.88135,419.13,459.27
14.90150,419.53,459.05
14.92145,420.27,461.18
14.94173,419.25,459.57
14.96018,417.25,460.01
14.98153,416.93,461.50
15.00084,417.70,461.26
15.02085,418.54,461.08
15.04179,419.35,460.27
15.06136,418.07,460.38
15.08152,418.56,459.07
15.10176,420.64,463.12
15.12168,418.69,462.57
15.14040,419.87,461.07
15.16078,416.67,462.79
15.18063,418.61,461.67
15.20144,418.02,462.98
15.22021,416.40,461.49
15.24123,417.11,462.97
15.26120,418.28,462.98
15.28060,420.27,459.44
15.30118,419.41,462.06
15.32113,416.91,458.40
15.34021,419.91,461.48
15.36088,419.52,459.84
15.37998,417.03,459.24
15.40171,417.49,460.02
15.42156,416.36,459.41
15.44063,419.40,461.23
15.46055,419.85,462.10
15.48098,419.65,460.61
15.50163,417.24,459.20
15.51992,418.96,462.01
15.54144,416.72,459.07
15.56049,417.61,459.15
15.58082,420.20,462.14
15.60187,420.13,462.09
15.62068,421.02,460.48
15.64094,421.20,462.34
15.66106,418.63,462.13
15.67992,420.46,460.93
15.70034,419.58,463.64
15.72180,419.58,461.92
15.74075,420.04,461.71
15.76041,419.19,460.81
15.78093,421.26,462.60
15.80143,417.73,461.10
15.82085,420.42,462.59
15.84077,420.07,462.04
15.86083,419.17,462.52
15.88164,418.75,459.76
15.89991,418.25,462.03
15.92063,418.43,461.14
15.94157,420.10,463.49
15.96063,421.65,463.54
15.97986,422.64,461.93
16.00174,420.66,463.26
16.02161,420.70,462.32
16.03992,421.17,460.14
16.06184,420.30,462.03
16.08113,418.27,462.32
16.10153,420.15,462.56
16.12043,420.40,457.74
16.13993,417.18,458.44
16.16012,416.68,458.75
16.18138,417.95,465.72
16.20274,418.38,485.16
16.22205,420.46,518.54
16.24087,418.74,545.82
16.26251,419.97,561.50
16.28218,421.42,566.37
16.30114,419.17,566.41
16.32092,420.54,561.88
16.34140,422.03,556.19
16.36214,422.57,552.50
16.38147,426.72,541.39
16.40234,425.34,536.03
16.42266,429.31,523.00
16.44190,426.56,516.17
16.46115,425.16,513.28
16.48195,424.60,505.33
16.50208,427.22,500.32
16.52300,427.08,492.98
16.54270,424.78,490.03
16.56278,428.18,489.78
16.58248,426.75,486.55
16.60274,427.11,482.09
16.62319,428.66,480.37
16.64256,426.02,474.58
16.66387,426.33,473.17
16.68189,429.55,471.09
16.70290,427.02,470.67
16.72191,425.61,468.43
16.74359,427.61,468.94
16.76262,426.56,469.18
16.78259,426.94,472.14
16.80336,423.35,471.92
16.82220,424.63,468.03
16.84235,423.69,469.21
16.86355,423.05,468.93
16.88248,424.30,468.13
16.90281,424.91,465.91
16.92239,423.30,465.45
16.94340,424.63,466.39
16.96380,423.84,463.35
16.98190,426.10,465.82
17.00192,424.11,465.71
17.02337,423.66,464.78
17.04174,424.38,465.91
17.06413,425.32,466.46
17.08252,425.84,466.40
17.10274,427.01,466.43
17.12318,425.91,469.62
17.14361,422.05,460.28
17.16210,421.93,439.46
17.18192,419.35,410.48
17.20214,418.10,385.14
17.22204,417.47,365.66
17.24213,415.25,357.74
17.26202,418.06,353.73
17.28230,417.02,355.45
17.30251,420.23,362.82
17.32359,418.71,366.39
17.34205,420.41,374.83
17.36353,421.58,384.46
17.38190,419.68,393.02
17.40280,420.13,400.44
17.42373,423.07,408.28
17.44305,423.53,415.71
17.46326,424.88,420.18
17.48395,424.73,428.12
17.50315,427.03,434.20
17.52461,428.82,439.15
17.54354,426.84,440.37
17.56379,429.49,447.89
17.58355,426.26,449.59
17.60401,426.65,452.47
17.62392,428.26,455.90
17.64456,428.40,454.92
17.66400,427.17,456.90
17.68295,429.65,456.92
17.70406,427.78,457.08
17.72373,430.40,461.13
17.74330,429.67,459.85
17.76320,429.61,462.12
17.78479,430.51,461.46
17.80303,429.39,462.39
17.82386,430.91,464.52
17.84276,429.27,462.06
17.86353,431.48,463.35
17.88469,430.25,463.79
17.90478,431.69,463.90
17.92369,428.01,462.74
17.94450,428.68,464.81
17.96313,427.95,462.96
17.98428,428.15,465.06
18.00436,429.84,462.45
18.02306,428.83,462.62
18.04470,427.35,464.11
18.06420,430.10,463.20
18.08438,428.76,465.99
18.10449,430.63,464.96
18.12416,430.28,465.94
18.14495,431.39,466.67
18.16653,432.01,467.22
18.18539,430.74,466.41
18.20632,432.69,465.92
18.22562,433.84,466.84
18.24555,433.24,464.74
18.26632,434.42,466.76
18.28501,436.62,465.77
18.30663,435.26,464.79
18.32799,436.75,466.57
18.34722,436.61,465.72
18.36581,433.88,466.29
18.38599,436.44,465.24
18.40707,436.09,464.65
18.42693,435.25,464.19
18.44754,437.77,465.10
18.46774,438.65,464.96
18.48775,436.40,467.46
18.50713,437.44,468.12
18.52615,438.09,466.63
18.54643,437.44,466.37
18.56617,441.50,467.53
18.58696,440.71,465.52
18.60696,440.04,467.62
18.62720,440.49,469.12
18.64778,440.34,466.16
18.66746,440.53,467.03
18.68699,439.08,465.80
18.70614,440.46,468.52
18.72589,438.40,465.27
18.74642,437.94,467.08
18.76592,435.11,468.17
18.78720,436.82,469.58
18.80761,436.88,466.68
18.82607,436.18,468.98
18.84714,437.19,469.30
18.86629,435.64,470.01
18.88579,436.03,466.25
18.90661,437.58,468.92
18.92582,439.25,469.49
18.94690,436.27,466.98
18.96709,437.04,469.47
18.98635,436.00,464.88
19.00769,435.96,464.84
19.02621,437.29,463.10
19.04677,438.28,463.28
19.06620,438.07,464.76
19.08629,438.79,462.88
19.10668,437.48,463.54
19.12654,438.46,462.99
19.14696,438.09,462.98
19.16628,436.17,462.35
19.18734,436.89,462.58
19.20577,436.78,462.91
19.22692,436.57,463.90
19.24601,434.80,464.47
19.26704,434.91,462.23
19.28694,433.56,463.28
19.30718,435.88,465.65
19.32723,435.88,463.97
19.34731,437.64,465.68
19.36683,437.75,468.62
19.38703,437.35,480.72
19.40698,441.97,507.88
19.42725,441.71,539.44
19.44653,445.14,585.30
19.46757,447.99,610.31
19.48715,448.35,626.82
19.50755,449.69,627.10
19.52673,448.71,607.82
19.54810,448.46,596.38
19.56717,446.76,576.99
19.58792,444.06,560.15
19.60785,442.60,549.86
19.62897,441.84,532.53
19.64792,442.07,523.83
19.67059,440.94,515.32
19.68918,440.43,507.36
19.71074,438.00,500.06
19.73053,437.42,494.86
19.75068,436.30,490.38
19.76979,437.16,491.37
19.78897,439.46,488.88
19.80964,435.54,488.10
19.83026,440.68,486.83
19.84895,438.07,484.22
19.86969,438.25,481.10
19.88934,439.26,480.12
19.91075,438.19,481.94
19.92965,436.90,480.56
19.94993,438.74,477.59
19.97043,439.78,479.46
19.99043,436.92,475.69
20.01069,438.35,475.04
20.03067,436.36,477.41
20.04957,436.05,479.53
20.06922,435.65,479.77
20.08985,433.33,486.06
20.10951,433.34,484.45
20.13039,431.15,476.81
20.14924,428.97,453.23
20.16942,425.80,429.55
20.18936,425.64,403.56
20.20995,424.01,384.72
20.23062,424.32,368.00
20.24892,424.74,355.64
20.27013,424.18,352.57
20.29243,423.93,349.36
20.31169,427.04,352.63
20.33137,426.78,355.85
20.35130,424.80,360.94
20.37131,425.36,370.54
20.39206,426.78,377.90
20.41184,429.47,385.18
20.43174,427.49,393.69
20.45084,429.12,402.61
20.47182,431.74,412.52
20.49253,436.75,433.35
20.51149,439.84,464.71
20.53185,446.92,506.16
20.55325,447.88,556.21
20.57471,448.51,604.62
20.59293,447.97,642.71
20.61455,446.03,661.95
20.63428,436.41,669.32
20.65375,431.56,653.52
20.67458,428.28,622.79
20.69379,424.69,580.93
20.71577,424.58,537.63
20.73465,423.46,492.30
20.75408,425.96,456.45
20.77504,422.61,426.76
20.79379,421.49,403.33
20.81524,418.93,384.90
20.83520,417.20,376.08
20.85553,418.86,371.61
20.87458,419.66,366.84
20.89428,416.82,367.95
20.91501,417.00,370.93
20.93559,418.45,377.25
20.95497,416.69,380.61
20.97402,418.31,386.29
20.99507,417.33,396.22
21.01411,415.94,400.24
21.03382,415.47,407.48
21.05493,416.26,416.55
21.07452,416.49,418.87
21.09382,419.73,426.12
21.11391,418.80,432.46
21.13430,417.93,434.86
21.15523,416.73,440.84
21.17465,414.92,444.58
21.19394,416.89,447.14
21.21510,415.00,449.91
21.23600,416.14,451.37
21.25483,415.29,454.40
21.27589,415.58,454.45
21.29603,417.47,458.72
21.31561,417.91,458.14
21.33522,416.96,456.52
21.35574,416.42,458.87
21.37506,415.70,460.09
21.39576,417.22,456.89
21.41603,417.06,459.41
21.43601,418.05,459.93
21.45652,419.09,457.75
21.47497,418.42,458.82
21.49710,416.72,458.28
21.51707,418.26,457.27
21.53842,418.96,457.36
21.55864,418.34,459.12
21.57830,418.48,460.64
21.59951,421.11,461.30
21.61887,420.67,462.03
21.63882,419.75,462.79
21.65893,421.89,462.73
21.67962,418.47,464.69
21.69960,421.10,462.40
21.72039,420.21,461.77
21.73937,421.32,463.27
21.75991,420.01,462.66
21.77940,420.61,463.63
21.79910,422.76,465.38
21.81907,422.03,464.78
21.83999,421.45,463.02
21.86031,421.23,465.96
21.87897,424.41,465.13
21.89882,422.91,466.95
21.92140,425.58,466.31
21.94165,426.39,466.44
21.96126,426.48,463.40
21.98111,424.32,466.05
22.00141,424.63,464.31
22.02115,426.21,465.02
22.04081,428.47,465.48
22.06083,427.06,462.54
22.08079,426.69,462.93
22.10071,428.07,465.01
22.12058,425.36,461.61
22.14017,426.84,463.55
22.16094,428.47,462.85
22.17973,427.67,463.30
22.20040,427.01,462.33
22.22156,426.47,460.56
22.24113,425.70,461.07
22.26127,427.33,460.02
22.28208,425.99,462.27
22.30139,428.23,461.14
22.32275,426.92,460.11
22.34291,429.49,460.94
22.36339,430.96,463.23
22.38212,431.40,463.42
22.40198,428.56,464.56
22.42358,428.87,464.24
22.44374,429.12,464.63
22.46202,431.02,462.78
22.48336,432.33,465.40
22.50221,432.28,462.57
22.52241,430.71,465.93
22.54354,429.58,465.97
22.56162,430.45,463.74
22.58262,432.11,467.13
22.60244,433.03,467.21
22.62324,431.20,466.31
22.64270,430.87,464.44
22.66228,432.92,466.41
22.68325,431.21,464.77
22.70325,430.14,467.24
22.72349,432.56,464.97
22.74234,433.96,466.47
22.76331,432.18,466.53
22.78220,432.51,463.23
22.80197,435.63,463.27
22.82188,433.99,465.19
22.84332,435.74,464.28
22.86362,434.96,463.93
22.88374,434.25,465.27
22.90273,434.63,467.36
22.92288,433.85,466.54
22.94246,432.37,466.83
22.96284,433.87,465.10
22.98333,434.20,465.64
23.00351,433.12,465.47
23.02220,437.34,463.64
23.04232,433.83,464.04
23.06218,435.63,465.61
23.08360,435.34,467.21
23.10221,434.58,462.56
23.12297,434.29,461.68
23.14324,436.06,461.29
23.16293,437.14,460.79
23.18329,437.49,461.93
23.20302,437.79,462.66
23.22292,435.36,464.07
23.24339,436.05,464.30
23.26564,435.35,466.20
23.28517,439.78,464.04
23.30576,438.15,467.50
23.32521,437.83,463.64
23.34556,438.33,467.37
23.36431,437.59,466.51
23.38527,435.72,466.10
23.40428,437.20,466.56
23.42511,436.61,469.31
23.44463,434.23,478.27
23.46416,437.68,497.04
23.48406,439.59,526.85
23.50475,444.51,548.92
23.52391,444.17,564.79
23.54476,445.09,572.55
23.56531,448.16,577.06
23.58553,446.71,574.04
23.60566,446.57,569.48
23.62426,445.41,563.83
23.64526,445.71,551.07
23.66474,444.51,540.86
23.68465,443.88,535.02
23.70411,444.99,527.88
23.72493,444.20,520.72
23.74521,442.76,511.82
23.76495,444.01,508.12
23.78370,441.62,502.58
23.80496,441.58,497.65
23.82417,441.76,496.09
23.84547,438.59,491.40
23.86365,439.89,485.63
23.88382,438.39,487.77
23.90461,437.78,482.59
23.92537,439.87,484.28
23.94473,440.86,482.88
23.96558,440.96,483.12
23.98498,439.50,477.96
24.00523,440.87,479.40
24.02460,440.43,477.66
24.04560,440.79,475.83
24.06575,438.86,473.85
24.08532,441.84,474.16
24.10488,438.96,473.48
24.12551,441.70,471.85
24.14426,440.43,473.36
24.16482,438.62,471.06
24.18402,438.20,472.70
24.20447,436.15,470.32
24.22483,437.86,471.45
24.24465,436.18,473.03
24.26443,438.91,471.42
24.28447,438.89,470.38
24.30384,437.55,472.34
24.32559,436.15,471.33
24.34363,436.47,468.73
24.36528,438.62,468.96
24.38414,438.15,467.11
24.40569,437.90,468.83
24.42513,436.32,470.57
24.44441,440.00,468.58
24.46425,437.62,470.07
24.48451,437.59,469.84
24.50479,437.43,470.75
24.52519,437.73,469.92
24.54445,435.47,471.53
24.56512,438.11,472.33
24.58523,436.65,475.40
24.60527,437.80,478.78
24.62485,437.32,470.12
24.64557,433.53,448.35
24.66427,432.29,421.31
24.68486,429.33,394.34
24.70630,425.34,375.89
24.72516,426.27,368.26
24.74680,425.30,367.01
24.76692,425.71,366.25
24.78672,423.20,373.63
24.80656,424.73,378.07
24.82755,424.52,386.97
24.84686,423.81,395.59
24.86772,427.00,403.77
24.88726,427.58,411.75
24.90764,428.90,420.74
24.92700,430.75,427.14
24.94826,430.64,431.62
24.96683,432.30,436.27
24.98692,435.72,437.58
25.00811,432.15,444.95
25.02837,433.47,446.27
25.04721,434.98,451.17
25.06814,434.75,453.48
25.08825,435.22,457.58
25.10721,433.78,458.82
25.12692,432.72,459.77
25.14788,431.68,463.94
25.16848,432.45,464.21
25.18853,432.24,465.21
25.20724,432.92,467.92
25.22813,431.63,467.96
25.24810,430.95,471.39
25.26839,434.30,469.74
25.28889,434.13,468.48
25.30872,433.78,468.76
25.32862,431.73,471.11
25.34807,431.47,470.25
25.36954,430.32,468.48
25.38857,430.38,469.42
25.40968,432.43,469.71
25.42936,433.48,471.20
25.44822,430.63,468.32
25.46889,430.20,470.25
25.48966,431.26,470.87
25.50856,428.01,468.68
25.52847,427.93,470.72
25.54788,429.78,469.34
25.56888,427.15,469.14
25.58865,430.41,471.00
25.60773,429.05,470.66
25.62957,429.29,469.27
25.64849,428.78,471.48
25.66851,430.24,467.04
25.68948,429.38,467.93
25.70902,430.41,468.67
25.72899,429.07,466.43
25.74818,430.14,467.25
25.76900,427.51,466.69
25.78774,429.84,469.56
25.80834,430.99,466.84
25.82891,430.42,466.77
25.84855,427.98,465.72
25.86761,430.13,466.91
25.88881,427.65,468.23
25.90927,428.86,469.19
25.92977,426.53,466.38
25.94942,426.71,466.76
25.96932,427.14,468.17
25.99017,425.06,469.07
26.01026,424.33,468.79
26.02866,425.76,467.84
26.04994,423.24,470.32
26.06894,422.39,469.10
26.08930,423.68,471.98
26.10946,424.45,468.63
26.12933,426.14,471.73
26.14922,424.66,470.20
26.16876,426.06,471.62
26.19026,424.46,470.38
26.21025,422.95,470.56
26.22992,422.60,471.46
26.24886,425.79,471.82
26.26890,425.14,469.89
26.28905,423.78,471.62
26.30876,425.83,468.02
26.32911,424.60,468.83
26.35020,424.49,471.93
26.36906,426.78,471.98
26.38943,426.42,471.78
26.40847,422.62,469.29
26.42900,425.31,467.76
26.44904,422.96,469.67
26.46919,424.21,468.07
26.49041,422.28,469.02
26.51036,422.44,466.42
26.52931,424.34,469.31
26.55045,424.02,469.12
26.56942,420.77,468.61
26.58894,421.51,469.81
26.60878,423.14,469.04
26.63013,422.74,470.95
26.65008,423.35,471.35
26.66940,424.13,467.96
26.69018,423.49,467.71
26.70882,422.96,466.20
26.72949,424.23,465.45
26.75002,423.27,466.17
26.77028,422.15,463.61
26.78883,423.77,466.25
26.80946,423.58,466.82
26.82931,420.65,465.56
26.85060,421.15,467.07
26.86864,421.50,464.32
26.89002,419.01,466.78
26.91015,419.15,467.05
26.92894,419.46,463.91
26.94847,421.32,463.04
26.97028,420.87,465.63
26.99016,421.85,463.55
27.01097,420.98,462.57
27.02988,419.77,462.62
27.05121,420.57,463.22
27.06993,418.98,462.42
27.09158,419.39,463.98
27.10992,421.94,466.90
27.13047,418.91,465.59
27.15061,419.73,464.93
27.17012,420.04,465.15
27.19103,420.22,463.88
27.21069,420.73,466.45
27.23007,419.46,466.79
27.25022,418.81,464.94
27.27128,420.05,464.83
27.29001,420.76,465.93
27.30995,417.41,465.11
27.33132,419.20,468.66
27.34975,416.58,466.65
27.37076,416.01,469.95
27.39048,416.43,467.97
27.41000,416.54,464.63
27.42967,418.77,467.15
27.44974,420.20,465.40
27.47146,420.38,464.04
27.48980,417.32,466.83
27.51020,418.01,463.06
27.53214,416.39,465.67
27.55207,416.11,465.49
27.57135,418.16,464.84
27.59121,416.29,465.04
27.61077,418.98,465.56
27.63224,419.67,464.58
27.65191,418.61,464.32
27.67223,419.98,462.16
27.69115,416.90,462.76
27.71215,418.27,462.33
27.73194,418.59,464.22
27.75291,419.81,461.43
27.77226,418.70,462.01
27.79326,417.98,463.34
27.81270,420.11,462.07
27.83361,420.37,461.10
27.85243,420.00,462.07
27.87331,419.94,462.69
27.89328,419.16,461.68
27.91259,419.70,464.54
27.93327,418.12,463.94
27.95180,418.74,463.29
27.97166,417.42,461.82
27.99261,418.67,459.71
28.01323,419.63,458.52
28.03309,421.07,462.04
28.05227,419.68,461.67
28.07352,422.34,460.90
28.09172,419.84,463.04
28.11203,419.62,461.99
28.13205,419.42,462.59
28.15215,417.39,461.65
28.17211,419.08,459.84
28.19325,421.16,461.76
28.21181,419.55,468.08
28.23232,420.91,477.40
28.25278,418.95,494.30
28.27327,420.21,510.88
28.29348,422.55,527.48
28.31326,423.40,547.00
28.33328,422.97,554.99
28.35331,423.99,562.74
28.37271,423.15,562.95
28.39345,423.32,561.34
28.41247,428.22,550.61
28.43146,425.60,546.17
28.45258,428.00,538.23
28.47337,429.04,529.88
28.49187,428.42,522.84
28.51297,427.43,512.75
28.53221,429.55,504.77
28.55280,428.76,502.48
28.57288,429.58,499.69
28.59289,427.76,494.27
28.61254,428.54,490.52
28.63364,425.22,488.41
28.65292,425.68,485.29
28.67325,422.92,478.98
28.69221,423.55,475.62
28.71297,423.95,470.52
28.73215,422.96,469.15
28.75255,420.91,471.25
28.77289,420.75,469.27
28.79296,420.91,468.18
28.81299,422.15,468.25
28.83234,421.96,467.79
28.85235,423.77,467.73
28.87365,420.98,470.44
28.89245,424.04,469.43
28.91334,421.06,470.46
28.93364,420.26,465.97
28.95347,422.59,468.42
28.97289,423.20,468.03
28.99262,419.74,463.32
29.01355,420.35,468.08
29.03206,420.91,464.93
29.05149,419.69,466.97
29.07298,418.01,465.83
29.09251,421.11,465.54
29.11268,420.91,467.19
29.13342,418.57,467.81
29.15217,422.82,475.81
29.17327,423.28,495.56
29.19309,427.75,512.75
29.21309,425.41,521.88
29.23285,428.04,512.03
29.25168,424.70,482.50
29.27251,421.72,448.75
29.29159,420.10,416.62
29.31278,414.93,391.38
29.33330,416.08,376.54
29.35238,414.12,369.83
29.37213,414.53,365.74
29.39294,412.35,363.67
29.41311,414.54,365.42
29.43228,413.86,370.66
29.45245,416.02,372.17
29.47191,414.53,372.99
29.49231,415.84,375.92
29.51186,417.15,382.75
29.53173,418.96,388.90
29.55354,416.74,390.82
29.57282,418.71,399.36
29.59224,418.92,408.19
29.61175,419.67,413.50
29.63267,418.84,419.88
29.65323,421.15,422.60
29.67259,419.65,432.02
29.69329,419.42,434.94
29.71196,418.68,440.04
29.73247,416.96,439.77
29.75194,419.32,446.56
29.77351,421.82,449.63
29.79379,423.32,452.91
29.81447,425.52,454.51
29.83280,424.54,455.80
29.85364,422.22,457.04
29.87297,423.50,455.19
29.89417,422.36,457.60
29.91244,424.64,458.78
29.93257,423.30,460.54
29.95463,424.03,462.48
29.97353,423.44,461.39
29.99334,421.84,458.65
30.01308,425.73,458.51
30.03447,425.97,458.54
30.05346,424.52,460.68
30.07448,426.81,458.45
30.09379,426.65,458.92
30.11318,425.65,457.60
30.13325,426.84,457.86
30.15445,427.04,458.84
30.17311,425.09,458.52
30.19295,427.07,460.09
30.21373,424.07,459.64
30.23276,425.63,460.72
30.25271,423.41,459.77
30.27364,425.12,457.65
30.29263,426.71,458.63
30.31267,429.21,460.71
30.33296,428.70,460.94
30.35457,428.47,460.13
30.37411,424.39,461.14
30.39340,427.58,460.71
30.41456,425.95,463.36
30.43353,427.85,464.66
30.45287,428.80,461.16
30.47265,424.39,461.92
30.49272,425.37,465.06
30.51360,424.90,463.99
30.53373,426.45,462.51
30.55447,427.25,464.38
30.57547,426.89,464.62
30.59517,429.66,464.70
30.61617,430.34,463.35
30.63592,429.64,463.78
30.65546,430.69,464.03
30.67566,428.63,467.74
30.69620,428.55,468.60
30.71593,429.85,464.73
30.73541,432.15,465.16
30.75471,432.86,465.59
30.77606,431.60,464.32
30.79635,432.39,463.68
30.81519,431.01,465.79
30.83615,430.54,461.89
30.85555,430.74,463.78
30.87503,430.93,463.61
30.89545,433.30,464.92
30.91482,430.96,466.48
30.93638,434.13,462.78
30.95553,434.41,464.32
30.97605,433.88,466.03
30.99432,434.44,464.74
31.01555,434.74,464.27
31.03600,432.20,462.69
31.05581,435.93,462.73
31.07474,435.40,466.09
31.09543,435.37,466.48
31.11621,435.25,465.95
31.13462,434.51,464.88
31.15570,435.41,466.63
31.17587,435.81,465.50
31.19565,433.89,464.83
31.21453,434.69,466.40
31.23567,432.67,466.87
31.25620,436.86,464.30
31.27558,434.50,466.62
31.29509,435.04,467.16
31.31575,434.59,463.70
31.33525,432.96,463.66
31.35472,432.75,466.70
31.37547,436.98,465.93
31.39520,435.55,464.84
31.41494,437.08,469.18
31.43611,433.18,467.24
31.45620,433.58,467.99
31.47568,435.59,466.33
31.49456,434.68,466.25
31.51557,436.01,467.46
31.53521,434.03,469.03
31.55589,431.81,468.89
31.57588,435.14,469.51
31.59679,434.53,465.72
31.61702,433.81,466.85
31.63631,433.36,465.66
31.65702,433.75,467.54
31.67599,433.82,468.17
31.69544,434.49,466.45
31.71583,436.77,467.74
31.73677,435.08,468.27
31.75705,437.72,468.99
31.77606,436.40,466.91
31.79752,438.22,469.06
31.81715,435.34,470.83
31.83726,438.40,469.89
31.85569,436.54,467.32
31.87536,435.03,467.77
31.89560,437.76,469.46
31.91550,437.45,469.19
31.93556,437.15,467.75
31.95679,435.75,469.01
31.97661,434.66,470.09
31.99711,435.78,467.49
32.01564,438.65,467.44
32.03639,438.42,470.59
32.05552,438.44,467.16
32.07694,439.41,469.04
32.09758,440.20,467.95
32.11615,439.62,470.47
32.13752,436.35,468.78
32.15566,438.70,468.16
32.17575,440.04,468.11
32.19699,439.25,468.88
32.21731,435.09,467.26
32.23565,437.56,468.43
32.25595,435.47,468.93
32.27630,438.08,464.41
32.29588,437.81,467.63
32.31616,436.19,466.66
32.33725,437.76,467.81
32.35656,438.14,465.87
32.37543,439.92,466.53
32.39553,439.75,465.34
32.41658,437.72,467.97
32.43720,440.46,468.90
32.45584,439.83,466.50
32.47582,438.34,466.17
32.49615,439.88,465.39
32.51667,440.87,464.42
32.53662,438.96,470.47
32.55673,440.47,484.88
32.57613,438.85,502.84
32.59659,441.71,525.12
32.61574,440.46,541.06
32.63704,441.13,553.40
32.65603,442.40,561.18
32.67534,441.89,563.03
32.69591,442.70,559.42
32.71751,440.32,553.52
32.73723,441.02,544.19
32.75749,441.53,533.84
32.77641,442.81,527.12
32.79616,444.52,522.61
32.81613,445.10,519.40
32.83708,444.58,514.68
32.85560,441.98,506.76
32.87728,445.07,505.56
32.89651,443.17,498.76
32.91590,440.90,493.96
32.93712,442.24,493.83
32.95718,443.28,490.22
32.97573,440.72,490.54
32.99611,439.89,488.44
33.01612,441.56,484.97
33.03664,440.69,487.74
33.05667,441.01,481.08
33.07622,438.30,482.53
33.09617,437.97,482.16
33.11563,436.43,482.88
33.13546,438.05,481.46
33.15702,436.68,478.46
33.17717,438.07,476.97
33.19715,438.54,476.06
33.21630,438.49,478.81
33.23536,437.68,477.41
33.25655,436.81,475.72
33.27616,438.08,475.51
33.29735,439.10,477.64
33.31545,437.21,473.00
33.33626,438.58,471.70
33.35671,437.31,473.00
33.37610,437.73,473.85
33.39552,436.67,469.87
33.41683,433.97,470.02
33.43632,436.16,473.03
33.45656,436.13,473.31
33.47673,436.14,472.06
33.49534,437.12,468.19
33.51570,438.33,469.98
33.53615,435.10,472.88
33.55624,434.78,470.20
33.57658,437.07,457.65
33.59636,435.94,436.03
33.61656,433.87,411.07
33.63612,430.86,390.23
33.65608,431.35,373.17
33.67569,429.95,365.70
33.69670,432.29,364.75
33.71686,431.41,370.10
33.73580,429.86,375.18
33.75685,432.78,379.79
33.77569,431.31,390.64
33.79615,432.03,396.70
33.81704,431.78,405.59
33.83581,430.36,412.13
33.85627,433.57,417.74
33.87722,432.22,428.31
33.89643,432.94,429.73
33.91547,434.75,439.54
33.93674,435.47,441.97
33.95633,437.42,445.92
33.97584,436.15,451.03
33.99590,435.45,453.66
34.01613,433.87,456.62
34.03577,433.11,459.48
34.05561,434.81,462.28
34.07726,434.13,461.33
34.09663,434.19,462.93
34.11615,432.69,463.67
34.13678,433.16,466.20
34.15635,434.59,465.03
34.17724,432.81,465.95
34.19735,435.58,465.04
34.21628,435.73,464.85
34.23679,434.41,465.33
34.25573,435.55,466.40
34.27672,434.16,467.57
34.29604,435.68,468.78
34.31555,437.65,470.06
34.33560,437.76,470.31
34.35573,436.28,468.30
34.37679,438.35,468.31
34.39688,437.51,467.50
34.41669,437.73,467.98
34.43648,434.25,469.32
34.45716,434.21,468.77
34.47729,436.66,467.81
34.49676,438.08,468.42
34.51707,437.26,467.82
34.53619,437.74,469.85
34.55584,439.29,466.81
34.57704,436.87,470.03
34.59601,436.55,467.01
34.61739,437.43,468.34
34.63664,435.40,470.79
34.65711,435.22,470.59
34.67722,436.06,470.35
34.69615,435.47,469.91
34.71719,435.48,469.95
34.73599,437.47,471.22
34.75663,437.58,467.72
34.77649,436.25,469.75
34.79601,435.11,469.01
34.81585,434.97,466.72
34.83552,437.53,468.94
34.85698,434.12,470.78
34.87600,435.41,469.39
34.89721,435.19,471.04
34.91740,433.85,470.32
34.93601,432.97,471.89
34.95630,433.04,471.09
34.97588,432.98,470.95
34.99727,437.15,473.36
35.01699,433.79,471.41
35.03647,433.12,470.74
35.05557,433.49,471.12
35.07632,436.96,471.02
35.09572,436.66,472.44
35.11633,436.55,471.61
35.13652,435.87,469.27
35.15604,436.37,469.39
35.17558,436.09,468.13
35.19630,437.08,467.98
35.21633,436.34,469.56
35.23693,437.20,469.92
35.25711,435.56,466.84
35.27714,433.85,468.93
35.29759,436.21,467.28
35.31794,435.18,469.43
35.33645,435.53,469.19
35.35790,436.84,469.29
35.37807,435.76,469.60
35.39633,434.05,469.96
35.41733,432.02,467.49
35.43696,435.20,469.18
35.45711,435.61,467.24
35.47732,435.10,468.08
35.49635,437.22,466.89
35.51804,435.20,466.07
35.53634,434.61,466.56
35.55762,435.41,470.06
35.57800,434.59,467.65
35.59796,433.92,468.42
35.61718,437.18,469.74
35.63705,434.19,467.98
35.65840,433.11,467.69
35.67917,435.23,468.84
35.69763,436.50,469.98
35.71830,433.53,467.43
35.73782,433.38,469.72
35.75834,431.73,469.25
35.77884,434.72,467.15
35.79885,434.18,469.87
35.81884,431.11,467.32
35.84014,433.54,468.65
35.85931,430.55,468.02
35.87872,429.30,466.92
35.90023,429.70,467.50
35.91966,432.65,468.31
35.94025,432.28,467.70
35.95967,430.88,466.27
35.98027,431.90,466.40
35.99986,431.61,464.13
36.02063,429.12,463.16
36.04052,427.82,467.39
36.05962,426.58,465.71
36.07985,429.00,467.44
36.10101,428.50,467.41
36.12019,427.99,468.04
36.13990,424.41,466.30
36.16102,425.71,467.53
36.17966,427.51,468.39
36.19948,424.79,466.31
36.22047,426.17,465.29
36.24038,425.95,468.73
36.26062,426.80,467.56
36.27948,427.43,465.51
36.29968,428.44,467.78
36.32056,426.25,464.96
36.34063,425.02,467.11
36.36021,428.73,464.97
36.38125,429.51,463.56
36.40100,429.20,463.33
36.41959,426.00,462.52
36.43947,424.16,463.93
36.45955,426.23,462.70
36.48007,424.57,464.14
36.49972,424.74,462.21
36.51976,423.97,464.11
36.54100,425.83,463.88
36.55975,421.54,461.56
36.58037,425.19,463.39
36.60134,423.38,461.26
36.62050,423.55,472.36
36.64004,423.02,491.45
36.66109,424.48,509.02
36.68066,427.71,527.31
36.70108,426.04,541.27
36.72075,425.78,548.90
36.74039,427.91,555.75
36.76097,426.53,551.38
36.78038,425.59,545.35
36.79965,428.34,544.74
36.82002,425.49,539.33
36.84032,428.80,535.48
36.86078,429.29,532.79
36.88065,426.64,530.31
36.90096,426.92,524.83
36.91943,429.39,516.76
36.94127,426.62,514.37
36.96141,428.11,507.45
36.98002,427.47,502.59
37.00078,425.14,499.41
37.02016,428.46,493.81
37.04026,428.58,492.65
37.06114,427.75,484.90
37.08013,426.33,485.23
37.09943,426.04,482.45
37.11986,426.18,477.47
37.14004,426.05,476.39
37.16090,425.62,472.63
37.18134,425.21,471.90
37.20047,427.50,473.21
37.22096,427.77,467.91
37.24084,426.00,469.56
37.26063,424.20,471.00
37.28009,426.72,469.71
37.30139,427.09,471.70
37.31983,425.28,468.35
37.34005,425.64,468.60
37.36109,423.28,469.58
37.38022,423.26,471.14
37.40046,423.80,466.54
37.41990,424.09,466.05
37.44062,423.60,466.92
37.46060,423.26,465.17
37.48038,425.61,466.18
37.50021,425.35,465.14
37.52091,423.18,466.21
37.54048,426.19,466.30
37.56052,425.16,466.84
37.58016,423.32,473.40
37.59960,423.81,475.79
37.62072,420.75,462.41
37.64036,420.23,435.51
37.66085,416.70,408.48
37.67962,413.70,385.37
37.70029,411.22,375.28
37.72073,414.32,367.48
37.74001,412.24,367.41
37.76031,413.28,370.18
37.78120,416.49,371.31
37.80076,414.18,378.07
37.82046,411.50,386.50
37.84045,414.47,389.55
37.86002,415.21,398.30
37.88135,417.35,404.49
37.90132,415.29,407.56
37.91976,416.47,413.03
37.94045,421.35,420.84
37.95935,420.90,423.08
37.97930,421.92,427.64
38.00129,422.29,433.26
38.02084,420.18,439.85
38.03959,418.33,439.46
38.06045,418.64,444.30
38.08019,418.08,447.82
38.10043,417.66,449.63
38.12019,420.32,453.15
38.14064,419.86,451.89
38.16118,421.59,456.73
38.17991,420.24,456.98
38.20067,422.12,457.64
38.22135,420.02,459.44
38.24003,420.53,460.16
38.26069,419.85,459.24
38.28010,420.20,459.78
38.30118,423.06,458.80
38.32134,421.46,458.25
38.34042,419.18,461.03
38.35995,422.46,462.59
38.38071,420.08,461.36
38.40034,422.92,460.93
38.42076,419.82,461.15
38.44042,419.60,462.68
38.45972,421.37,464.28
38.48015,418.82,466.22
38.50062,419.17,461.94
38.52124,420.31,462.97
38.54053,418.56,465.05
38.56038,419.02,464.01
38.58007,421.14,467.15
38.60000,419.00,466.15
38.62082,418.73,466.60
38.64062,420.26,468.35
38.66083,421.11,463.81
38.68129,419.53,463.99
38.70053,419.37,464.55
38.72063,416.95,465.73
38.74031,416.17,463.45
38.75962,418.39,461.83
38.78021,416.59,464.51
38.79999,416.08,462.92
38.82059,416.59,464.71
38.83973,416.01,464.17
38.85984,417.24,465.67
38.88100,417.90,464.80
38.90044,416.38,464.04
38.91962,418.25,466.57
38.94010,419.28,467.10
38.96122,418.22,463.60
38.98012,415.63,466.73
39.00089,418.57,463.28
39.02073,418.56,464.19
39.03950,419.63,465.85
39.05955,420.38,464.81
39.08078,419.79,462.94
39.09996,422.25,465.48
39.12018,421.37,463.71
39.14018,418.98,467.10
39.15984,421.64,465.60
39.17966,421.88,465.88
39.19975,420.55,463.71
39.22113,420.33,466.83
39.23981,418.80,465.73
39.25963,421.69,466.02
39.28118,420.59,465.11
39.29995,418.74,467.23
39.32132,419.52,467.17
39.34071,418.88,468.08
39.36082,419.52,465.28
39.38117,419.19,468.94
39.40099,421.10,466.85
39.41982,420.84,467.09
39.44068,420.46,465.02
39.46026,420.31,465.40
39.48042,419.79,464.61
39.49963,418.91,464.13
39.52072,418.05,465.03
39.54075,417.95,464.43
39.56038,419.14,466.69
39.58124,419.40,467.79
39.60107,420.73,466.84
39.62014,421.32,464.92
39.64115,419.38,467.35
39.65968,420.44,465.00
39.67991,418.79,466.47
39.70060,417.38,466.96
39.71942,420.37,464.89
39.74058,417.73,463.46
39.76142,419.86,466.42
39.77996,417.51,462.73
39.80103,418.24,465.47
39.82020,419.46,461.62
39.84058,419.32,461.87
39.86003,415.82,460.32
39.87956,418.95,462.48
39.90120,417.98,461.61
39.92077,416.66,460.95
39.93955,418.17,461.50
39.96107,419.12,462.74
39.98019,420.75,462.88
40.00016,419.45,464.35
40.01947,419.70,466.04
40.03957,417.66,463.08
40.06025,419.87,463.60
40.08037,421.61,466.06
40.09933,421.21,463.75
40.12032,421.76,465.20
40.14033,420.58,466.51
40.16064,417.84,463.11
40.18099,419.31,463.22
40.20130,419.00,463.77
40.21979,417.17,462.96
40.24065,420.21,461.83
40.26049,418.40,464.41
40.27983,420.12,463.46
40.30106,419.41,463.18
40.31963,417.33,462.67
40.33949,416.38,462.69
40.36002,416.07,465.61
40.37958,416.32,464.91
40.39964,419.10,465.33
40.41943,418.57,464.86
40.44051,418.94,465.15
40.45942,418.44,461.52
40.47923,418.37,462.57
40.50033,417.30,464.42
40.52033,419.63,463.20
40.54090,419.01,463.76
40.55923,421.00,463.13
40.58079,418.03,461.01
40.59952,418.09,462.14
40.61989,419.08,461.41
40.64104,418.86,461.87
40.66009,420.30,460.23
40.68098,421.40,460.02
40.70042,420.83,462.64
40.71943,421.98,461.33
40.74011,423.38,463.81
40.76002,423.44,465.25
40.78211,424.23,464.65
40.80216,424.00,463.23
40.82090,422.22,465.11
40.84198,423.83,465.75
40.86133,420.46,462.87
40.88160,423.40,460.84
40.90109,423.90,464.50
40.92223,422.32,461.10
40.94145,421.97,462.86
40.96095,420.15,462.25
40.98078,418.92,461.26
41.00144,422.43,462.74
41.02133,419.38,462.63
41.04171,419.21,464.70
41.06063,418.85,465.58
41.08232,421.68,462.11
41.10098,420.49,463.80
41.12158,421.64,463.80
41.14140,421.03,460.38
41.16176,423.28,462.11
41.18050,423.15,461.92
41.20228,419.27,464.73
41.22196,420.42,461.21
41.24179,419.16,463.73
41.26130,420.50,461.67
41.28101,422.12,462.26
41.30113,421.79,462.04
41.32063,417.91,465.17
41.34216,419.03,478.88
41.36099,422.33,499.19
41.38179,421.48,524.33
41.40187,418.68,542.84
41.42085,418.60,548.96
41.44039,422.72,552.67
41.46180,420.81,551.75
41.48193,419.16,547.56
41.50072,420.60,543.82
41.52181,422.51,534.66
41.54178,422.94,527.09
41.56223,422.35,523.17
41.58191,424.01,516.17
41.60052,427.55,510.04
41.62092,429.44,505.12
41.64176,429.37,502.92
41.66053,426.99,500.66
41.68172,427.09,495.02
41.70159,424.85,492.65
41.72140,425.87,486.11
41.74143,422.98,485.73
41.76127,422.59,483.62
41.78169,421.74,487.88
41.80228,424.39,485.55
41.82152,422.64,490.63
41.84217,424.76,488.51
41.86291,422.47,488.53
41.88159,422.18,488.41
41.90267,422.10,488.16
41.92200,424.43,484.30
41.94289,422.03,481.55
41.96319,423.26,479.64
41.98263,423.31,478.02
42.00196,423.12,476.26
42.02171,424.01,476.62
42.04260,422.36,474.03
42.06183,422.60,470.79
42.08228,421.65,472.43
42.10138,423.54,472.04
42.12196,425.28,468.67
42.14157,422.37,467.69
42.16169,422.73,470.15
42.18264,423.25,468.10
42.20233,422.10,467.68
42.22225,424.86,475.34
42.24281,422.97,483.45
42.26174,423.59,488.65
42.28298,420.62,478.67
42.30122,419.37,450.88
42.32315,416.96,418.08
42.34310,418.30,388.55
42.36255,416.47,369.79
42.38166,416.70,359.10
42.40218,419.52,358.37
42.42132,416.79,354.23
42.44276,416.96,356.27
42.46182,417.04,361.67
42.48330,418.74,372.90
42.50250,420.40,377.99
42.52264,419.78,387.64
42.54243,421.04,393.30
42.56269,423.00,401.50
42.58144,422.80,408.98
42.60124,423.79,418.07
42.62287,422.09,425.24
42.64158,423.46,429.90
42.66296,423.13,435.26
42.68296,424.25,436.17
42.70297,424.38,443.30
42.72269,425.76,443.95
42.74238,425.45,446.12
42.76226,424.42,450.67
42.78280,427.01,451.19
42.80314,427.59,453.48
42.82222,427.37,456.49
42.84313,426.39,457.97
42.86420,428.51,458.28
42.88341,426.44,455.99
42.90233,427.61,457.26
42.92321,426.84,456.99
42.94265,429.47,458.70
42.96359,429.27,461.13
42.98253,426.51,460.63
43.00306,428.77,463.61
43.02400,429.74,462.10
43.04472,428.36,462.20
43.06481,429.23,461.70
43.08620,429.74,462.93
43.10591,429.24,463.44
43.12578,430.04,462.89
43.14466,429.95,461.73
43.16542,429.93,463.12
43.18474,431.35,463.46
43.20571,431.19,463.21
43.22472,434.33,464.47
43.24545,431.12,464.79
43.26594,430.15,465.16
43.28585,433.81,463.08
43.30569,433.34,464.35
43.32484,435.46,465.01
43.34543,435.96,465.04
43.36528,435.81,464.59
43.38584,433.87,468.06
43.40527,433.31,466.14
43.42466,435.23,464.70
43.44618,434.21,465.10
43.46583,435.75,464.45
43.48571,434.13,461.97
43.50554,433.09,462.93
43.52481,433.81,465.58
43.54454,432.90,464.23
43.56463,432.23,466.46
43.58512,431.95,465.40
43.60585,432.82,468.43
43.62420,435.56,468.09
43.64465,434.54,466.11
43.66486,434.42,466.59
43.68490,435.74,466.73
43.70468,433.94,467.86
43.72591,435.59,463.81
43.74598,433.05,467.23
43.76613,435.06,466.50
43.78570,436.64,463.63
43.80578,436.08,465.22
43.82493,434.45,467.96
43.84465,433.46,468.10
43.86510,433.84,469.73
43.88421,434.16,469.13
43.90567,435.00,468.10
43.92452,432.92,467.22
43.94499,434.83,469.39
43.96534,432.70,469.46
43.98537,432.99,469.13
44.00441,430.90,469.71
44.02510,432.12,468.98
44.04541,433.98,469.98
44.06444,436.09,469.25
44.08534,434.41,454.59
44.10555,438.23,444.46
44.12515,437.98,432.17
44.14508,437.53,427.10
44.16538,440.65,422.35
44.18500,440.93,424.56
44.20574,441.49,423.02
44.22599,443.17,428.82
44.24524,441.49,430.13
44.26499,440.35,436.88
44.28535,439.68,439.76
44.30429,440.42,441.20
44.32514,440.92,444.12
44.34520,443.62,447.15
44.36629,447.27,451.81
44.38562,454.60,453.22
44.40476,454.56,455.42
44.42560,455.95,458.29
44.44435,453.95,461.62
44.46424,453.36,464.56
44.48496,451.34,467.28
44.50569,453.06,469.46
44.52456,453.23,470.16
44.54510,450.28,473.51
44.56477,447.85,473.87
44.58508,449.35,477.69
44.60470,446.85,480.04
44.62515,449.12,488.38
44.64533,448.55,497.36
44.66444,449.14,512.52
44.68490,450.91,533.30
44.70568,452.15,553.99
44.72585,453.36,570.39
44.74546,452.90,586.04
44.76599,449.52,592.54
44.78490,447.67,600.54
44.80553,448.80,603.52
44.82555,445.07,603.53
44.84620,439.87,599.82
44.86453,436.91,589.67
44.88522,431.79,573.61
44.90457,430.42,555.09
44.92410,425.77,527.64
44.94578,421.28,494.79
44.96453,419.81,467.84
44.98610,416.75,443.35
45.00562,413.35,427.59
45.02520,411.27,421.39
45.04477,407.94,434.58
45.06615,413.95,459.53
45.08484,418.41,482.63
45.10491,416.24,490.50
45.12515,412.11,480.84
45.14531,402.73,464.28
45.16551,396.61,439.94
45.18435,391.44,414.52
45.20596,386.76,393.11
45.22481,388.72,375.82
45.24478,390.30,364.48
45.26565,391.85,361.98
45.28554,396.01,361.47
45.30532,400.19,361.41
45.32458,403.31,368.92
45.34697,409.84,369.87
45.36517,414.31,376.21
45.38602,416.34,381.61
45.40713,421.08,388.22
45.42515,424.04,395.66
45.44685,427.11,408.96
45.46680,429.15,417.83
45.48646,435.22,425.84
45.50543,435.83,431.74
45.52563,436.84,440.37
