Program Time [s],data 0,data 1
17.48986,503.35,534.12
17.51057,499.65,535.17
17.53027,499.65,538.75
17.55002,502.97,541.77
17.56903,502.13,541.35
17.58881,501.13,543.37
17.60985,498.59,544.94
17.62879,500.87,543.17
17.64906,497.25,543.01
17.67026,500.53,545.67
17.68923,501.16,546.02
17.70959,501.82,542.36
17.72992,500.55,542.83
17.75000,498.10,546.58
17.77017,501.15,543.79
17.78928,500.83,542.94
17.81062,501.97,542.74
17.82957,500.88,541.81
17.85217,501.97,542.40
17.86934,501.38,543.47
17.88939,502.05,543.76
17.91039,501.48,545.18
17.92909,498.31,545.84
17.94942,497.64,545.11
17.97003,498.22,546.34
17.98946,499.22,546.74
18.00978,500.07,546.46
18.03022,500.08,546.07
18.04997,499.34,541.76
18.06979,496.87,548.47
18.08990,500.55,562.58
18.10944,500.26,594.85
18.12914,505.42,623.10
18.15028,507.35,645.32
18.17027,508.28,658.29
18.19055,507.60,663.29
18.21004,507.92,659.99
18.22948,506.13,649.53
18.24936,506.52,636.26
18.26901,502.70,620.78
18.28884,502.06,609.55
18.30868,503.84,600.37
18.32922,504.07,588.00
18.34956,502.61,582.34
18.37051,501.15,576.43
18.39049,500.49,572.32
18.40957,500.63,571.13
18.43008,501.16,564.57
18.44914,500.78,559.21
18.47018,500.89,555.91
18.49000,502.06,551.18
18.51029,501.28,553.58
18.52946,500.30,550.62
18.54972,500.95,551.43
18.56991,500.25,546.52
18.58940,503.09,547.03
18.60951,502.35,546.93
18.63015,501.39,542.61
18.64969,498.38,543.63
18.67004,497.20,541.87
18.68914,497.65,545.07
18.70895,499.87,541.79
18.72996,499.17,546.44
18.74944,500.47,542.40
18.76893,500.24,543.40
18.78990,500.78,544.09
18.80958,499.13,545.24
18.82952,501.05,544.09
18.84958,498.43,540.43
18.86947,501.73,543.50
18.88989,499.21,540.26
18.90976,498.58,541.96
18.93013,501.30,541.63
18.95027,498.64,544.23
18.97048,499.62,544.34
18.99048,500.76,541.14
19.01044,503.41,542.58
19.03146,505.41,546.56
19.05024,505.64,546.26
19.07130,503.22,541.72
19.09097,504.96,544.14
19.11126,503.33,544.05
19.13013,503.93,544.71
19.15014,504.97,544.56
19.17043,507.12,543.14
19.19143,508.04,543.07
19.21016,507.71,537.81
19.22988,510.68,519.43
19.25150,509.14,496.49
19.27028,504.06,471.25
19.29015,504.46,449.90
19.31087,501.53,442.11
19.33122,500.19,441.83
19.35049,501.64,442.95
19.37007,501.31,449.61
19.39093,503.58,454.43
19.41080,503.26,463.02
19.43089,501.47,472.39
19.45009,506.06,481.70
19.47089,504.78,486.42
19.49131,507.84,493.00
19.51000,506.34,499.70
19.53051,508.24,502.55
19.55010,505.13,509.97
19.57154,507.31,509.04
19.59133,506.22,513.46
19.60994,504.56,521.00
19.63049,504.72,522.53
19.65246,507.71,527.04
19.67276,507.12,529.26
19.69106,508.14,531.37
19.71123,508.05,535.06
19.73232,508.79,536.25
19.75185,505.10,537.95
19.77280,504.63,536.78
19.79236,506.04,538.02
19.81242,508.69,539.77
19.83214,510.81,540.24
19.85209,510.56,545.07
19.87214,508.25,545.65
19.89222,510.40,543.75
19.91230,512.56,542.44
19.93140,511.69,544.85
19.95203,511.43,544.44
19.97208,513.48,544.89
19.99129,511.63,546.67
20.01081,512.55,544.04
20.03158,515.26,545.10
20.05168,513.83,547.10
20.07124,515.44,549.63
20.09196,511.30,548.06
20.11124,513.57,548.54
20.13210,513.58,546.14
20.15250,513.76,546.25
20.17262,514.20,545.31
20.19103,510.66,544.36
20.21111,513.58,544.29
20.23083,510.96,544.57
20.25134,513.76,542.86
20.27125,512.62,542.26
20.29155,510.65,542.41
20.31169,510.19,544.63
20.33300,508.89,545.66
20.35105,510.07,544.88
20.37216,510.71,544.59
20.39228,508.73,543.15
20.41164,512.55,546.12
20.43086,509.77,545.92
20.45113,510.16,545.27
20.47216,514.00,543.48
20.49085,511.06,546.36
20.51200,510.95,546.11
20.53068,513.11,545.65
20.55221,511.77,545.07
20.57189,510.30,548.16
20.59254,508.27,548.72
20.61145,510.77,549.31
20.63203,509.12,547.12
20.65152,511.28,547.94
20.67134,512.30,549.74
20.69050,513.86,546.66
20.71212,513.90,545.92
20.73295,515.79,548.13
20.75080,513.48,549.63
20.77146,513.16,547.26
20.79201,515.89,547.44
20.81271,516.48,548.68
20.83145,514.40,548.55
20.85174,516.91,547.71
20.87104,514.67,548.83
20.89238,513.59,549.31
20.91150,515.36,547.40
20.93161,514.97,547.77
20.95137,513.41,548.69
20.97154,511.74,549.14
20.99211,511.81,545.82
21.01140,510.72,546.75
21.03167,511.78,549.37
21.05186,511.23,549.36
21.07118,511.48,548.83
21.09183,510.58,548.11
21.11275,509.45,545.06
21.13209,511.71,546.93
21.15245,512.23,546.71
21.17156,512.85,545.20
21.19146,514.19,546.63
21.21279,513.13,545.11
21.23170,513.33,545.28
21.25160,515.06,544.93
21.27215,511.67,546.88
21.29158,512.47,542.94
21.31188,513.96,545.37
21.33095,517.21,543.15
21.35081,515.37,546.72
21.37194,518.53,544.96
21.39203,515.87,545.94
21.41173,517.08,550.63
21.43183,516.89,552.50
21.45232,517.24,551.69
21.47086,517.08,554.30
21.49134,517.11,555.34
21.51137,514.53,552.20
21.53149,515.69,554.48
21.55094,514.34,549.04
21.57246,517.30,551.70
21.59102,517.38,550.06
21.61217,515.58,550.60
21.63179,512.12,548.71
21.65213,514.32,549.16
21.67263,514.78,550.05
21.69078,514.42,546.61
21.71188,517.53,547.80
21.73090,516.60,548.06
21.75218,515.25,547.95
21.77137,516.20,550.62
21.79188,513.73,545.52
21.81130,513.70,546.57
21.83159,516.51,547.99
21.85166,515.79,546.07
21.87190,513.21,548.31
21.89090,515.17,550.14
21.91172,516.86,549.83
21.93229,516.04,547.47
21.95288,515.64,550.41
21.97247,514.89,550.19
21.99272,516.85,546.51
22.01240,516.84,547.06
22.03222,518.57,543.23
22.05306,519.60,547.47
22.07225,519.38,561.71
22.09347,522.95,574.85
22.11252,520.12,592.26
22.13295,522.90,599.20
22.15252,521.16,607.37
22.17367,519.36,614.21
22.19526,518.32,611.93
22.21444,515.70,610.65
22.23466,515.98,611.07
22.25571,517.07,604.46
22.27396,517.12,597.50
22.29491,516.47,591.14
22.31477,517.24,588.36
22.33508,518.06,582.24
22.35386,518.12,579.96
22.37423,516.20,575.93
22.39419,516.79,571.09
22.41485,514.39,565.74
22.43414,517.04,565.98
22.45495,514.53,562.80
22.47485,512.93,558.29
22.49378,512.67,557.50
22.51443,511.06,555.85
22.53445,511.47,554.75
22.55478,511.07,557.57
22.57406,514.04,554.98
22.59470,513.61,553.41
22.61395,513.31,555.21
22.63390,515.49,556.88
22.65424,517.11,556.16
22.67432,516.33,556.32
22.69451,515.50,552.60
22.71490,513.05,554.37
22.73462,513.61,554.38
22.75463,513.75,552.87
22.77410,513.68,553.93
22.79442,511.74,553.49
22.81516,511.88,552.73
22.83417,513.15,549.78
22.85556,513.30,553.42
22.87528,514.51,552.37
22.89476,512.23,553.58
22.91488,515.47,552.03
22.93471,515.64,551.73
22.95552,513.83,551.63
22.97530,512.67,551.94
22.99515,512.34,538.50
23.01448,514.20,511.74
23.03467,514.81,479.60
23.05559,509.88,454.36
23.07412,507.64,440.76
23.09554,508.98,435.58
23.11503,506.04,435.29
23.13494,507.36,439.43
23.15429,505.68,445.84
23.17515,508.79,452.49
23.19443,509.24,462.53
23.21534,509.09,469.42
23.23361,507.69,477.74
23.25493,508.05,483.85
23.27512,511.15,494.34
23.29470,512.45,504.45
23.31511,513.04,510.90
23.33377,509.40,514.26
23.35394,511.59,520.25
23.37386,514.47,528.11
23.39465,513.41,529.01
23.41543,513.37,534.14
23.43455,511.62,536.61
23.45551,509.75,537.63
23.47370,512.21,539.17
23.49474,512.93,542.24
23.51537,510.66,542.10
23.53542,508.96,541.20
23.55439,512.14,541.61
23.57368,511.26,542.75
23.59529,509.44,544.23
23.61499,509.55,544.07
23.63562,510.00,541.37
23.65538,508.83,544.09
23.67371,509.19,543.49
23.69417,507.22,546.04
23.71570,507.04,545.76
23.73473,507.49,545.55
23.75506,505.92,550.75
23.77441,509.11,548.79
23.79481,509.14,547.79
23.81439,507.65,550.51
23.83390,508.15,548.18
23.85426,509.11,546.63
23.87406,508.09,547.54
23.89559,509.03,547.30
23.91441,507.89,545.94
23.93473,509.27,547.38
23.95397,509.37,545.99
23.97507,509.92,544.45
23.99394,506.55,544.58
24.01490,509.60,546.69
24.03484,507.09,546.01
24.05402,506.96,546.62
24.07497,508.94,545.18
24.09533,505.96,544.49
24.11483,508.77,546.97
24.13424,510.30,547.05
24.15432,515.01,546.72
24.17458,515.64,550.39
24.19509,519.17,547.79
24.21523,519.62,547.63
24.23598,519.16,547.16
24.25645,519.75,548.49
24.27464,516.86,548.65
24.29473,518.13,546.10
24.31685,513.53,547.28
24.33726,514.65,545.84
24.35734,513.92,547.49
24.37775,512.51,547.71
24.39857,508.65,547.16
24.41927,508.82,548.12
24.43922,504.56,547.62
24.45873,503.59,544.88
24.47921,503.41,546.84
24.49961,501.44,544.58
24.51996,500.29,545.25
24.53874,499.68,541.55
24.55979,500.08,543.03
24.58042,497.20,540.70
24.59855,498.93,541.49
24.61927,498.37,542.22
24.63901,499.48,542.16
24.66012,498.06,540.14
24.68013,496.60,542.89
24.70086,496.45,542.16
24.72102,495.78,541.55
24.74136,498.68,544.18
24.76132,498.53,544.65
24.78096,497.75,541.11
24.80096,497.94,543.41
24.82065,496.62,542.25
24.84085,495.17,542.11
24.86071,493.77,542.85
24.88003,497.18,543.01
24.89962,494.08,539.88
24.91982,494.53,541.50
24.94168,497.79,539.11
24.96031,495.52,537.61
24.98000,493.60,537.35
25.00116,493.31,539.42
25.02166,497.23,541.50
25.04089,496.06,542.41
25.06001,497.43,542.90
25.08109,499.28,540.84
25.09987,497.23,542.67
25.12021,498.56,543.04
25.13971,496.64,540.94
25.16016,498.44,542.93
25.18112,498.64,542.08
25.20053,498.22,543.01
25.21982,496.41,542.43
25.23996,495.66,542.80
25.26063,498.83,543.08
25.28061,496.95,541.79
25.30047,498.18,543.76
25.32132,499.51,544.72
25.34022,498.38,546.02
25.35975,500.70,543.99
25.38130,499.87,542.84
25.39992,500.63,543.78
25.42057,498.41,543.63
25.44073,498.99,544.42
25.46126,498.10,543.55
25.48087,500.11,543.42
25.50048,500.69,542.93
25.52108,498.26,543.39
25.53996,501.44,544.37
25.56155,499.91,543.32
25.58149,500.49,543.49
25.60029,499.55,541.69
25.62032,498.04,543.59
25.63997,498.34,542.26
25.66103,498.08,543.84
25.68096,498.19,542.61
25.70079,496.17,542.26
25.72020,495.95,542.05
25.74140,495.60,540.86
25.76032,496.78,539.02
25.78148,497.51,538.81
25.80081,495.95,538.01
25.81994,497.60,537.37
25.84179,499.64,537.81
25.86043,499.36,535.49
25.88047,499.41,539.36
25.90043,498.56,549.01
25.92019,499.95,570.53
25.94091,499.81,601.68
25.96109,501.67,631.24
25.98096,502.14,651.24
26.00130,500.05,660.74
26.02058,499.51,659.96
26.04032,497.24,652.11
26.06006,496.63,644.60
26.08158,499.68,632.68
26.10023,497.56,621.79
26.12204,495.58,611.76
26.14077,495.81,599.64
26.16233,498.40,593.59
26.18127,498.56,586.41
26.20159,497.86,578.53
26.22080,498.52,575.59
26.24139,498.29,571.97
26.26169,498.15,568.74
26.28128,501.47,564.53
26.30238,503.87,562.89
26.32227,502.60,561.32
26.34119,504.75,555.69
26.36099,504.29,556.78
26.38119,503.79,553.56
26.40198,504.18,554.04
26.42110,501.97,553.40
26.44141,504.16,551.23
26.46146,504.58,550.00
26.48092,502.53,550.06
26.50234,503.52,548.28
26.52076,503.75,548.96
26.54129,500.99,548.77
26.56202,500.54,551.30
26.58141,500.78,548.32
26.60060,500.61,546.58
26.62248,502.75,546.92
26.64176,499.97,547.66
26.66235,499.89,546.99
26.68108,500.06,545.47
26.70123,503.07,547.33
26.72087,502.87,547.22
26.74235,503.31,545.45
26.76080,503.57,545.69
26.78168,501.53,542.68
26.80143,503.58,544.70
26.82059,500.25,543.55
26.84203,503.45,543.45
26.86116,501.36,545.16
26.88222,502.87,545.43
26.90089,502.01,546.19
26.92202,502.34,549.77
26.94250,500.98,547.27
26.96193,501.45,533.98
26.98239,501.94,509.39
27.00180,500.08,480.08
27.02139,496.95,454.39
27.04156,496.35,436.32
27.06244,495.60,430.26
27.08115,492.59,430.82
27.10235,494.45,433.24
27.12126,497.32,437.31
27.14265,494.48,445.91
27.16096,496.12,454.46
27.18159,502.78,468.94
27.20179,504.79,482.30
27.22163,508.40,490.04
27.24064,507.93,498.03
27.26157,507.87,506.07
27.28105,510.90,513.17
27.30168,509.64,519.04
27.32233,508.96,522.03
27.34170,508.90,525.75
27.36138,506.91,530.24
27.38102,507.81,530.98
27.40050,510.16,535.37
27.42098,509.52,536.72
27.44284,508.38,538.82
27.46218,507.79,537.49
27.48144,508.71,540.58
27.50104,509.57,539.69
27.52241,508.18,542.83
27.54239,509.02,544.39
27.56151,507.06,540.37
27.58165,506.60,540.09
27.60229,508.60,540.73
27.62154,506.97,540.64
27.64204,508.54,538.04
27.66195,507.08,541.17
27.68261,509.08,540.28
27.70225,507.66,538.40
27.72332,510.28,541.61
27.74211,510.19,544.21
27.76293,507.34,540.85
27.78210,507.30,541.71
27.80299,509.25,543.05
27.82229,507.89,543.62
27.84316,507.47,542.70
27.86229,507.59,544.58
27.88233,509.89,542.67
27.90295,510.29,545.80
27.92200,509.19,545.90
27.94357,508.85,542.49
27.96345,510.96,543.50
27.98244,510.44,544.72
28.00338,511.16,546.85
28.02212,508.57,548.02
28.04186,510.62,547.61
28.06358,513.44,547.35
28.08360,513.59,547.09
28.10271,513.27,543.69
28.12352,511.75,545.28
28.14210,508.91,547.38
28.16234,512.68,545.07
28.18265,512.92,546.39
28.20231,512.69,546.20
28.22294,511.71,543.70
28.24308,511.67,544.69
28.26270,511.47,545.88
28.28230,513.97,547.03
28.30186,513.41,547.00
28.32234,514.51,548.40
28.34261,513.21,548.16
28.36356,510.64,546.08
28.38275,511.33,547.73
28.40164,512.73,548.49
28.42277,513.39,547.18
28.44283,515.91,546.89
28.46257,513.90,548.28
28.48269,513.57,546.14
28.50257,512.00,545.39
28.52330,513.98,545.57
28.54167,510.61,547.57
28.56219,513.43,548.45
28.58194,514.18,548.03
28.60311,511.46,546.93
28.62273,513.93,542.75
28.64210,514.43,546.50
28.66217,512.96,543.80
28.68238,514.72,541.82
28.70170,511.92,543.88
28.72217,512.47,542.44
28.74258,511.79,545.53
28.76339,512.88,542.18
28.78205,512.68,540.47
28.80211,510.16,543.61
28.82303,513.19,546.54
28.84283,511.03,546.08
28.86207,513.42,543.53
28.88207,511.26,546.85
28.90281,509.42,547.04
28.92224,510.05,546.17
28.94267,513.12,548.43
28.96242,513.62,548.69
28.98204,511.32,548.72
29.00163,514.44,547.19
29.02216,513.26,545.44
29.04216,513.18,546.73
29.06232,513.84,547.20
29.08227,513.87,547.57
29.10314,515.37,548.90
29.12243,515.12,546.41
29.14166,512.76,548.70
29.16180,512.47,548.55
29.18171,513.99,547.61
29.20262,514.51,549.30
29.22312,513.80,545.20
29.24189,516.20,546.13
29.26198,515.81,545.67
29.28291,513.61,544.39
29.30209,514.43,545.74
29.32325,516.98,546.14
29.34293,518.04,547.64
29.36315,514.33,549.01
29.38337,516.86,548.93
29.40166,516.10,548.24
29.42277,514.31,548.01
29.44327,516.23,548.28
29.46335,517.08,549.31
29.48253,516.70,547.22
29.50520,515.23,548.52
29.52445,517.45,549.03
29.54586,517.19,547.61
29.56649,515.25,549.48
29.58480,514.07,550.50
29.60474,513.63,549.64
29.62642,516.05,551.07
29.64471,517.58,551.83
29.66600,515.45,551.98
29.68600,516.96,551.16
29.70591,516.67,552.64
29.72558,518.40,550.18
29.74474,517.40,552.81
29.76590,518.09,552.34
29.78601,516.34,552.77
29.80467,518.41,551.87
29.82470,516.32,550.65
29.84620,515.95,552.46
29.86523,516.59,550.36
29.88570,515.56,549.97
29.90484,516.87,551.36
29.92553,516.37,553.87
29.94509,516.75,553.20
29.96622,516.07,552.16
29.98453,515.46,551.49
30.00502,515.75,550.51
30.02493,515.19,553.18
30.04615,514.28,554.49
30.06568,517.40,550.82
30.08576,514.36,552.49
30.10471,513.47,551.54
30.12615,516.30,552.85
30.14456,516.45,552.46
30.16515,515.66,552.32
30.18573,513.36,559.71
30.20660,518.40,580.03
30.22614,519.80,611.18
30.24622,520.80,644.14
30.26554,523.53,671.91
30.28574,524.00,682.09
30.30548,520.88,681.19
30.32648,517.97,672.26
30.34467,518.93,665.08
30.36552,516.93,648.84
30.38581,515.48,635.44
30.40619,515.83,623.10
30.42595,516.12,614.42
30.44650,515.57,606.41
30.46581,514.14,597.36
30.48505,512.44,590.83
30.50575,513.53,584.03
30.52491,513.13,578.26
30.54621,514.41,571.15
30.56563,512.77,569.06
30.58592,512.05,567.54
30.60585,511.33,564.08
30.62570,511.40,561.47
30.64440,511.65,559.90
30.66598,513.05,558.60
30.68609,511.61,561.23
30.70523,511.78,559.83
30.72461,514.71,557.89
30.74478,516.25,556.13
30.76531,516.59,556.88
30.78458,516.00,558.56
30.80537,514.76,556.24
30.82598,514.99,556.05
30.84501,514.94,556.62
30.86484,516.16,555.22
30.88572,516.21,554.19
30.90512,516.39,553.46
30.92599,515.65,553.38
30.94613,515.46,553.74
30.96535,514.10,553.03
30.98494,515.11,552.98
31.00502,515.24,552.58
31.02600,516.63,554.52
31.04477,512.79,555.05
31.06528,515.29,552.97
31.08541,515.93,554.66
31.10513,512.72,552.71
31.12566,512.45,552.26
31.14625,516.11,547.03
31.16481,520.37,528.06
31.18497,525.04,504.58
31.20579,523.46,480.65
31.22573,523.95,455.44
31.24603,518.68,441.85
31.26655,514.14,435.12
31.28490,514.07,435.93
31.30518,513.40,440.68
31.32614,511.67,446.00
31.34616,511.80,456.55
31.36647,511.09,464.33
31.38525,511.64,471.85
31.40556,511.52,480.54
31.42608,512.70,491.03
31.44633,513.08,495.49
31.46497,513.84,505.18
31.48567,511.85,510.43
31.50558,511.30,516.84
31.52616,512.36,524.27
31.54582,511.43,526.64
31.56546,514.18,530.84
31.58497,511.58,536.52
31.60551,513.71,540.70
31.62471,511.46,542.89
31.64614,511.28,544.18
31.66535,510.99,544.52
31.68496,509.91,546.26
31.70489,510.51,546.16
31.72593,512.84,547.58
31.74462,511.70,545.31
31.76497,513.82,548.90
31.78493,511.21,546.69
31.80648,514.01,547.32
31.82533,510.57,548.34
31.84492,512.35,546.79
31.86543,511.34,544.23
31.88484,511.49,548.14
31.90512,511.27,546.86
31.92550,511.59,544.18
31.94477,509.86,544.49
31.96599,511.04,545.10
31.98492,509.38,546.13
32.00545,510.75,546.35
32.02585,512.96,545.89
32.04621,511.69,546.82
32.06577,510.09,548.02
32.08569,513.82,549.39
32.10635,512.32,548.58
32.12482,511.69,550.97
32.14519,512.14,548.35
32.16454,509.65,549.77
32.18491,509.79,551.53
32.20482,512.54,550.95
32.22557,509.41,552.80
32.24564,511.56,549.61
32.26613,511.73,549.93
32.28477,509.95,553.51
32.30504,509.86,549.49
32.32616,507.47,550.80
32.34608,507.84,549.83
32.36604,510.23,549.13
32.38530,508.60,550.42
32.40643,511.82,548.82
32.42514,510.80,550.97
32.44456,512.25,551.05
32.46565,512.16,549.54
32.48444,510.38,546.75
32.50457,509.87,547.33
32.52635,511.50,546.26
32.54636,511.97,547.07
32.56609,511.74,545.25
32.58569,512.95,547.30
32.60567,514.84,547.24
32.62553,511.82,550.63
32.64558,513.98,550.38
32.66596,512.57,550.51
32.68452,512.51,548.67
32.70470,509.09,551.43
32.72552,508.58,549.02
32.74473,508.55,550.34
32.76638,509.85,549.77
32.78628,509.42,551.10
32.80463,508.90,549.33
32.82590,508.39,550.53
32.84583,509.31,550.02
32.86504,506.87,551.05
32.88579,504.64,551.78
32.90506,507.09,550.84
32.92602,509.23,550.83
32.94493,509.27,551.95
32.96531,506.75,551.34
32.98625,505.87,547.25
33.00587,505.69,548.63
33.02635,503.80,548.17
33.04620,506.72,550.12
33.06645,504.66,548.05
33.08484,504.86,551.20
33.10525,505.58,548.76
33.12576,504.06,548.31
33.14600,503.99,549.81
33.16583,505.33,550.04
33.18447,506.94,551.25
33.20515,510.30,547.96
33.22503,508.87,550.74
33.24483,511.04,551.14
33.26468,509.84,548.52
33.28595,509.58,548.41
33.30597,511.18,550.11
33.32560,511.93,549.52
33.34624,509.96,548.71
33.36476,510.83,549.33
33.38618,508.04,548.00
33.40600,507.24,547.37
33.42569,508.60,550.14
33.44471,509.01,548.58
33.46463,506.39,548.05
33.48458,506.44,550.25
33.50458,504.80,548.86
33.52478,508.11,550.30
33.54596,505.53,549.90
33.56564,504.42,546.89
33.58585,504.15,547.86
33.60614,507.33,546.05
33.62552,505.25,546.39
33.64558,505.20,544.49
33.66497,508.41,546.26
33.68580,508.69,544.76
33.70501,507.97,547.27
33.72510,505.59,547.22
33.74597,507.03,546.36
33.76528,507.21,547.81
33.78597,504.77,546.32
33.80547,504.32,549.38
33.82558,506.07,548.13
33.84590,506.18,545.49
33.86548,508.20,544.96
33.88479,504.11,547.15
33.90612,504.14,547.25
33.92485,504.01,546.93
33.94556,503.91,546.11
33.96603,504.54,549.27
33.98640,503.45,548.74
34.00456,504.25,549.30
34.02596,504.98,547.90
34.04573,507.55,550.12
34.06523,507.64,546.22
34.08569,504.75,548.01
34.10566,507.30,547.62
34.12446,508.03,547.44
34.14471,505.20,548.40
34.16487,505.77,544.63
34.18621,506.63,542.38
34.20452,505.08,540.72
34.22557,503.54,549.19
34.24516,504.46,571.17
34.26517,505.76,601.85
34.28474,508.64,633.16
34.30641,507.75,658.46
34.32479,508.59,671.24
34.34530,506.21,678.87
34.36522,503.10,675.25
34.38629,504.34,666.20
34.40509,502.79,653.98
34.42483,501.00,639.34
34.44448,500.92,625.82
34.46444,501.47,614.08
34.48564,499.54,601.25
34.50483,498.96,594.03
34.52489,499.85,591.08
34.54610,498.69,583.61
34.56610,499.55,579.09
34.58649,502.55,575.06
34.60554,504.22,571.79
34.62531,503.12,567.50
34.64595,503.66,566.84
34.66591,504.49,561.94
34.68626,503.80,559.71
34.70597,503.61,555.20
34.72439,504.33,556.71
34.74674,500.49,557.72
34.76541,500.35,556.38
34.78571,503.07,554.43
34.80632,503.17,555.09
34.82696,503.91,553.00
34.84595,504.05,552.45
34.86634,505.01,552.91
34.88732,503.57,551.08
34.90644,504.34,553.05
34.92614,501.37,550.10
34.94696,501.07,553.45
34.96649,502.55,552.59
34.98712,499.68,552.71
35.00575,498.26,550.42
35.02629,499.69,547.32
35.04576,498.61,548.42
35.06684,498.91,548.58
35.08627,498.01,551.40
35.10610,496.38,548.98
35.12691,499.91,554.29
35.14612,496.49,555.43
35.16598,497.32,559.19
35.18726,498.16,555.67
35.20594,499.35,542.00
35.22549,500.13,517.16
35.24616,498.98,486.67
35.26546,497.12,458.57
35.28587,493.44,443.65
35.30745,494.27,435.84
35.32567,495.75,436.43
35.34663,494.18,438.92
35.36562,494.60,440.46
35.38692,493.76,448.58
35.40623,493.35,455.89
35.42619,496.53,462.47
35.44600,495.12,468.17
35.46602,491.07,473.85
35.48547,492.50,480.84
35.50681,494.19,488.29
35.52685,491.04,493.66
35.54636,491.10,497.73
35.56669,492.86,505.21
35.58689,495.47,508.27
35.60651,496.55,513.37
35.62621,495.93,522.24
35.64585,496.35,523.79
35.66675,497.86,529.53
35.68604,499.14,530.55
35.70693,498.43,534.01
35.72793,498.91,533.34
35.74819,500.26,537.20
35.76664,501.57,536.55
35.78885,497.95,538.36
35.80808,498.41,538.45
35.82746,499.97,539.61
35.84907,499.53,542.46
35.86896,499.37,543.89
35.88939,498.09,541.51
35.90913,499.57,541.30
35.92891,499.77,542.94
35.94832,501.39,544.51
35.96909,501.28,544.60
35.98759,499.32,544.49
36.00824,501.20,542.01
36.02779,501.55,541.15
36.04877,499.03,543.76
36.06804,500.17,543.48
36.08849,499.71,543.85
36.10822,498.58,544.49
36.12915,496.46,544.08
36.14914,497.04,541.54
36.16893,498.36,542.39
36.18953,499.78,545.60
36.20974,500.08,542.86
36.22976,500.45,542.58
36.24923,499.70,545.97
36.26870,498.35,546.44
36.28909,500.98,544.34
36.31028,500.87,543.92
36.32928,501.09,544.08
36.35026,500.06,541.25
36.36859,499.65,544.09
36.39122,501.93,542.17
36.41091,499.97,544.59
36.43092,499.80,544.13
36.45123,500.23,544.53
36.47276,502.34,544.20
36.49192,502.74,544.14
36.51275,500.71,545.35
36.53160,500.44,543.55
36.55264,502.16,546.86
36.57365,506.86,543.84
36.59404,508.23,546.85
36.61348,506.65,545.47
36.63436,509.03,548.46
36.65608,510.38,547.39
36.67481,512.88,549.01
36.69509,515.02,546.44
36.71473,516.16,546.60
36.73600,516.08,549.75
36.75460,517.10,546.00
36.77463,516.74,547.73
36.79558,517.09,546.30
36.81490,516.90,548.35
36.83458,518.66,545.14
36.85549,516.93,545.22
36.87478,517.59,547.70
36.89497,517.12,548.40
36.91549,517.14,549.69
36.93494,516.86,548.89
36.95578,519.96,549.27
36.97595,517.06,550.74
36.99590,516.34,549.61
37.01511,517.31,548.78
37.03456,517.00,550.40
37.05476,516.02,550.35
37.07426,519.98,549.84
37.09453,518.15,550.27
37.11620,519.65,548.60
37.13458,516.29,549.54
37.15452,515.56,551.29
37.17519,516.57,549.27
37.19539,513.53,549.34
37.21506,517.13,547.61
37.23557,516.55,549.71
37.25434,516.11,550.23
37.27551,513.31,548.19
37.29518,515.44,548.04
37.31535,515.51,551.05
37.33454,514.49,548.27
37.35582,518.51,551.38
37.37479,515.04,548.78
37.39532,517.34,547.95
37.41586,516.23,548.34
37.43617,516.78,543.67
37.45559,517.00,547.70
37.47430,517.34,547.23
37.49434,518.24,545.89
37.51532,518.08,543.31
37.53548,518.48,545.00
37.55576,517.80,547.00
37.57505,516.76,545.00
37.59472,514.14,544.73
37.61484,518.73,547.08
37.63548,518.91,546.06
37.65541,519.47,547.78
37.67524,519.76,548.68
37.69503,521.34,546.81
37.71583,518.56,545.02
37.73648,518.49,548.60
37.75453,521.54,546.87
37.77576,517.54,547.48
37.79604,520.59,547.87
37.81655,520.00,547.10
37.83704,517.26,550.21
37.85639,517.89,550.54
37.87559,518.21,548.02
37.89756,514.76,550.19
37.91683,515.97,549.20
37.93578,515.07,546.51
37.95697,514.89,546.78
37.97609,514.37,549.78
37.99718,514.90,550.99
38.01598,513.28,550.41
38.03543,514.44,549.43
38.05537,514.54,545.43
38.07610,513.11,547.91
38.09742,515.77,557.99
38.11654,512.06,582.90
38.13585,512.46,617.58
38.15606,515.04,642.89
38.17626,516.50,663.86
38.19565,515.55,667.82
38.21810,517.73,668.09
38.23825,516.35,665.25
38.25740,519.51,655.48
38.27697,515.36,646.19
38.29759,516.58,636.14
38.31656,517.39,626.72
38.33725,517.58,616.35
38.35691,517.05,604.49
38.37815,517.08,597.92
38.39850,516.29,590.95
38.41730,516.23,584.62
38.43807,515.37,580.81
38.45717,512.36,573.59
38.47731,516.01,574.15
38.49694,513.45,570.05
38.51767,516.03,566.23
38.53654,513.63,565.65
38.55748,517.41,562.37
38.57744,515.64,563.27
38.59638,516.45,563.07
38.61757,516.76,559.87
38.63770,515.37,559.44
38.65692,516.07,557.59
38.67751,516.83,557.91
38.69747,516.10,559.93
38.71660,514.72,556.90
38.73792,514.57,553.96
38.75740,515.78,554.27
38.77762,514.64,556.04
38.79668,515.21,554.40
38.81812,512.00,554.60
38.83702,515.64,553.52
38.85697,515.32,553.63
38.87762,516.09,553.46
38.89735,515.03,553.77
38.91681,513.80,551.72
38.93670,514.15,553.44
38.95738,514.22,553.50
38.97805,515.21,550.71
38.99732,516.38,543.11
39.01681,513.65,525.24
39.03776,513.18,495.95
39.05847,512.00,465.02
39.07669,509.67,443.06
39.09711,509.44,434.98
39.11694,508.41,433.41
39.13825,508.27,432.18
39.15713,508.76,440.19
39.17705,508.40,444.86
39.19696,507.44,453.46
39.21841,509.10,462.89
39.23854,509.17,473.81
39.25808,508.84,483.71
39.27808,511.19,491.01
39.29746,511.94,500.92
39.31695,512.38,508.00
39.33770,513.61,513.56
39.35763,511.14,518.08
39.37790,510.15,521.81
39.39720,511.39,525.44
39.41648,511.11,530.70
39.43757,511.05,531.63
39.45706,510.38,533.67
39.47785,508.73,535.80
39.49809,512.51,537.31
39.51649,513.43,539.74
39.53618,510.81,538.97
39.55677,513.57,541.23
39.57759,510.81,540.82
39.59664,511.11,542.94
39.61708,510.85,543.00
39.63650,511.39,545.90
39.65688,511.65,548.27
39.67717,511.97,546.44
39.69627,511.57,547.28
39.71826,510.66,546.15
39.73721,513.67,546.94
39.75787,511.53,544.51
39.77794,514.69,543.72
39.79670,511.49,543.29
39.81800,515.07,543.93
39.83795,514.12,543.59
39.85647,511.82,547.75
39.87723,508.48,547.46
39.89839,509.01,546.09
39.91724,509.92,548.27
39.93757,509.65,547.08
39.95727,508.55,547.92
39.97661,508.39,546.86
39.99651,506.70,545.47
40.01794,507.39,548.27
40.03841,508.71,548.29
40.05861,507.18,545.13
40.07776,509.53,544.99
40.09819,506.53,546.14
40.11731,506.49,545.39
40.13891,503.69,547.10
40.15899,504.62,548.59
40.17994,503.57,548.72
40.19870,503.86,548.15
40.22105,503.85,547.28
40.24131,502.58,547.24
40.26024,502.74,544.15
40.27970,501.56,544.52
40.29968,499.79,545.75
40.32164,500.32,545.14
40.33987,501.12,546.65
40.36023,498.85,545.76
40.38060,498.71,547.11
40.39978,500.19,548.67
40.42020,500.84,549.33
40.44080,500.97,547.59
40.46075,498.83,545.82
40.47985,498.25,548.81
40.50029,500.99,545.57
40.52023,499.75,544.12
40.54084,497.06,547.03
40.56025,500.15,547.27
40.58052,499.14,546.66
40.59992,499.23,544.51
40.62122,498.32,544.70
40.64050,497.23,544.68
40.66149,497.83,545.76
40.68096,496.21,545.75
40.69958,496.95,545.18
40.71953,495.50,544.47
40.74122,497.59,548.88
40.76023,495.23,546.14
40.78118,495.99,547.48
40.80046,498.55,546.18
40.81999,495.30,546.73
40.84007,499.71,548.47
40.85997,501.11,548.70
40.88005,499.68,544.90
40.89945,501.68,544.08
40.92147,498.78,544.60
40.94153,500.98,543.60
40.96075,502.61,542.77
40.98093,500.58,544.68
41.00190,501.62,543.77
41.02097,499.63,544.58
41.04073,498.24,541.74
41.06040,500.05,543.97
41.08169,499.42,542.89
41.10239,498.12,542.65
41.12114,497.63,542.74
41.14123,498.26,543.46
41.16235,495.24,544.83
41.18314,499.12,540.45
41.20335,496.96,543.43
41.22161,497.85,543.30
41.24244,495.92,541.35
41.26447,496.70,541.09
41.28347,497.78,542.09
41.30345,499.23,542.39
41.32343,499.49,542.40
41.34413,496.52,543.90
41.36312,494.39,543.02
41.38279,494.72,542.44
41.40414,495.29,541.19
41.42397,498.37,543.27
41.44437,494.87,540.90
41.46288,496.07,540.47
41.48337,496.44,540.01
41.50397,494.62,540.26
41.52400,496.24,541.03
41.54358,497.93,539.89
41.56297,498.00,543.39
41.58415,496.30,542.15
41.60220,498.09,543.49
41.62358,499.31,542.44
41.64252,499.45,544.42
41.66333,501.26,541.36
41.68283,503.17,541.45
41.70410,501.58,542.29
41.72464,500.25,542.90
41.74307,499.88,543.06
41.76458,498.69,543.86
41.78428,497.36,542.50
41.80499,499.57,541.75
41.82503,499.62,543.46
41.84394,497.53,543.27
41.86344,500.22,543.80
41.88386,501.00,541.80
41.90455,502.77,540.51
41.92341,502.01,539.85
41.94515,500.80,539.80
41.96518,499.68,540.77
41.98454,502.87,542.00
42.00373,501.54,544.13
42.02447,502.48,544.72
42.04454,502.21,544.44
42.06424,501.00,545.06
42.08438,501.83,543.27
42.10522,500.32,544.60
42.12332,501.01,545.33
42.14459,503.38,543.52
42.16453,503.22,542.48
42.18366,500.93,542.57
42.20474,503.20,542.83
42.22489,506.48,542.91
42.24333,505.97,542.77
42.26400,501.78,539.21
42.28407,502.26,540.01
42.30399,500.38,543.38
42.32538,502.54,556.78
42.34498,500.74,571.35
42.36391,503.23,594.82
42.38492,501.87,616.81
42.40467,504.99,631.61
42.42481,506.36,640.96
42.44384,505.20,643.74
42.46471,502.87,640.75
42.48487,504.17,635.66
42.50432,504.56,623.01
42.52395,505.16,612.35
42.54495,508.04,601.20
42.56517,508.73,594.14
42.58486,508.18,584.30
42.60344,507.45,578.23
42.62421,508.77,568.86
42.64452,506.65,573.52
42.66385,508.22,576.26
42.68364,505.15,581.30
42.70495,506.27,582.93
42.72489,506.05,580.21
42.74407,504.74,577.96
42.76382,504.76,578.25
42.78384,503.86,571.55
42.80463,503.78,569.68
42.82497,501.21,566.69
42.84412,501.18,563.59
42.86362,503.12,560.13
42.88358,502.24,559.53
42.97700,504.10,555.12
42.97826,505.77,556.45
42.97867,503.99,555.90
42.97681,504.22,553.85
42.98495,507.13,554.42
43.00370,506.83,551.42
43.02405,508.01,551.04
43.04442,509.62,548.29
43.06512,509.07,548.69
43.08551,507.38,547.47
43.10363,507.27,547.75
43.12375,507.38,546.87
43.14352,504.73,548.34
43.16441,505.57,545.77
43.18487,502.08,547.21
43.20541,504.94,542.70
43.22435,504.51,543.24
43.24428,507.93,546.58
43.26465,506.44,544.60
43.28419,506.43,547.29
43.30331,507.43,548.52
43.32355,506.78,547.23
43.34443,504.81,546.25
43.36380,506.53,544.82
43.38378,503.66,547.06
43.40401,505.97,546.98
43.42516,502.67,546.38
43.44474,503.80,545.72
43.46389,502.91,546.40
43.48395,504.79,540.72
43.50390,507.29,525.56
43.52512,505.89,507.57
43.54323,508.89,487.94
43.56430,506.32,466.27
43.58488,506.26,446.12
43.60460,506.50,434.29
43.62509,504.72,432.75
43.64548,505.07,431.77
43.66438,505.57,436.96
43.68596,504.01,440.84
43.70562,507.06,451.20
43.72459,506.10,459.64
43.74575,509.55,467.77
43.76492,510.21,476.77
43.78474,513.13,486.27
43.80624,513.23,490.71
43.82583,512.77,496.94
43.84487,512.29,504.45
43.86511,511.90,512.29
43.88601,512.17,516.73
43.90561,509.57,521.61
43.92579,511.45,525.13
43.94481,508.75,527.59
43.96486,511.27,531.09
43.98467,507.85,533.28
44.00522,509.36,535.11
44.02501,507.83,533.07
44.04511,509.88,536.28
44.06619,511.04,536.37
44.08470,510.46,536.63
44.10485,515.14,542.05
44.12622,515.53,544.51
44.14551,519.73,548.76
44.16640,518.89,552.10
44.18484,516.84,552.34
44.20617,515.98,553.27
44.22487,517.04,550.25
44.24596,515.14,549.68
44.26569,516.06,551.00
44.28506,516.00,547.54
44.30446,514.94,548.26
44.32415,518.18,545.54
44.34592,515.10,545.48
44.36432,515.09,544.59
44.38413,514.38,544.59
44.40629,515.29,543.58
44.42618,516.51,543.89
44.44491,515.62,544.81
44.46643,517.37,546.83
44.48621,514.15,548.59
44.50603,517.49,560.99
44.52533,518.35,578.27
44.54513,521.39,597.50
44.56620,521.80,615.52
44.58460,522.53,618.28
44.60532,519.15,607.76
44.62585,517.69,590.82
44.64590,513.18,574.07
44.66566,512.38,558.23
44.68446,511.57,540.61
44.70553,509.14,532.45
44.72505,510.05,522.33
44.74433,509.79,517.94
44.76420,511.19,511.85
44.78419,510.19,509.99
44.80518,509.45,513.37
44.82505,511.74,510.78
44.84503,510.10,514.39
44.86550,510.06,517.96
44.88678,508.83,521.27
44.90721,509.85,521.80
44.92634,514.01,523.73
44.94760,513.03,525.35
44.96729,514.26,530.54
44.98713,512.51,533.99
45.00652,515.56,533.66
45.02662,515.87,533.93
45.04807,517.29,536.98
45.06673,520.11,541.11
45.08696,518.41,540.28
45.10792,518.24,544.74
45.12722,516.10,543.51
45.14674,516.04,544.00
45.16693,515.78,547.39
45.18644,514.74,548.94
45.20695,517.21,547.27
45.22734,517.98,549.60
45.24644,518.17,547.55
45.26802,516.98,546.93
45.28791,516.24,549.90
45.30704,516.11,549.56
45.32676,514.64,547.96
45.34810,515.28,550.41
45.36792,513.19,549.82
45.38640,516.85,550.86
45.40656,513.95,552.47
45.42703,513.89,551.82
45.44649,516.63,553.78
45.46699,514.71,552.36
45.48734,515.51,551.53
45.50613,518.03,552.28
45.52674,514.76,552.65
45.54787,518.21,549.61
45.56658,516.41,551.85
45.58623,514.87,551.04
45.60806,513.49,550.67
45.62646,516.68,550.92
45.64747,515.99,551.36
45.66665,516.05,550.27
45.68623,517.40,549.09
45.70784,516.08,551.39
45.72756,515.28,550.46
45.74906,516.76,551.41
45.76871,514.95,550.40
45.78893,514.90,549.74
45.80849,514.96,553.47
45.82808,517.02,549.86
45.84820,514.38,550.14
45.86760,514.27,551.44
45.88886,514.33,554.54
45.90742,514.68,551.81
45.92810,514.69,551.10
45.94774,516.07,552.12
45.96763,514.89,552.36
45.99070,513.08,549.32
46.00895,513.41,548.88
46.02948,515.07,549.75
46.04934,512.79,547.87
46.06953,512.96,548.77
46.08985,513.22,548.07
46.10864,513.50,549.67
46.12872,512.82,549.36
46.14927,510.64,551.50
46.16919,509.80,549.64
46.18988,508.36,550.33
46.21094,511.68,552.05
46.23013,511.89,551.33
46.25090,509.92,548.95
46.27104,508.81,550.31
46.29055,508.17,548.19
46.31039,509.62,547.53
46.33268,509.04,549.91
46.35340,508.92,548.20
46.37301,504.14,549.21
46.39235,505.53,547.27
46.41268,504.18,548.70
46.43305,503.80,547.08
46.45225,503.60,549.04
46.47325,500.75,547.90
46.49301,499.28,547.31
46.51349,500.42,546.80
46.53375,500.07,545.12
46.55300,499.85,541.40
46.57362,500.76,542.16
46.59330,500.47,541.77
46.61196,500.56,536.80
46.63272,499.92,539.78
46.65278,498.51,538.32
46.67303,498.30,544.67
46.69322,498.87,561.70
46.71229,501.16,585.27
46.73237,502.87,607.80
46.75257,501.51,625.04
46.77378,504.17,634.95
46.79308,501.42,641.49
46.81215,500.82,642.25
46.83326,500.27,638.06
46.85334,498.37,629.24
46.87249,497.16,625.11
46.89319,497.58,617.97
46.91286,498.59,614.31
46.93354,498.75,604.99
46.95230,495.46,603.22
46.97288,498.39,600.09
46.99225,499.62,594.80
47.01413,499.54,591.62
47.03330,499.67,584.46
47.05413,500.17,581.43
47.07476,500.19,578.65
47.09473,500.06,572.33
47.11396,496.18,567.87
47.13379,497.10,564.36
47.15489,500.33,560.53
47.17392,499.20,559.88
47.19417,498.68,560.56
47.21479,500.02,555.71
47.23360,501.79,556.17
47.25331,500.71,555.23
47.27309,501.63,552.48
47.29514,501.30,549.94
47.31415,502.27,553.97
47.33398,498.61,552.12
47.35483,499.51,550.89
47.37436,499.42,551.63
47.39408,499.31,552.03
47.41505,498.06,551.37
47.43401,497.68,548.39
47.45360,494.33,547.66
47.47358,498.72,548.29
47.49377,496.97,548.43
47.51465,497.60,548.13
47.53322,497.90,547.31
47.55315,498.83,546.73
47.57443,496.56,549.15
47.59321,497.47,545.72
47.61377,497.56,545.75
47.63380,496.45,547.23
47.65402,497.52,547.78
47.67485,494.40,543.62
47.69424,496.55,544.99
47.71587,495.87,546.10
47.73448,498.10,546.41
47.75456,497.20,544.65
47.77475,500.34,545.56
47.79497,499.91,545.81
47.81555,497.31,545.59
47.83672,500.46,547.56
47.85610,500.47,548.63
47.87622,502.48,549.60
47.89759,500.54,549.21
47.91788,500.74,553.17
47.93716,499.76,550.25
47.95756,501.29,536.26
47.97800,499.16,514.90
47.99787,501.37,488.77
48.01735,499.17,460.23
48.03649,498.60,441.57
48.05810,496.29,433.47
48.07847,496.89,430.50
48.09796,499.04,432.79
48.11827,499.20,440.70
48.13726,499.76,446.94
48.15845,501.29,455.90
48.17858,500.82,460.97
48.19808,502.23,469.92
48.21795,506.63,473.29
48.23843,504.53,478.06
48.25825,504.22,486.47
48.27868,504.57,492.45
48.29798,506.41,498.67
48.31760,508.58,504.93
48.33849,505.41,509.41
48.35809,505.52,512.68
48.37841,508.67,516.53
48.39824,509.70,518.43
48.41884,507.98,525.36
48.43842,506.23,528.23
48.45744,505.35,529.66
48.47854,504.03,532.45
48.49809,503.81,537.01
48.51840,504.22,539.35
48.53789,499.57,539.80
48.55728,499.82,541.29
48.57734,502.35,540.92
48.59825,501.22,542.11
48.61712,500.40,543.85
48.63874,502.27,543.44
48.65867,501.87,546.78
48.67733,501.53,546.73
48.69849,503.04,546.74
48.71804,504.19,546.19
48.73894,502.35,547.59
48.75771,503.17,545.06
48.77710,502.64,547.57
48.79842,503.34,547.78
48.81807,503.32,546.29
48.83863,505.80,548.49
48.85762,507.80,549.29
48.87844,507.50,550.84
48.89880,508.22,547.71
48.91816,507.15,548.02
48.93906,507.10,550.36
48.95883,507.74,546.54
48.97826,508.25,547.30
48.99981,507.57,550.51
49.01890,509.32,548.03
49.03808,508.98,550.09
49.05878,511.91,547.84
49.07945,508.97,548.70
49.09877,508.75,550.48
49.11876,507.59,549.60
49.13833,508.86,545.44
49.15922,511.11,545.15
49.17939,509.73,547.99
49.19908,508.29,547.66
49.21912,509.78,546.43
49.23964,508.04,545.25
49.25994,509.41,547.11
49.28002,511.64,545.66
49.29883,511.49,544.43
49.31843,508.81,544.48
49.33972,511.72,544.16
49.35930,512.53,545.66
49.37983,512.38,546.64
49.39801,512.77,543.62
49.41843,511.82,543.66
49.43828,513.37,545.63
49.45976,510.02,542.23
49.47862,511.49,543.30
49.49837,512.34,541.37
49.51902,510.32,541.66
49.53918,510.13,542.08
49.55874,509.65,543.97
49.57850,512.01,544.58
49.59877,512.43,546.58
49.61931,510.48,543.61
49.63969,509.59,545.51
49.65815,512.82,547.78
49.67891,509.95,546.94
49.69948,509.97,543.52
49.71956,510.34,544.99
49.73922,510.16,546.19
49.75807,510.93,548.00
49.77930,509.14,547.60
49.79961,512.86,550.18
49.81914,512.75,549.65
49.83938,509.35,547.20
49.85980,511.45,547.19
49.87832,508.31,546.91
49.89819,511.50,546.54
49.91904,511.62,545.80
49.93964,512.65,546.17
49.95921,510.75,548.30
49.97832,510.54,547.74
49.99845,512.44,547.94
50.01989,511.22,547.39
50.03818,513.27,549.66
50.05970,512.66,548.55
50.07809,512.07,546.97
50.09796,513.15,548.26
50.11852,510.86,548.15
50.13851,514.66,545.96
50.15845,514.02,549.34
50.17973,514.19,547.51
50.19955,511.47,545.27
50.21944,514.16,547.21
50.23929,511.70,545.71
50.25900,513.21,546.61
50.27886,513.77,547.08
50.29883,512.61,550.18
50.31857,512.24,548.25
50.33959,512.45,546.93
50.35989,513.44,548.33
50.37885,511.75,547.82
50.39906,511.68,549.09
50.41928,513.00,549.62
50.43902,515.66,550.18
50.45976,516.74,551.87
50.47811,514.61,551.15
50.49924,514.29,550.73
50.51929,515.19,549.72
50.53999,517.12,550.98
50.55820,516.26,549.03
50.57930,517.87,550.65
50.59859,515.52,549.17
50.61850,514.20,552.86
50.63906,514.70,552.45
50.65891,517.87,553.20
50.67882,515.44,548.85
50.69912,512.81,547.41
50.71934,514.06,546.14
50.73916,515.91,548.29
50.76005,516.62,547.09
50.77939,515.07,548.77
50.79995,512.36,550.63
50.82073,513.36,547.80
50.84000,513.97,550.66
50.85994,514.85,549.17
50.88093,517.26,550.36
50.90082,515.26,550.92
50.91927,512.93,549.93
50.93972,504.22,550.21
50.96037,503.29,551.69
50.98107,500.38,550.74
51.00080,499.52,550.82
51.01989,499.29,550.08
51.04073,498.44,549.04
51.05930,502.33,549.39
51.08041,502.58,551.18
51.09980,504.66,549.78
51.12009,505.69,548.49
51.14077,508.27,550.66
51.15989,509.17,548.65
51.17962,507.74,545.81
51.19982,508.71,546.53
51.21976,509.32,551.98
51.24010,511.25,569.34
51.26074,512.90,590.47
51.28085,512.75,607.75
51.29959,513.42,626.54
51.32061,516.97,636.45
51.33977,514.29,641.65
51.35991,518.95,643.08
51.38037,518.40,641.78
51.40012,519.81,636.59
51.41977,517.83,628.50
51.43962,517.07,622.96
51.45922,516.98,614.84
51.47933,518.01,605.87
51.49900,517.39,603.34
51.51991,516.65,598.28
51.54019,518.54,591.79
51.56107,518.83,588.96
51.58037,516.27,581.96
51.60070,516.22,578.74
51.62046,517.28,576.19
51.64080,517.24,570.65
51.65915,514.58,567.50
51.67967,517.28,565.49
51.69899,518.49,562.65
51.72083,515.28,560.64
51.74073,515.47,559.91
51.75911,515.32,559.14
51.77948,516.45,559.24
51.79955,517.70,559.11
51.81979,517.47,558.01
51.83913,514.60,554.03
51.86018,514.79,553.36
51.87924,515.38,556.29
51.90019,514.43,552.50
51.92055,518.30,553.93
51.93956,517.78,552.80
51.96054,518.32,552.02
51.98064,515.14,552.31
52.00007,515.16,552.01
52.01904,518.65,551.43
52.04056,517.42,556.10
52.06068,518.39,556.46
52.07975,517.15,556.08
52.09913,519.03,555.80
52.12016,516.30,557.98
52.14071,518.03,555.11
52.16055,518.03,552.73
52.17941,518.36,554.51
52.20028,514.89,551.39
52.21997,517.61,552.01
52.24068,517.82,553.39
52.26083,514.70,552.24
52.28022,514.83,550.89
52.30018,515.20,550.52
52.32086,517.64,550.51
52.33984,515.61,551.84
52.36009,516.23,550.70
52.37989,517.14,537.23
52.40073,519.12,517.55
52.41913,516.55,493.78
52.43915,515.45,470.40
52.45908,513.70,453.51
52.48050,514.14,444.33
52.49881,511.18,437.09
52.52001,513.09,436.86
52.53896,510.17,442.28
52.55925,513.54,449.57
52.58063,512.38,460.11
52.59987,512.64,471.51
52.62079,515.22,478.07
52.63998,514.69,488.43
52.65938,513.38,495.67
52.67911,513.73,503.09
52.69996,517.15,506.97
52.71988,514.03,512.91
52.74083,515.25,519.88
52.75901,516.09,523.32
52.77972,516.72,527.53
52.79951,517.41,534.05
52.82085,521.12,533.92
52.84042,521.51,538.48
52.85991,517.32,540.33
52.88035,516.12,540.32
52.89901,519.22,543.83
52.92005,519.09,545.41
52.94065,518.21,547.43
52.95926,516.76,546.77
52.98047,516.82,546.00
53.00061,518.55,545.20
53.02032,518.21,545.97
53.04028,516.12,545.91
53.06122,517.21,544.41
53.08045,515.41,544.58
53.10043,517.31,545.55
53.12109,515.57,546.00
53.14062,515.05,545.34
53.16055,517.49,545.02
53.18101,517.69,549.11
53.20036,515.69,547.02
53.22065,517.77,546.50
53.24156,516.32,549.37
53.26152,513.60,545.20
53.28121,514.53,545.62
53.30023,516.15,546.71
53.32208,514.88,546.76
53.34022,513.80,547.85
53.36183,514.89,546.33
53.38041,515.57,548.16
53.40114,515.89,547.33
53.42013,513.64,546.38
53.44015,514.75,545.53
53.46103,515.97,547.35
53.48186,515.40,548.92
53.49991,513.51,547.97
53.52181,516.14,547.59
53.54173,516.69,549.43
53.56156,513.20,547.38
53.58036,515.01,547.14
53.60031,514.04,548.68
53.62153,514.40,544.33
53.64084,514.00,547.36
53.66145,513.65,545.13
53.68176,513.37,544.38
53.70035,514.34,545.33
53.72197,512.83,546.71
53.74074,513.88,545.67
53.76049,514.50,547.54
53.78095,512.51,546.57
53.80157,513.45,548.17
53.82011,513.55,544.97
53.84165,515.14,545.48
53.86123,515.30,543.77
53.88148,513.09,546.17
53.90179,516.19,547.23
53.92134,515.86,548.98
53.94032,516.64,549.38
53.96193,517.46,549.11
53.98068,517.33,546.46
54.00042,516.25,549.92
54.02110,515.18,546.54
54.04164,515.02,548.69
54.06001,514.17,544.89
54.08095,510.43,546.41
54.10019,508.26,547.20
54.12128,505.39,546.24
54.14086,502.89,546.11
54.16087,502.81,547.28
54.18115,507.21,549.53
54.20205,507.80,547.70
54.22181,506.72,548.02
54.24032,508.96,549.05
54.26081,509.33,548.76
54.28059,508.66,549.69
54.30049,509.09,549.11
54.32028,508.52,546.77
54.34122,509.36,544.26
54.36007,507.37,547.39
54.38152,507.38,548.58
54.40075,507.11,544.87
54.42089,510.39,546.91
54.44183,510.48,545.81
54.46062,510.75,545.45
54.48017,508.44,546.18
54.50179,507.42,547.60
54.52110,510.74,546.84
54.54006,509.33,548.73
54.56175,509.48,547.58
54.58080,510.26,546.84
54.60155,510.52,548.95
54.62158,507.70,548.68
54.64000,510.82,547.23
54.66112,511.38,545.05
54.68022,508.68,545.21
54.70189,508.44,546.52
54.72097,508.30,550.10
54.74154,504.48,542.53
54.76190,493.99,528.31
54.78065,480.95,511.44
54.80124,473.67,499.22
54.82133,467.04,494.59
54.84099,465.49,491.58
54.86138,465.52,489.63
54.88159,466.26,494.19
54.90136,467.90,497.81
54.92067,475.43,508.85
54.94156,478.66,518.19
54.96041,485.51,525.50
54.98087,488.99,528.25
55.00131,489.89,534.97
55.02052,494.24,538.31
55.04112,498.02,538.60
55.06094,500.36,541.65
55.08013,500.13,543.23
55.10043,502.20,545.44
55.12169,505.83,544.81
55.14160,504.04,548.15
55.16068,505.24,548.24
55.17987,503.89,545.92
55.20112,506.33,546.55
55.22080,506.65,547.39
55.24057,501.78,546.88
55.26090,505.00,550.43
55.28135,503.35,554.28
55.30100,505.25,552.87
55.32079,505.15,553.72
55.34158,508.21,557.75
55.36052,509.28,560.95
55.38038,507.44,569.56
55.40069,509.74,577.39
55.42032,511.44,579.26
55.44038,509.83,588.05
55.46087,510.30,591.41
55.48180,512.19,593.45
55.50038,511.82,595.43
55.52012,513.31,593.89
55.54178,511.14,597.95
55.56120,513.77,603.21
55.58146,512.56,609.33
55.60067,509.38,628.99
55.62119,510.63,661.20
55.64069,512.61,691.95
55.66028,516.21,705.31
55.68015,516.98,712.67
55.70143,518.47,705.71
55.72102,515.79,696.43
55.74044,514.22,676.72
55.76127,512.12,652.24
55.78048,512.15,632.14
55.80069,510.57,606.68
