Program Time [s],data 0,data 1
5.30104,414.97,473.74
5.32065,417.73,476.48
5.34210,417.12,472.46
5.36021,420.56,473.50
5.38184,417.36,474.35
5.40126,418.22,473.32
5.42133,417.68,475.90
5.44162,419.10,473.16
5.46154,419.51,476.30
5.48076,418.32,477.18
5.50205,418.75,475.80
5.52073,418.29,479.49
5.54107,416.12,476.19
5.56208,411.90,476.08
5.58054,414.74,479.10
5.60101,412.81,480.83
5.62185,412.68,476.92
5.64237,411.79,478.32
5.66045,412.26,479.57
5.68167,412.08,481.23
5.70212,409.78,481.75
5.72175,410.23,481.56
5.74110,412.93,481.56
5.76079,411.52,482.44
5.78175,412.90,479.29
5.80169,413.99,479.70
5.82081,413.96,482.25
5.84139,413.99,482.00
5.86195,413.81,484.59
5.88103,416.48,483.22
5.90136,418.69,482.50
5.92048,419.72,480.28
5.94040,418.22,482.05
5.96133,418.65,482.97
5.98104,418.97,481.90
6.00237,421.46,480.99
6.02139,421.84,480.98
6.04113,421.60,483.69
6.06190,420.54,483.34
6.08045,422.65,481.99
6.10154,421.98,483.68
6.12064,420.83,484.45
6.14069,417.68,486.53
6.16083,419.54,486.38
6.18054,417.55,486.35
6.20188,418.55,484.48
6.22222,418.69,484.98
6.24171,415.94,486.67
6.26097,417.06,486.27
6.28119,416.53,485.33
6.30042,418.62,487.60
6.32089,420.65,485.79
6.34103,418.78,485.31
6.36101,420.59,484.65
6.38190,421.59,486.21
6.40103,420.38,486.86
6.42183,417.94,485.02
6.44157,420.22,484.58
6.46144,422.79,484.48
6.48186,421.26,486.88
6.50065,421.43,486.39
6.52065,419.94,485.85
6.54174,417.85,485.85
6.56054,422.21,487.27
6.58114,419.61,487.82
6.60143,421.86,487.25
6.62175,421.54,491.70
6.64086,424.35,516.90
6.66144,428.07,548.85
6.68232,429.20,581.07
6.70076,432.98,603.79
6.72192,431.78,611.06
6.74121,427.15,610.93
6.76033,428.74,602.32
6.78176,423.32,592.93
6.80110,421.91,580.99
6.82107,420.17,570.22
6.84171,422.06,553.26
6.86203,420.18,548.27
6.88043,421.60,539.13
6.90139,418.99,530.32
6.92158,420.87,523.88
6.94114,418.32,519.38
6.96025,419.29,515.59
6.98170,418.31,512.61
7.00097,421.36,504.35
7.02101,424.18,500.36
7.04127,422.60,500.51
7.06169,425.69,498.14
7.08223,424.46,495.95
7.10244,423.31,496.61
7.12301,424.68,495.60
7.14212,426.43,496.30
7.16253,425.53,493.50
7.18262,425.34,494.73
7.20161,426.10,492.19
7.22184,423.63,488.93
7.24257,423.02,490.94
7.26246,425.18,487.73
7.28199,426.64,484.45
7.30310,425.11,485.18
7.32283,427.50,488.12
7.34175,428.32,501.64
7.36295,429.37,515.09
7.38404,432.69,515.80
7.40362,431.90,493.85
7.42260,432.02,458.95
7.44247,429.15,426.41
7.46334,426.80,402.69
7.48362,423.58,387.62
7.50297,423.54,376.82
7.52248,422.99,374.82
7.54323,420.35,379.46
7.56327,421.33,382.89
7.58409,423.91,386.20
7.60425,425.75,395.23
7.62527,426.16,403.15
7.64468,423.97,407.89
7.66493,424.65,413.45
7.68334,428.40,422.82
7.70338,427.94,427.62
7.72333,430.30,435.41
7.74532,429.35,442.30
7.76475,431.65,445.40
7.78476,431.82,448.37
7.80388,429.62,453.10
7.82336,429.43,457.03
7.84485,432.78,461.65
7.86370,432.58,468.33
7.88418,434.33,467.00
7.90522,431.31,470.92
7.92365,431.48,472.14
7.94367,432.58,474.19
7.96551,431.95,479.08
7.98577,430.83,478.43
8.00566,431.71,480.14
8.02530,433.14,480.63
8.04533,434.21,484.55
8.06642,433.96,486.42
8.08600,431.47,485.36
8.10670,431.04,487.28
8.12665,430.38,489.50
8.14652,432.44,488.25
8.16566,430.52,486.29
8.18614,431.78,486.28
8.20554,428.92,488.22
8.22654,429.66,485.18
8.24635,427.02,487.08
8.26599,427.29,485.52
8.28547,428.69,488.66
8.30620,429.80,487.72
8.32606,432.34,489.01
8.34553,430.38,488.97
8.36662,432.27,486.21
8.38622,430.66,487.17
8.40684,431.25,488.46
8.42655,430.79,486.58
8.44646,432.02,485.57
8.46593,431.96,486.76
8.48688,428.22,483.08
8.50683,430.29,484.10
8.52813,426.50,482.29
8.54846,429.06,483.98
8.56711,427.34,487.56
8.58760,426.10,485.08
8.60851,424.41,487.89
8.62834,428.01,487.23
8.64764,426.64,487.74
8.66856,427.93,485.03
8.68754,426.91,485.38
8.70855,427.94,487.33
8.72920,426.03,486.93
8.74793,425.63,486.86
8.76830,427.22,484.45
8.78841,426.14,487.65
8.80857,427.32,486.96
8.82849,426.33,486.36
8.84762,425.82,485.08
8.86721,425.10,484.12
8.88805,424.73,486.53
8.90751,426.49,483.69
8.92776,424.14,486.39
8.94746,422.78,483.70
8.96818,426.27,485.26
8.98752,423.39,484.74
9.00830,425.70,486.20
9.02764,424.39,485.17
9.04841,424.36,485.17
9.06737,427.19,485.74
9.08776,427.27,484.85
9.10871,426.32,485.85
9.12930,425.67,486.65
9.14941,424.69,487.67
9.16861,424.96,488.09
9.19005,424.00,486.99
9.20827,421.91,487.08
9.22969,422.67,483.42
9.24821,424.93,484.95
9.26886,422.62,486.38
9.28951,423.42,483.37
9.31034,419.92,484.15
9.32973,419.35,483.92
9.34901,420.23,484.34
9.36883,421.63,482.74
9.39025,422.18,486.17
9.40837,420.74,485.26
9.42856,419.76,485.63
9.44870,418.55,483.19
9.46923,422.28,484.08
9.48970,421.19,482.20
9.50820,419.21,482.03
9.52906,421.20,481.91
9.54868,420.04,482.09
9.56849,420.62,482.65
9.58857,421.94,483.57
9.61012,422.38,483.11
9.62933,420.62,482.65
9.64817,419.28,483.40
9.66922,419.62,480.71
9.68943,421.33,482.47
9.70924,418.78,480.71
9.73013,416.19,481.05
9.74883,416.78,482.41
9.76939,417.07,480.53
9.78928,415.15,481.31
9.80895,417.29,482.52
9.82933,419.64,492.32
9.84904,417.32,513.79
9.86851,421.17,535.48
9.88951,422.92,559.58
9.90848,422.87,575.00
9.92951,423.44,580.23
9.94879,427.10,577.54
9.96846,425.09,571.49
9.98954,424.37,565.32
10.00839,426.12,557.62
10.02900,424.85,546.61
10.04957,424.18,538.79
10.07177,422.14,527.47
10.09198,419.57,525.87
10.11051,416.99,520.72
10.13126,415.79,518.13
10.15160,414.74,513.03
10.17080,414.50,508.37
10.19033,415.45,503.51
10.21143,416.94,503.65
10.23143,415.46,497.00
10.25083,413.94,498.19
10.27038,414.79,499.14
10.29069,415.14,495.12
10.31084,414.30,496.26
10.33077,413.76,499.94
10.35210,415.73,503.61
10.37119,415.60,503.16
10.39090,417.20,503.85
10.41207,417.66,504.38
10.43176,416.45,499.60
10.45172,412.09,500.32
10.47173,415.79,496.90
10.49211,413.29,494.32
10.51040,414.61,494.67
10.53198,414.06,491.69
10.55116,413.61,491.67
10.57056,416.14,492.41
10.59165,416.05,492.25
10.61021,414.66,494.53
10.63195,415.00,504.35
10.65115,411.71,502.82
10.67122,412.90,481.09
10.69067,406.25,446.17
10.71169,403.16,413.96
10.73193,404.36,390.05
10.75178,400.32,378.64
10.77211,401.97,374.42
10.79166,402.77,371.82
10.81062,402.19,374.08
10.83163,405.14,380.84
10.85222,406.67,388.13
10.87052,406.15,397.70
10.89184,409.57,403.28
10.91180,407.81,411.73
10.93076,410.36,418.45
10.95218,413.22,427.48
10.97130,411.14,430.39
10.99154,412.79,438.65
11.01204,413.97,445.77
11.03149,413.82,447.71
11.05115,414.65,454.46
11.07166,413.75,457.01
11.09107,415.18,460.21
11.11066,413.53,464.89
11.13188,414.90,467.12
11.15046,417.21,469.07
11.17179,417.42,471.74
11.19202,416.85,473.88
11.21114,414.26,475.38
11.23063,413.55,477.21
11.25123,411.69,477.58
11.27029,413.52,478.52
11.29142,413.77,481.43
11.31138,414.29,478.23
11.33125,413.49,480.06
11.35247,412.39,481.52
11.37170,412.45,479.30
11.39269,414.25,482.78
11.41246,412.47,482.51
11.43214,412.75,478.25
11.45162,411.65,481.01
11.47240,410.12,479.66
11.49123,411.03,476.70
11.51266,414.37,477.81
11.53218,412.99,480.73
11.55157,413.32,477.31
11.57202,411.61,481.27
11.59199,413.56,480.71
11.61241,412.66,484.66
11.63210,414.91,485.24
11.65159,412.12,482.74
11.67239,412.74,486.18
11.69139,415.56,486.12
11.71309,415.48,486.05
11.73328,413.02,482.87
11.75182,413.67,482.69
11.77266,411.03,481.20
11.79146,414.98,482.43
11.81266,415.38,480.07
11.83218,413.70,480.16
11.85205,416.25,481.31
11.87194,414.35,481.21
11.89194,412.92,480.40
11.91222,412.73,478.43
11.93267,413.00,481.48
11.95225,415.17,482.58
11.97154,412.50,482.26
11.99127,412.76,482.96
12.01256,411.61,478.78
12.03195,412.89,478.60
12.05290,413.64,478.07
12.07238,413.11,476.58
12.09265,414.09,475.53
12.11274,414.35,480.02
12.13172,415.24,479.22
12.15194,412.58,477.39
12.17284,414.34,480.55
12.19257,414.04,479.97
12.21188,414.61,483.01
12.23281,415.72,482.47
12.25173,415.70,486.43
12.27291,416.61,485.92
12.29255,415.08,483.01
12.31236,413.73,481.87
12.33306,412.97,480.85
12.35312,415.26,482.94
12.37121,415.61,483.50
12.39218,414.48,482.48
12.41318,414.56,480.89
12.43233,416.80,479.48
12.45253,413.12,480.61
12.47107,415.10,482.29
12.49209,415.74,480.42
12.51223,416.18,479.90
12.53154,417.54,483.35
12.55287,416.24,482.13
12.57255,416.23,481.07
12.59308,414.08,477.44
12.61200,415.85,477.61
12.63282,417.44,476.10
12.65227,416.24,476.28
12.67119,416.97,476.55
12.69231,415.36,478.96
12.71184,416.40,476.40
12.73224,414.79,479.04
12.75187,415.93,477.28
12.77228,414.85,479.37
12.79280,416.71,480.71
12.81108,415.98,477.69
12.83130,414.75,480.54
12.85124,414.98,478.75
12.87269,414.88,481.32
12.89209,415.99,480.40
12.91142,417.05,482.17
12.93214,414.36,481.69
12.95194,417.28,483.34
12.97181,414.79,483.61
12.99298,416.50,482.96
13.01223,416.09,482.20
13.03346,414.54,484.98
13.05176,414.83,481.68
13.07300,416.15,482.11
13.09132,412.85,481.02
13.11195,414.95,482.44
13.13142,412.79,482.22
13.15328,415.94,484.07
13.17228,412.28,482.73
13.19167,415.02,483.49
13.21248,416.00,482.00
13.23289,413.18,481.96
13.25232,414.61,481.66
13.27191,413.80,478.63
13.29269,415.17,480.45
13.31127,416.60,479.14
13.33295,416.83,478.06
13.35194,417.61,480.85
13.37132,417.32,479.39
13.39154,418.27,479.14
13.41263,417.05,479.07
13.43217,417.39,480.31
13.45237,417.65,482.03
13.47139,416.79,480.44
13.49159,418.60,483.21
13.51318,416.65,482.23
13.53126,420.23,483.89
13.55221,417.48,483.66
13.57154,420.74,481.56
13.59134,420.97,480.69
13.61238,420.60,481.74
13.63202,418.43,478.99
13.65281,422.62,480.54
13.67283,419.88,478.65
13.69183,420.81,481.49
13.71299,421.13,497.89
13.73166,419.08,519.48
13.75149,422.55,551.62
13.77215,422.16,569.81
13.79268,422.60,582.79
13.81181,423.70,590.30
13.83262,425.98,591.23
13.85201,422.73,587.05
13.87160,424.43,585.24
13.89245,422.77,583.17
13.91184,425.41,574.18
13.93274,421.59,565.06
13.95200,425.48,557.24
13.97122,422.02,549.88
13.99102,422.90,548.41
14.01205,421.52,540.09
14.03190,422.42,535.88
14.05251,422.01,528.71
14.07211,424.18,526.62
14.09232,421.00,524.50
14.11292,421.47,521.62
14.13122,422.16,519.09
14.15161,420.23,516.46
14.17251,423.83,516.31
14.19157,423.18,508.91
14.21294,420.14,505.53
14.23210,423.53,505.01
14.25307,419.80,503.07
14.27095,422.51,500.20
14.29141,423.52,496.73
14.31177,422.50,495.64
14.33227,422.16,491.74
14.35317,420.15,490.51
14.37159,419.31,492.37
14.39232,419.70,491.41
14.41256,419.70,492.31
14.43301,421.49,487.13
14.45218,423.65,487.94
14.47262,420.09,494.24
14.49192,424.41,499.48
14.51285,425.24,501.65
14.53158,423.53,494.49
14.55281,423.35,468.22
14.57218,421.38,433.31
14.59296,419.92,400.85
14.61175,415.98,383.40
14.63186,413.41,370.80
14.65306,411.99,367.91
14.67319,411.99,372.44
14.69319,413.34,375.82
14.71137,411.70,379.08
14.73207,414.82,384.84
14.75302,414.42,394.53
14.77191,417.87,401.11
14.79270,416.92,402.37
14.81140,418.13,409.50
14.83279,418.29,418.90
14.85118,417.83,424.18
14.87311,419.85,428.76
14.89297,419.44,436.90
14.91207,419.04,440.19
14.93254,421.25,448.47
14.95182,420.86,451.16
14.97149,420.38,455.25
14.99241,422.19,457.33
15.01275,421.93,459.61
15.03141,424.97,464.59
15.05123,424.01,468.08
15.07254,422.30,469.96
15.09247,423.34,472.08
15.11232,423.90,474.48
15.13136,422.31,476.28
15.15206,423.75,478.20
15.17141,424.27,475.94
15.19233,425.06,478.91
15.21196,424.63,478.28
15.23145,422.95,480.09
15.25231,423.79,478.07
15.27315,424.66,479.17
15.29289,425.76,478.49
15.31280,425.55,480.13
15.33175,422.65,478.78
15.35156,424.12,478.64
15.37234,426.46,480.65
15.39184,427.22,481.74
15.41156,424.60,481.78
15.43231,427.24,477.73
15.45309,424.15,479.06
15.47159,426.37,477.50
15.49174,426.09,481.05
15.51161,428.50,479.34
15.53229,426.54,480.56
15.55255,428.96,481.29
15.57177,426.72,481.46
15.59263,428.71,480.86
15.61188,424.78,481.91
15.63102,424.71,481.94
15.65217,425.90,482.37
15.67230,423.99,482.29
15.69112,426.24,480.35
15.71210,428.01,484.88
15.73276,426.00,482.99
15.75210,428.99,480.95
15.77242,427.59,484.31
15.79138,428.13,486.84
15.81146,430.52,486.95
15.83120,431.04,485.34
15.85266,427.85,483.15
15.87200,427.10,481.04
15.89162,428.31,483.48
15.91192,430.69,481.98
15.93189,428.89,484.47
15.95157,429.88,482.48
15.97164,428.39,486.90
15.99204,428.62,486.50
16.01201,426.76,485.81
16.03251,428.55,482.59
16.05209,428.26,485.21
16.07248,427.33,482.68
16.09283,425.70,482.67
16.11225,424.34,482.35
16.13156,426.25,484.23
16.15307,427.87,485.48
16.17264,425.87,482.42
16.19261,426.78,483.08
16.21240,429.18,484.99
16.23128,429.19,483.44
16.25153,427.66,483.72
16.27341,429.61,482.63
16.29289,427.02,483.29
16.31278,427.50,483.92
16.33366,427.04,487.93
16.35267,427.64,485.88
16.37405,431.44,485.27
16.39202,429.60,485.13
16.41348,431.51,485.13
16.43256,427.63,485.63
16.45318,428.90,485.81
16.47385,432.25,485.47
16.49211,430.14,482.60
16.51206,428.21,485.38
16.53383,428.48,482.88
16.55335,431.32,482.76
16.57230,431.49,485.32
16.59277,431.08,482.41
16.61214,429.42,483.75
16.63252,429.65,482.27
16.65358,431.03,484.08
16.67378,428.47,482.76
16.69207,431.79,481.24
16.71240,428.48,482.62
16.73373,431.01,481.96
16.75221,430.38,480.22
16.77384,433.04,481.80
16.79258,429.89,483.51
16.81343,428.88,482.54
16.83291,432.11,479.58
16.85329,431.80,480.07
16.87393,430.21,477.97
16.89228,429.64,478.58
16.91257,431.89,479.05
16.93220,432.34,480.93
16.95304,431.41,479.23
16.97344,431.26,481.87
16.99348,429.76,479.68
17.01334,428.54,481.39
17.03217,432.07,478.61
17.05342,430.03,480.04
17.07342,429.07,480.51
17.09379,429.87,478.71
17.11248,430.81,482.40
17.13369,430.94,480.32
17.15286,431.38,483.29
17.17327,430.42,484.38
17.19200,433.23,484.12
17.21293,433.77,484.28
17.23309,433.03,485.08
17.25249,431.73,482.39
17.27388,432.48,483.54
17.29290,434.55,486.67
17.31346,432.38,485.54
17.33341,430.11,484.12
17.35206,433.53,484.54
17.37318,430.95,485.84
17.39215,433.67,485.26
17.41277,432.64,486.62
17.43304,430.47,486.92
17.45394,431.80,485.39
17.47205,431.00,487.88
17.49393,428.88,488.06
17.51405,430.84,485.89
17.53275,431.06,487.20
17.55407,433.41,487.99
17.57362,432.45,491.00
17.59208,431.28,489.70
17.61311,430.91,494.37
17.63366,432.78,495.55
17.65249,430.92,502.87
17.67292,434.50,530.14
17.69224,435.13,555.08
17.71325,435.36,577.09
17.73249,437.25,584.12
17.75332,434.30,584.94
17.77333,436.51,587.41
17.79338,431.87,577.59
17.81388,431.27,569.32
17.83310,434.24,562.58
17.85330,434.45,561.22
17.87384,436.15,556.88
17.89263,436.43,549.52
17.91337,436.16,543.87
17.93369,436.57,536.76
17.95327,437.76,530.18
17.97210,436.93,528.65
17.99378,436.72,521.17
18.01415,433.01,518.99
18.03440,434.68,513.68
18.05450,432.28,511.50
18.07354,431.42,510.29
18.09304,431.31,510.32
18.11310,433.06,504.96
18.13506,433.27,506.03
18.15497,432.47,505.79
18.17377,430.71,505.15
18.19417,429.41,501.48
18.21505,429.98,498.75
18.23482,428.77,497.91
18.25383,429.81,498.72
18.27370,427.17,494.82
18.29307,428.61,497.39
18.31501,429.14,491.85
18.33314,427.72,493.03
18.35503,430.58,494.77
18.37372,429.83,496.99
18.39431,428.38,498.04
18.41404,428.70,495.50
18.43364,430.89,492.54
18.45427,429.53,493.78
18.47333,430.58,499.74
18.49349,429.37,494.45
18.51321,427.18,481.31
18.53423,423.10,451.83
18.55480,421.01,423.73
18.57313,420.90,402.24
18.59496,416.36,386.91
18.61475,417.65,383.22
18.63505,417.41,380.29
18.65392,415.82,383.65
18.67391,417.21,389.33
18.69291,421.28,397.28
18.71353,422.06,402.37
18.73469,422.31,410.82
18.75368,424.37,419.34
18.77315,425.49,426.00
18.79404,426.03,435.16
18.81480,427.70,438.64
18.83336,428.89,444.60
18.85320,427.79,450.11
18.87414,428.95,457.12
18.89497,429.32,459.26
18.91406,425.92,463.95
18.93448,426.87,466.14
18.95594,427.65,469.36
18.97530,428.22,472.40
18.99422,426.64,472.84
19.01568,428.15,474.17
19.03564,427.71,475.20
19.05491,425.41,477.95
19.07524,425.95,476.88
19.09439,429.27,479.89
19.11561,428.86,483.72
19.13607,426.42,481.33
19.15505,425.71,487.57
19.17534,426.66,491.78
19.19436,424.88,493.25
19.21460,425.25,491.74
19.23587,424.09,492.67
19.25495,424.89,492.38
19.27540,427.93,495.08
19.29582,425.29,492.68
19.31527,426.62,489.84
19.33441,424.26,490.54
19.35474,426.32,493.14
19.37584,426.36,492.43
19.39463,424.92,492.21
19.41496,426.21,491.51
19.43599,427.25,487.45
19.45510,424.36,486.13
19.47467,424.79,486.35
19.49490,423.47,488.20
19.51555,424.62,484.32
19.53506,423.78,482.11
19.55409,424.60,484.25
19.57416,423.74,480.40
19.59482,426.20,480.96
19.61492,424.74,482.27
19.63529,425.63,483.29
19.65417,425.30,481.54
19.67530,424.05,481.09
19.69559,421.69,483.92
19.71548,420.35,484.87
19.73494,420.47,481.30
19.75595,422.29,482.68
19.77440,423.20,484.75
19.79433,420.80,485.95
19.81462,422.99,484.60
19.83538,422.16,481.32
19.85556,421.81,479.79
19.87554,420.17,478.82
19.89511,422.30,473.71
19.91554,423.35,473.67
19.93489,423.87,476.12
19.95590,421.20,476.47
19.97599,421.06,474.11
19.99529,420.74,476.20
20.01513,421.84,477.04
20.03574,422.61,475.36
20.05615,418.36,474.48
20.07580,421.70,479.52
20.09526,420.81,479.30
20.11552,418.19,481.32
20.13659,417.06,482.16
20.15543,418.38,482.51
20.17526,419.11,483.01
20.19524,419.22,482.87
20.21624,418.42,485.41
20.23653,417.35,485.57
20.25648,419.10,484.57
20.27530,418.01,484.64
20.29553,419.22,486.68
20.31604,416.48,486.98
20.33611,418.33,488.44
20.35528,420.16,487.58
20.37655,418.59,488.11
20.39544,416.48,486.25
20.41691,416.62,485.61
20.43499,418.78,483.69
20.45563,419.04,483.54
20.47498,418.23,484.41
20.49624,418.80,483.13
20.51510,416.20,483.78
20.53493,419.57,486.38
20.55607,418.25,485.41
20.57632,418.39,483.13
20.59599,420.03,486.37
20.61662,417.85,485.55
20.63594,417.31,483.57
20.65677,416.73,486.30
20.67642,416.61,486.41
20.69509,417.49,487.28
20.71691,417.79,486.78
20.73651,418.05,484.78
20.75569,417.46,483.48
20.77593,415.80,487.33
20.79545,417.64,485.76
20.81592,414.76,487.88
20.83564,417.61,484.01
20.85604,417.57,484.21
20.87505,414.86,482.77
20.89675,416.50,484.66
20.91693,415.04,482.79
20.93520,416.04,482.30
20.95673,414.57,483.71
20.97566,416.91,482.24
20.99626,417.45,483.27
21.01636,414.43,484.29
21.03530,413.32,483.00
21.05661,416.56,480.94
21.07575,416.58,483.42
21.09692,415.88,483.84
21.11651,417.00,484.15
21.13641,417.23,485.07
21.15569,415.64,486.88
21.17579,414.30,483.75
21.19662,415.77,484.37
21.21480,416.25,483.64
21.23576,414.94,485.29
21.25505,416.86,482.67
21.27665,416.66,483.08
21.29651,415.91,483.98
21.31592,413.38,484.02
21.33698,414.25,482.29
21.35618,416.03,485.66
21.37578,415.86,480.97
21.39549,416.98,484.77
21.41552,415.18,481.63
21.43628,415.54,482.57
21.45685,415.63,483.33
21.47564,416.58,485.20
21.49501,415.29,482.88
21.51614,414.33,482.19
21.53519,414.52,486.12
21.55655,415.56,486.94
21.57543,416.57,484.91
21.59664,417.30,484.55
21.61664,413.85,484.00
21.63583,414.31,486.33
21.65674,416.71,485.40
21.67569,415.98,485.41
21.69620,416.66,491.12
21.71537,418.50,505.94
21.73633,415.72,523.51
21.75566,415.65,539.13
21.77572,412.17,556.52
21.79600,410.77,564.85
21.81555,412.25,571.59
21.83702,409.23,567.30
21.85537,410.31,567.38
21.87646,410.11,563.02
21.89587,408.16,558.20
21.91633,411.32,553.35
21.93648,414.51,546.75
21.95534,414.50,538.54
21.97674,417.36,531.51
21.99481,418.59,527.89
22.01597,415.81,519.71
22.03612,417.11,518.94
22.05505,417.45,515.32
22.07509,420.78,512.85
22.09593,422.36,511.26
22.11698,420.15,508.31
22.13622,421.58,504.64
22.15538,420.37,504.37
22.17515,418.67,504.03
22.19664,420.29,503.63
22.21624,420.20,505.00
22.23516,418.04,501.05
22.25643,417.71,498.36
22.27566,415.56,499.82
22.29492,415.37,499.88
22.31667,417.33,496.57
22.33507,416.67,497.16
22.35500,419.11,495.97
22.37528,418.88,498.27
22.39597,417.83,495.47
22.41550,417.34,495.93
22.43513,415.91,497.69
22.45534,417.33,506.41
22.47497,417.95,512.12
22.49552,418.23,512.10
22.51660,413.60,488.02
22.53536,412.86,454.06
22.55667,409.44,419.00
22.57647,409.98,396.66
22.59505,408.29,382.46
22.61545,407.67,375.64
22.63506,405.54,374.60
22.65569,405.89,375.75
22.67632,407.56,382.23
22.69644,406.80,387.92
22.71536,408.39,396.17
22.73658,408.52,404.38
22.75559,411.05,412.05
22.77480,410.83,419.32
22.79668,411.87,424.52
22.81593,414.52,430.43
22.83675,413.18,438.71
22.85568,415.54,445.01
22.87611,414.69,448.72
22.89627,415.41,453.42
22.91620,413.72,456.21
22.93590,415.47,461.51
22.95658,415.91,462.43
22.97584,414.13,467.32
22.99645,416.51,466.84
23.01567,415.79,468.05
23.03510,415.17,472.83
23.05534,413.84,476.26
23.07596,416.89,480.05
23.09570,413.66,480.40
23.11635,415.61,481.15
23.13561,413.73,484.86
23.15561,413.15,482.04
23.17554,414.91,482.64
23.19664,414.01,480.55
23.21638,411.62,481.78
23.23680,413.12,479.07
23.25633,410.90,481.82
23.27583,414.19,482.76
23.29494,411.32,481.60
23.31589,412.42,480.93
23.33675,413.36,480.18
23.35525,411.84,482.20
23.37527,413.41,481.70
23.39649,411.81,482.37
23.41642,412.93,479.48
23.43529,412.23,483.51
23.45500,411.19,481.29
23.47720,410.63,483.31
23.49648,411.82,483.76
23.51741,411.06,482.70
23.53834,414.42,484.09
23.55831,414.97,483.13
23.57691,413.01,482.71
23.59772,413.44,480.23
23.61854,412.70,480.45
23.63838,414.83,482.39
23.65836,413.40,481.63
23.67825,412.53,479.47
23.69811,413.38,480.03
23.71817,415.06,479.67
23.73826,414.05,478.94
23.75853,413.32,480.07
23.77833,412.99,480.81
23.79812,413.37,479.00
23.81739,413.48,480.43
23.83718,416.35,479.89
23.85708,417.83,478.98
23.87837,416.84,478.05
23.89749,415.31,480.95
23.91692,415.25,480.59
23.93765,414.52,480.55
23.95794,416.39,479.79
23.97844,416.01,480.33
23.99830,416.33,480.61
24.01711,412.09,479.63
24.03729,415.26,478.48
24.05849,415.11,480.54
24.07738,415.73,478.24
24.09858,412.36,477.73
24.11766,414.01,480.95
24.13765,414.62,479.94
24.15778,416.41,479.68
24.17684,416.93,479.72
24.19813,413.16,481.19
24.21691,414.86,483.19
24.23728,415.96,484.14
24.25728,416.22,481.91
24.27859,415.18,481.99
24.29763,416.90,484.70
24.31719,416.22,484.33
24.33765,414.79,482.11
24.35816,414.83,483.42
24.37672,414.19,482.41
24.39859,413.24,483.52
24.41717,414.83,481.91
24.43758,416.90,483.16
24.45729,416.00,482.43
24.47694,416.93,482.91
24.49837,414.02,482.61
24.51797,414.63,482.20
24.53834,416.75,483.48
24.55752,415.29,482.57
24.57981,413.14,482.07
24.59886,417.01,483.62
24.61980,414.31,482.48
24.63992,418.33,483.26
24.65810,418.40,482.94
24.67775,415.69,478.70
24.69891,416.32,478.62
24.71919,418.66,481.62
24.73901,417.65,480.91
24.75856,418.87,477.36
24.77963,418.16,482.12
24.79948,417.94,482.40
24.81948,420.28,482.43
24.84051,420.52,482.96
24.86058,420.39,484.19
24.87926,422.29,481.24
24.90050,420.55,484.59
24.92041,420.13,481.06
24.94002,419.80,481.40
24.96007,420.80,480.81
24.98163,421.15,481.94
25.00047,425.00,479.15
25.02121,423.53,481.15
25.04132,422.83,479.68
25.06101,426.09,481.07
25.08097,428.31,487.03
25.10157,428.64,485.99
25.12189,428.84,487.02
25.14163,428.80,488.17
25.16242,428.47,486.21
25.18188,427.08,486.65
25.20278,430.91,483.53
25.22279,429.34,480.82
25.24265,430.13,481.28
25.26084,429.49,481.87
25.28284,429.95,480.57
25.30118,428.89,483.56
25.32203,428.00,480.09
25.34193,426.38,480.91
25.36226,427.92,482.31
25.38146,429.96,478.77
25.40141,429.42,478.57
25.42108,427.59,479.16
25.44101,429.95,478.76
25.46157,428.51,479.06
25.48143,429.34,478.25
25.50284,430.07,478.13
25.52223,432.03,487.69
25.54304,430.75,508.63
25.56347,437.01,536.79
25.58487,437.19,562.26
25.60411,436.54,579.28
25.62437,438.09,582.45
25.64316,438.27,585.15
25.66388,437.15,584.69
25.68449,434.15,576.67
25.70307,435.67,570.66
25.72367,433.41,563.77
25.74323,432.53,555.20
25.76327,432.92,553.12
25.78445,430.32,546.03
25.80291,432.77,540.16
25.82365,432.81,532.92
25.84375,434.27,524.36
25.86368,432.79,522.85
25.88359,434.70,522.99
25.90324,433.90,516.53
25.92330,433.13,516.93
25.94460,431.55,514.37
25.96293,430.63,510.19
25.98388,430.34,507.28
26.00313,430.16,508.27
26.02570,428.76,500.97
26.04537,430.75,500.79
26.06493,430.40,500.92
26.08587,429.15,499.10
26.10554,430.85,500.38
26.12431,429.84,501.09
26.14590,433.55,511.64
26.16539,433.25,522.52
26.18574,431.46,517.48
26.20580,433.35,503.24
26.22438,431.04,475.64
26.24427,427.87,450.27
26.26461,424.23,422.56
26.28462,418.90,403.21
26.30531,422.20,391.87
26.32543,422.70,388.15
26.34528,421.38,387.45
26.36399,422.55,386.79
26.38458,426.32,388.22
26.40646,424.96,394.23
26.42553,423.74,396.91
26.44634,424.81,402.05
26.46671,425.01,409.12
26.48592,423.53,414.72
26.50597,423.96,421.06
26.52604,426.96,426.85
26.54509,426.84,431.22
26.56642,427.70,436.62
26.58556,427.92,441.85
26.60517,429.54,444.60
26.62576,431.28,451.37
26.64522,431.11,455.56
26.66771,431.35,462.20
26.68601,428.54,476.13
26.70798,433.43,504.64
26.72756,435.96,551.12
26.74789,437.99,597.28
26.76759,443.20,634.26
26.78743,444.70,649.53
26.80777,447.34,640.98
26.82737,445.64,620.94
26.84681,440.36,587.61
26.86691,437.45,554.66
26.88667,429.43,524.73
26.90782,425.79,495.17
26.92676,422.92,471.99
26.94635,418.72,452.15
26.96629,419.15,436.12
26.98748,416.79,426.87
27.00657,416.16,420.51
27.02665,416.34,419.66
27.04699,416.46,417.10
27.06766,416.41,418.19
27.08768,416.82,421.01
27.10668,419.65,424.68
27.12626,419.13,429.72
27.14761,422.01,434.29
27.16652,419.24,439.66
27.18769,420.45,443.80
27.20735,423.24,448.94
27.22623,422.71,453.55
27.24684,421.42,458.74
27.26656,423.46,460.50
27.28710,424.58,465.04
27.30617,424.59,464.98
27.32676,425.70,467.36
27.34650,425.85,469.87
27.36651,425.40,473.67
27.38640,426.11,469.32
27.40750,423.18,475.87
27.42679,425.85,475.11
27.44738,425.96,472.74
27.46748,425.53,474.64
27.48760,426.92,474.04
27.50640,424.22,483.53
27.52747,427.39,491.61
27.54636,427.54,507.93
27.56724,426.47,521.76
27.58789,426.39,534.63
27.60586,430.51,541.28
27.62777,426.65,543.28
27.64759,428.25,545.57
27.66611,427.11,541.24
27.68706,428.92,537.21
27.70653,425.51,530.86
27.72766,427.79,525.35
27.74661,427.26,522.62
27.76733,427.33,518.17
27.78709,426.73,512.07
27.80603,424.05,512.16
27.82765,425.87,508.59
27.84673,426.51,503.47
27.86671,425.89,503.55
27.88694,424.77,485.52
27.90788,422.11,461.82
27.92672,423.64,445.73
27.94702,419.11,438.33
27.96637,419.04,436.32
27.98788,420.07,434.02
28.00599,420.59,435.22
28.02757,419.01,435.58
28.04735,422.43,441.29
28.06671,422.39,442.43
28.08711,421.05,447.60
28.10713,418.51,450.17
28.12737,422.27,452.42
28.14639,418.87,456.83
28.16770,422.16,458.76
28.18587,424.90,462.84
28.20688,425.03,464.68
28.22597,423.40,469.05
28.24670,421.57,471.34
28.26596,424.13,474.81
28.28739,424.42,474.04
28.30605,424.01,477.15
28.32722,424.70,475.58
28.34743,421.37,478.75
28.36643,424.50,480.98
28.38766,425.43,480.51
28.40634,422.48,481.23
28.42788,424.61,481.70
28.44838,423.95,484.49
28.46790,424.13,481.65
28.48781,424.45,483.61
28.50806,422.64,482.55
28.52694,424.20,481.98
28.54744,421.29,483.82
28.56737,420.04,484.85
28.58731,421.84,484.10
28.60755,420.45,483.09
28.62848,422.58,482.52
28.64793,420.56,483.85
28.66681,419.69,484.89
28.68798,420.28,484.21
28.70760,422.37,483.07
28.72728,422.09,487.02
28.74874,419.25,485.05
28.76713,417.05,485.00
28.78791,420.75,484.77
28.80709,421.06,483.75
28.82724,422.48,486.00
28.84735,423.58,496.26
28.86724,425.38,519.97
28.88871,426.87,546.37
28.90843,427.40,576.15
28.92822,429.46,595.39
28.94846,429.96,606.91
28.96698,429.38,607.27
28.98872,426.46,605.19
29.00804,426.72,594.01
29.02855,423.57,583.11
29.04865,420.09,569.81
29.06799,421.08,554.45
29.08875,418.87,543.93
29.10879,419.94,535.20
29.12845,417.20,527.93
29.14801,418.74,519.14
29.16820,419.04,515.38
29.18973,416.17,510.33
29.20881,418.58,504.74
29.22904,415.45,504.03
29.24952,415.56,499.17
29.26955,416.72,499.64
29.28951,416.31,499.82
29.30851,417.48,496.04
29.32940,417.17,496.29
29.34980,417.58,493.27
29.36884,417.41,493.45
29.38888,414.66,490.48
29.40866,414.74,488.22
29.42935,415.53,490.67
29.44919,416.24,488.88
29.46803,416.37,487.32
29.48847,413.93,490.45
29.50860,417.73,488.06
29.52799,415.08,488.10
29.54862,416.56,484.44
29.56924,415.92,487.77
29.58783,416.93,485.39
29.60877,417.94,484.99
29.62810,417.89,484.25
29.64952,418.19,480.39
29.67023,417.25,483.46
29.69062,415.46,480.95
29.71039,415.56,483.88
29.72951,415.61,485.25
29.74972,416.29,496.09
29.76921,416.60,512.18
29.79033,420.93,527.18
29.81032,420.26,533.27
29.83047,422.19,525.32
29.84957,422.73,498.68
29.86971,419.47,467.94
29.88931,414.11,430.83
29.90972,410.15,404.63
29.92995,409.87,387.09
29.95163,409.60,374.79
29.97020,408.04,370.13
29.99107,409.65,367.28
30.01161,407.10,373.28
30.03122,409.14,376.67
30.05249,407.21,384.39
30.07235,408.50,394.50
30.09145,409.66,403.79
30.11267,407.51,411.80
30.13205,407.04,417.38
30.15071,409.23,424.35
30.17213,406.64,427.53
30.19194,407.13,433.57
30.21088,407.38,439.93
30.23215,407.91,443.45
30.25124,409.27,444.95
30.27144,411.59,451.09
30.29250,409.01,454.13
30.31166,408.99,455.39
30.33224,411.43,457.30
30.35257,410.79,463.02
30.37160,410.30,464.08
30.39156,408.62,466.45
30.41131,410.32,466.85
30.43208,409.89,469.23
30.45079,413.98,472.52
30.47238,413.62,470.95
30.49076,414.48,473.07
30.51177,413.69,471.89
30.53187,413.05,475.28
30.55257,412.83,475.60
30.57143,411.87,476.56
30.59154,413.41,475.66
30.61252,413.26,475.48
30.63228,410.87,477.70
30.65086,414.15,475.00
30.67131,414.05,474.93
30.69218,413.78,475.66
30.71243,411.65,477.49
30.73366,410.27,478.25
30.75317,412.20,481.00
30.77195,412.88,478.82
30.79279,414.89,481.54
30.81382,413.07,479.25
30.83213,415.28,477.46
30.85312,412.79,481.39
30.87230,413.74,478.44
30.89394,417.08,477.49
30.91317,415.85,478.86
30.93407,414.85,479.15
30.95413,415.63,479.79
30.97389,415.26,481.32
30.99374,417.21,481.66
31.01452,420.11,480.31
31.03457,418.05,477.78
31.05295,416.59,478.09
31.07288,419.63,481.97
31.09454,417.80,478.73
31.11345,416.27,480.77
31.13376,416.57,479.86
31.15462,417.71,483.23
31.17409,418.86,483.71
31.19306,415.98,481.05
31.21476,419.23,484.44
31.23457,417.25,481.85
31.25522,419.96,481.99
31.27579,418.67,480.57
31.29518,418.43,480.58
31.31436,420.89,482.65
31.33571,421.16,483.21
31.35385,420.47,481.61
31.37387,419.78,485.54
31.39579,418.28,483.61
31.41465,420.15,483.43
31.43523,421.19,483.54
31.45442,423.86,482.80
31.47474,424.35,485.01
31.49519,424.70,485.49
31.51393,425.65,485.37
31.53561,424.53,484.86
31.55451,422.99,485.73
31.57475,424.07,484.59
31.59588,422.02,485.35
31.61511,422.78,487.33
31.63485,422.43,484.40
31.65497,419.75,487.70
31.67532,420.15,485.95
31.69492,423.45,485.27
31.71456,419.73,485.71
31.73503,418.78,486.46
31.75370,422.07,487.93
31.77567,421.46,487.03
31.79532,423.45,484.09
31.81520,423.40,483.84
31.83542,422.95,486.10
31.85498,421.33,483.83
31.87574,423.44,485.75
31.89659,426.15,481.42
31.91486,423.87,485.83
31.93555,423.72,485.54
31.95618,424.57,484.46
31.97550,425.77,482.22
31.99630,427.40,487.06
32.01608,425.76,484.66
32.03619,427.76,485.79
32.05584,427.65,486.76
32.07475,426.84,488.16
32.09567,424.45,483.24
32.11589,425.37,484.46
32.13657,425.01,485.08
32.15544,427.82,486.66
32.17593,429.60,485.52
32.19621,430.06,482.25
32.21509,428.51,484.17
32.23659,427.25,484.51
32.25581,429.75,483.00
32.27531,428.79,480.56
32.29657,429.21,480.97
32.31644,427.40,482.57
32.33629,427.34,482.90
32.35632,424.86,482.67
32.37565,425.80,482.04
32.39474,426.86,484.64
32.41549,427.04,482.59
32.43492,425.06,481.63
32.45653,425.50,480.70
32.47523,427.55,482.39
32.49540,424.98,482.18
32.51543,425.37,484.31
32.53479,424.34,484.89
32.55513,428.06,484.69
32.57510,428.47,482.33
32.59539,426.65,484.09
32.61657,428.62,484.53
32.63477,426.32,483.20
32.65568,427.07,484.88
32.67548,425.25,484.13
32.69601,428.30,484.50
32.71610,428.19,483.77
32.73473,425.71,483.12
32.75578,425.67,482.89
32.77530,427.23,485.52
32.79585,427.10,485.63
32.81597,426.28,485.23
32.83524,427.51,486.41
32.85653,428.92,484.32
32.87484,429.62,486.86
32.89650,429.92,484.31
32.91564,426.66,481.88
32.93596,427.08,482.43
32.95576,427.18,483.99
32.97643,427.63,483.87
32.99716,429.63,480.66
33.01739,428.03,483.17
33.03569,428.91,480.87
33.05577,429.72,480.20
33.07573,428.68,477.72
33.09596,429.90,480.80
33.11694,430.20,481.55
33.13597,431.10,490.91
33.15751,433.12,515.13
33.17758,431.07,537.93
33.19710,431.55,558.64
33.21787,434.29,573.62
33.23719,435.14,584.24
33.25692,434.38,585.25
33.27690,436.46,581.48
33.29696,435.45,575.67
33.31674,432.78,570.51
33.33768,434.42,563.56
33.35861,434.94,554.84
33.37719,434.99,548.43
33.39684,437.79,546.93
33.41813,435.76,543.78
33.43706,435.37,541.31
33.45687,435.89,533.90
33.47715,432.71,533.09
33.49855,434.63,531.59
33.51715,432.49,531.02
33.53759,436.17,530.92
33.55844,434.55,527.68
33.57744,433.24,522.06
33.59784,431.07,519.99
33.61824,433.91,516.29
33.63778,431.59,510.83
33.65809,434.61,508.94
33.67783,432.56,507.50
33.69746,432.65,504.03
33.71846,431.51,500.70
33.73769,433.89,501.09
33.75762,432.74,500.35
33.77704,433.09,496.60
33.79871,430.35,502.82
33.81710,432.50,514.74
33.83773,435.50,525.06
33.85707,436.84,533.30
33.87872,437.03,521.71
33.89800,436.53,497.00
33.91759,436.07,460.83
33.93685,432.17,428.77
33.95738,430.33,403.28
33.97772,429.82,382.72
33.99943,427.81,373.88
34.01826,426.35,372.72
34.03762,423.88,375.29
34.05985,423.55,377.65
34.07964,425.28,383.66
34.09901,422.09,390.00
34.12006,422.46,400.67
34.13910,421.31,404.67
34.16018,420.23,413.15
34.17881,422.83,420.51
34.20056,422.48,425.62
34.21949,421.87,433.05
34.23924,420.94,437.31
34.25995,422.39,441.40
34.27855,424.72,445.13
34.29983,426.59,450.57
34.31881,427.61,454.95
34.34004,424.05,456.52
34.35887,426.10,460.10
34.38058,423.77,466.47
34.40019,422.70,469.19
34.42038,424.38,472.32
34.44076,422.54,472.92
34.46130,421.72,473.98
34.48076,424.08,474.33
34.50090,421.21,475.72
34.52254,422.34,475.50
34.54318,419.70,476.39
34.56296,420.60,476.37
34.58299,418.23,475.95
34.60327,416.98,478.89
34.62306,417.68,480.01
34.64235,417.42,480.31
34.66283,418.11,481.55
34.68312,419.40,482.35
34.70200,416.64,481.84
34.72226,418.03,484.20
34.74270,418.61,483.50
34.76277,416.20,484.89
34.78355,419.96,486.47
34.80303,418.32,485.02
34.82351,418.36,487.74
34.84278,421.10,488.11
34.86430,418.22,487.54
34.88394,419.80,486.30
34.90404,418.88,487.70
34.92416,415.55,487.93
34.94365,416.28,484.34
34.96295,415.30,484.50
34.98330,415.14,483.78
35.00452,414.19,486.87
35.02428,412.64,488.10
35.04445,415.69,486.07
35.06301,416.17,488.69
35.08420,417.62,487.84
35.10372,418.74,485.85
35.12406,417.92,487.70
35.14373,414.82,486.26
35.16538,416.39,483.75
35.18511,417.46,484.83
35.20478,417.17,486.16
35.22732,416.32,485.39
35.24611,414.40,483.30
35.26742,414.88,483.81
35.28704,414.75,484.72
35.30734,414.83,483.77
35.32663,413.26,483.21
35.34613,413.57,483.47
35.36589,414.77,481.61
35.38678,411.81,482.11
35.40681,412.23,479.49
35.42648,413.02,482.06
35.44646,415.21,481.08
35.46554,413.73,479.67
35.48711,414.29,478.37
35.50598,412.14,479.47
35.52592,412.74,479.95
35.54780,413.75,481.04
35.56765,414.94,481.95
35.58704,414.06,483.63
35.60760,413.95,482.27
35.62779,414.10,483.40
35.64704,414.19,481.89
35.66822,413.04,482.09
35.68666,415.49,483.74
35.70856,412.84,483.26
35.72812,414.72,481.45
35.74699,414.23,482.99
35.76833,415.40,482.19
35.78897,416.78,482.41
35.80841,414.79,480.14
35.82760,414.66,481.14
35.84885,414.32,482.88
35.86788,412.94,481.89
35.88851,416.28,482.50
35.91027,415.90,481.03
35.92943,415.93,481.24
35.94915,415.67,481.47
35.96880,416.34,482.57
35.98880,418.46,481.01
36.00862,418.27,481.07
36.03059,418.03,480.53
36.04923,418.68,481.82
36.06933,418.84,483.50
36.09020,416.87,482.32
36.10869,419.62,482.29
36.12947,421.80,482.82
36.14862,421.01,484.23
36.16993,419.42,481.53
36.18874,420.32,480.80
36.21004,421.25,481.12
36.23027,420.61,482.05
36.25047,423.67,481.31
36.26913,423.36,480.79
36.28955,422.52,484.01
36.30952,420.84,484.17
36.32893,423.96,483.43
36.34983,423.12,484.20
36.36971,422.92,484.40
36.39029,421.34,484.29
36.40942,424.49,484.94
36.42999,424.76,483.70
36.45018,424.55,482.99
36.46918,422.37,484.71
36.48975,424.07,484.59
36.51018,421.82,481.24
36.53030,420.49,483.98
36.54991,418.60,482.31
36.57036,419.78,484.06
36.58934,418.35,483.52
36.60871,417.82,482.91
36.63100,420.62,482.82
36.65121,420.69,483.03
36.67076,423.14,482.34
36.69117,422.13,479.49
36.71091,423.09,481.53
36.73004,423.11,480.39
36.75093,422.38,479.07
36.77017,425.07,478.60
36.79000,424.28,480.00
36.81015,424.20,482.42
36.83090,426.32,481.34
36.85030,423.59,482.52
36.87009,423.06,481.34
36.88985,422.60,483.23
36.91121,422.80,481.07
36.93060,423.42,482.37
36.95013,424.87,482.43
36.97122,424.57,483.79
36.99087,422.75,480.19
37.00996,423.58,481.96
37.03008,425.21,481.42
37.05129,424.67,483.37
37.07220,423.41,484.44
37.09113,425.15,483.71
37.11173,426.15,483.46
37.13092,424.47,485.65
37.15098,425.35,485.52
37.17091,428.56,482.53
37.19100,425.90,485.54
37.21059,425.36,482.95
37.23161,426.94,482.18
37.25185,429.23,484.94
37.27203,428.26,483.58
37.29259,431.51,483.32
37.31139,430.55,484.13
37.33199,428.89,480.61
37.35100,429.60,480.78
37.37174,429.53,481.94
37.39184,428.42,483.35
37.41237,427.35,481.91
37.43189,427.68,483.98
37.45223,427.70,483.46
37.47226,428.67,479.98
37.49129,429.87,479.21
37.51110,429.82,479.77
37.53093,428.10,487.81
37.55182,429.07,502.68
37.57134,426.69,519.91
37.59156,426.45,536.73
37.61072,422.96,554.39
37.63094,422.76,562.75
37.65115,420.71,566.01
37.67239,421.37,566.76
37.69097,420.40,564.01
37.71174,421.88,560.77
37.73209,422.49,557.16
37.75069,424.48,553.01
37.77085,426.21,547.95
37.79121,429.87,541.02
37.81166,433.30,540.18
37.83104,434.62,535.66
37.85068,435.76,531.74
37.87071,435.17,528.90
37.89182,436.66,526.69
37.91060,438.96,526.45
37.93117,439.15,526.05
37.95212,442.01,520.91
37.97210,440.40,517.98
37.99067,441.47,517.03
38.01233,437.73,511.36
38.03200,437.60,509.21
38.05226,436.44,504.40
38.07156,437.99,505.05
38.09158,436.11,498.39
38.11159,436.05,500.32
38.13214,436.77,496.64
38.15215,436.12,498.39
38.17191,435.37,496.16
38.19282,432.20,503.41
38.21326,434.30,511.10
38.23196,436.52,513.48
38.25348,434.97,506.44
38.27331,432.08,481.02
38.29215,428.94,446.70
38.31341,427.56,413.96
38.33266,423.34,389.88
38.35241,426.64,375.72
38.37245,426.64,369.49
38.39334,425.76,365.27
38.41245,425.68,369.25
38.43337,423.06,373.00
38.45175,424.93,381.52
38.47239,425.20,388.95
38.49333,426.66,395.03
38.51351,423.73,405.30
38.53212,426.45,412.83
38.55340,427.88,419.07
38.57344,427.40,428.30
38.59145,426.92,432.49
38.61206,428.11,443.58
38.63193,428.94,446.72
38.65347,430.68,451.63
38.67350,431.39,456.45
38.69318,432.68,460.91
38.71230,429.58,464.30
38.73151,432.77,469.40
38.75317,431.62,472.44
38.77344,431.66,474.73
38.79314,430.39,475.02
38.81182,431.48,478.88
38.83350,432.83,477.88
38.85272,431.04,481.65
38.87334,434.40,482.18
38.89326,434.31,481.80
38.91366,431.99,480.09
38.93229,433.75,484.50
38.95318,431.29,486.83
38.97292,432.29,487.46
38.99271,433.74,484.77
39.01239,432.89,487.16
39.03202,429.87,487.28
39.05300,431.76,483.25
39.07329,432.13,484.97
39.09250,430.28,484.40
39.11175,429.92,486.93
39.13359,429.65,485.97
39.15191,429.81,484.94
39.17287,428.89,485.99
39.19201,430.04,486.77
39.21289,430.85,487.43
39.23313,431.08,485.43
39.25332,430.08,488.71
39.27256,428.78,489.48
39.29329,427.26,488.68
39.31329,427.38,489.35
39.33378,427.71,487.32
39.35347,427.35,489.03
39.37333,427.61,486.92
39.39412,427.46,487.74
39.41328,427.95,486.03
39.43437,429.06,485.46
39.45474,428.02,485.15
39.47550,428.07,488.34
39.49477,427.08,485.83
39.51370,428.53,485.17
39.53420,425.68,487.80
39.55379,425.96,488.12
39.57388,427.74,487.43
39.59397,425.90,485.39
39.61504,428.18,485.39
39.63409,426.18,486.22
39.65527,428.65,483.69
39.67464,430.36,487.64
39.69579,427.98,483.58
39.71647,426.54,484.56
39.73645,428.09,484.81
39.75649,427.63,485.15
39.77551,425.46,482.61
39.79528,426.62,484.36
39.81534,427.89,484.24
39.83462,425.19,484.03
39.85582,427.25,482.54
39.87525,425.58,482.56
39.89647,427.88,485.80
39.91572,425.59,482.71
39.93656,424.15,485.30
39.95651,425.20,483.37
39.97508,424.90,485.86
39.99558,427.39,483.80
40.01557,424.07,484.35
40.03545,424.93,484.03
40.05568,426.13,483.32
40.07624,427.81,483.78
40.09540,425.65,484.65
40.11638,427.08,485.82
40.13565,427.53,484.91
40.15645,427.95,487.79
40.17583,427.45,486.39
40.19578,422.87,485.99
40.21613,427.30,485.09
40.23499,426.32,489.44
40.25482,426.31,488.20
40.27431,427.88,485.66
40.29538,425.51,487.21
40.31482,427.02,488.48
40.33518,426.35,487.05
40.35523,426.54,489.15
40.37505,425.87,489.45
40.39533,426.51,487.29
40.41576,426.64,485.72
40.43501,427.78,488.13
40.45600,424.60,485.25
40.47546,426.63,484.74
40.49579,423.54,482.19
40.51582,423.38,482.36
40.53570,423.72,482.31
40.55627,422.24,484.49
40.57552,421.98,483.69
40.59645,424.39,483.32
40.61470,425.09,484.53
40.63561,425.17,483.08
40.65650,424.17,483.56
40.67595,424.61,484.01
40.69644,422.59,484.63
40.71531,422.88,482.01
40.73623,423.59,486.06
40.75491,423.73,486.22
40.77628,423.88,484.86
40.79504,420.81,484.34
40.81636,420.89,484.81
40.83567,422.59,481.20
40.85458,420.48,484.15
40.87489,420.38,481.38
40.89574,419.91,483.38
40.91696,421.60,483.41
40.93712,421.47,483.07
40.95573,418.21,485.70
40.97552,419.54,485.08
40.99730,418.74,483.45
41.01802,417.51,485.15
41.03732,418.61,485.18
41.05712,418.42,484.70
41.07807,415.97,483.65
41.09693,415.76,486.99
41.11651,416.18,485.44
41.13710,416.69,486.01
41.15822,414.60,485.65
41.17835,413.00,484.89
41.19750,415.12,485.08
41.21632,414.01,486.71
41.23700,414.31,485.88
41.25771,415.10,483.09
41.27814,414.25,485.06
41.29821,416.82,485.30
41.31728,412.71,485.54
41.33725,416.68,487.06
41.35827,414.52,487.68
41.37775,417.20,484.80
41.39798,413.52,485.88
41.41797,414.53,485.17
41.43637,414.73,486.43
41.45710,417.75,486.15
41.47682,416.67,485.19
41.49663,416.11,483.32
41.51832,416.22,486.07
41.53825,414.34,484.37
41.55723,414.74,485.44
41.57646,417.26,486.67
41.59788,417.41,485.88
41.61721,414.52,484.88
41.63722,416.30,485.26
41.65797,415.22,482.33
41.67675,415.63,483.18
41.69842,414.56,483.85
41.71835,412.54,483.21
41.73786,414.45,487.02
41.75882,413.00,503.67
41.78143,414.92,522.45
41.80051,416.42,545.42
41.81983,418.41,567.17
41.84044,414.95,575.64
41.86099,418.20,580.12
41.88135,414.37,581.84
41.89957,412.51,576.38
41.92092,414.74,569.50
41.94021,412.03,561.64
41.96023,413.93,553.68
41.98074,415.80,546.96
42.00129,417.02,538.92
42.01962,414.46,536.40
42.03970,416.51,533.17
42.06087,418.47,527.55
42.08125,419.98,525.51
42.10203,417.77,523.28
42.12138,418.89,522.40
42.14159,419.91,516.26
42.16189,418.64,517.76
42.18147,419.46,512.37
42.20249,415.09,509.24
42.22192,413.88,507.34
42.24093,414.09,502.70
42.26170,415.62,501.10
42.28154,413.74,496.24
42.30208,416.45,496.36
42.32051,414.61,493.23
42.34172,413.27,492.16
42.36274,411.70,491.39
42.38072,411.98,483.43
42.40173,408.18,460.40
42.42167,404.91,434.06
42.44142,404.10,406.57
42.46114,406.19,385.45
42.48193,405.13,377.11
42.50176,407.77,373.02
42.52158,406.29,374.51
42.54154,408.77,380.77
42.56224,409.80,387.63
42.58183,411.53,395.10
42.60177,410.62,405.30
42.62064,409.15,414.02
42.64116,410.67,421.18
42.66064,411.83,427.49
42.68067,411.47,435.58
42.70170,412.49,440.93
42.72057,410.76,446.86
42.74114,411.69,452.88
42.76216,412.05,453.62
42.78199,410.31,458.99
42.80052,411.99,460.10
42.82190,412.75,463.03
42.84128,414.70,465.99
42.86249,415.44,469.45
42.88240,416.79,471.33
42.90111,413.24,471.00
42.92057,412.78,475.62
42.94217,415.78,475.41
42.96078,415.36,476.34
42.98139,415.21,475.38
43.00125,413.04,480.04
43.02236,415.54,477.34
43.04077,415.60,479.21
43.06095,415.67,478.78
43.08059,415.41,477.73
43.10075,415.89,480.86
43.12192,415.80,481.17
43.14211,416.97,478.53
43.16230,418.53,478.76
43.18129,416.07,476.27
43.20191,417.06,474.81
43.22190,419.19,478.39
43.24205,415.80,478.69
43.26162,417.41,479.13
43.28039,417.95,477.30
43.30205,419.53,478.15
43.32133,419.93,478.24
43.34225,419.03,479.63
43.36158,415.30,480.11
43.38338,416.60,479.33
43.40161,418.47,480.62
43.42333,418.84,481.79
43.44303,418.92,480.84
43.46159,417.83,481.76
43.48227,417.65,481.47
43.50293,419.40,480.43
43.52258,420.48,480.89
43.54301,419.16,482.28
43.56408,420.41,480.09
43.58292,422.44,480.99
43.60307,420.83,481.32
43.62233,422.08,480.63
43.64305,422.40,482.96
43.66414,421.60,481.17
43.68305,421.93,482.45
43.70403,423.98,482.36
43.72380,421.16,478.67
43.74404,422.07,481.35
43.76327,423.31,478.77
43.78291,420.71,478.13
43.80333,421.66,481.51
43.82328,425.18,479.13
43.84373,422.23,481.24
43.86387,423.06,483.18
43.88432,424.21,483.83
43.90362,425.89,481.57
43.92320,424.54,481.98
43.94224,426.21,485.19
43.96338,428.14,488.61
43.98337,428.35,499.60
44.00315,429.69,511.08
44.02365,431.35,521.05
44.04254,434.27,525.62
44.06297,434.03,525.85
44.08346,430.05,520.86
44.10280,429.76,511.53
44.12443,429.26,500.31
44.14390,429.10,487.56
44.16463,428.35,469.60
44.18398,423.13,456.59
44.20350,421.93,448.07
44.22422,419.57,439.66
44.24340,416.87,439.34
44.26399,418.28,441.19
44.28452,421.71,464.13
44.30393,422.26,492.86
44.32344,425.68,518.63
44.34343,426.83,530.72
44.36400,422.59,534.39
44.38382,422.59,522.70
44.40340,414.66,510.52
44.42412,410.71,493.98
44.44482,409.38,478.04
44.46487,407.85,466.85
44.48477,409.27,456.98
44.50466,408.88,453.50
44.52455,411.01,448.61
44.54447,412.58,449.18
44.56418,412.92,459.20
44.58367,414.29,478.68
44.60382,417.04,500.87
44.62410,420.63,521.11
44.64529,424.03,533.49
44.66419,429.14,541.55
44.68401,433.91,546.22
44.70412,436.25,554.01
44.72371,442.36,554.72
44.74317,445.78,557.57
44.76361,452.17,553.71
44.78338,452.41,548.11
44.80477,452.34,542.47
44.82425,451.87,528.30
44.84483,447.27,507.28
44.86515,442.84,476.87
44.88414,438.00,447.89
44.90470,428.09,417.98
44.92415,415.86,390.68
44.94475,408.12,370.49
44.96322,406.79,355.47
44.98399,403.45,352.58
45.00521,402.70,351.36
45.02451,400.08,359.29
45.04439,401.63,365.07
45.06369,407.46,377.70
45.08518,408.98,391.53
45.10438,411.84,402.05
45.12453,417.18,410.86
45.14533,420.47,423.05
45.16387,423.00,436.72
45.18477,427.77,449.33
45.20356,432.25,464.34
45.22529,442.77,493.78
45.24359,460.68,522.63
45.26546,482.09,549.50
45.28361,501.50,566.63
45.30349,514.63,573.69
45.32470,523.85,576.77
45.34427,524.36,573.15
45.36379,518.46,569.99
45.38477,515.43,563.78
45.40477,506.05,561.47
45.42521,494.18,558.31
45.44485,485.40,551.20
45.46365,473.28,531.85
45.48453,458.66,508.29
45.50498,442.01,482.80
45.52374,428.99,463.20
45.54475,419.77,449.05
45.56365,417.08,437.76
45.58525,412.75,431.80
45.60404,410.55,425.61
45.62453,404.90,427.22
45.64386,405.42,429.00
45.66510,407.41,432.95
45.68411,409.80,433.54
45.70384,410.57,436.92
45.72446,411.37,440.77
45.74357,417.83,445.80
45.76439,421.79,447.42
45.78401,424.31,451.92
45.80470,429.50,453.91
45.82510,430.50,454.84
45.84446,432.07,460.52
45.86532,430.96,461.54
45.88332,432.94,464.65
45.90519,437.16,463.45
45.92530,437.70,460.30
45.94462,437.00,460.57
45.96316,440.16,459.07
45.98359,439.20,459.76
46.00399,439.31,462.31
46.02435,434.31,464.22
46.04436,434.89,466.52
46.06469,435.51,472.23
46.08511,436.56,477.00
46.10530,431.66,473.39
46.12322,429.96,470.80
