Program Time [s],data 0,data 1
2.93276,494.63,519.79
2.93278,525.67,527.94
2.93281,495.1,528.55
2.93286,495.28,528.84
2.93291,495.22,528.67
2.93296,493.98,527.14
2.93308,494.58,525.11
2.93313,494.87,521.49
2.93328,495.29,519.79
2.93333,494.63,509.8
4.44765,507.2,507.44
4.47211,503.16,505.55
4.49263,500.93,504.84
4.51319,498.54,505.07
4.53371,498.43,506.86
4.55411,498.75,508.49
4.57457,497.2,511.79
4.59917,496.56,515.43
4.61968,495.65,516.95
4.64013,493.92,518.56
4.66067,493.13,520.05
4.68118,491.11,520.04
4.70556,490.69,520.23
4.72612,490.15,517.38
4.74662,488.12,515.11
4.76709,489.1,512.69
4.78758,489.68,509.55
4.80807,489.14,505.84
4.83258,489.71,504.07
4.85312,490.77,503.46
4.87362,491.82,504.57
4.89412,491.25,505.85
4.91458,491.8,507.48
4.93508,493.04,513.79
4.95959,494.23,526.43
4.98009,494.39,543.34
5.00065,493.11,550.27
5.02107,503.89,644.02
5.04153,512.91,700.22
5.06607,503.93,741.17
5.0866,500.14,755.34
5.10711,500.71,737.47
5.12754,504.77,690.78
5.1481,507.22,626.82
5.16857,507.97,561.46
5.19305,510.78,505.97
5.21355,513.22,465.77
5.23406,514.38,467.42
5.25456,507.7,460.73
5.27503,503.16,520.19
5.29949,514.73,589.75
5.32001,527.38,636.6
5.34058,529.11,684.48
5.36099,534.29,700.78
5.3815,533.23,670.23
5.40195,529.98,611.58
5.42649,524.39,539.27
5.44702,518.31,473.41
5.46758,512.45,424.93
5.48797,505.96,391.94
5.50852,496.97,372.56
5.53293,491.57,363.44
5.55346,487.26,362.56
5.57396,484.41,367.44
5.59451,483.53,375.76
5.615,480.82,387
5.63548,479.66,401
5.65993,478.53,414.6
5.68047,477.82,428.28
5.70105,476.46,442.83
5.72144,475.36,456.66
5.74194,474.89,468.13
5.76642,474.51,476.9
5.7869,475.41,482.32
5.80747,474.93,487.26
5.82792,475.74,489.61
5.8484,477.79,490.89
5.86898,479.04,492.31
5.89341,480.23,492.85
5.91395,479.98,493.88
5.93442,480.79,495.3
5.9549,481.03,498.04
5.9754,484.22,500.43
5.99584,484.98,503.95
6.02041,485.58,506.96
6.04095,486.27,511.17
6.0614,488.41,515.13
6.08186,490.73,520.11
6.10239,491.78,523.28
6.12683,489.03,524.23
6.14741,488.22,525.38
6.16786,487.38,524.51
6.18844,487.5,523.2
6.20886,487.8,521.16
6.22932,487.24,517.93
6.25383,486.39,514.94
6.27446,486.31,510.96
6.29486,486.45,509.96
6.31538,485.96,508.17
6.33582,485.37,507.94
6.36031,487.9,509.75
6.38097,490.32,512.2
6.40151,492.25,515.16
6.42182,492,518.73
6.44231,491.8,520.58
6.46291,492.44,524.27
6.4873,492.55,525.21
6.50788,492.44,525.77
6.52836,492.35,526.22
6.54878,491.08,524.37
6.56935,488.67,522.9
6.59378,492.13,520.72
6.61431,494.11,518.57
6.63487,495.49,515.46
6.65532,495.59,513.17
6.67581,495.67,510.93
6.69629,497.14,511.15
6.72078,497.71,511.72
6.7413,497.57,513.17
6.76182,496.45,516.14
6.78222,496.96,520.91
6.80274,495.77,523.53
6.82727,496.62,526.22
6.84783,497.29,527.38
6.86825,495.23,527.5
6.88878,494.59,527
6.9092,492.47,526.2
6.92988,491.38,524.16
6.95439,491.3,520.33
6.97484,491.04,517.06
6.99526,490.63,513.65
7.01582,487.71,510.12
7.03619,479.96,507.5
7.05673,471.97,505.8
7.08124,464.38,506.04
7.10175,459.3,506.63
7.12225,457.84,509.9
7.14267,456.27,512.12
7.16319,456.82,515.7
7.18769,459.85,518.96
7.20818,463.08,522.57
7.22872,465.67,523.85
7.24921,468.33,523.88
7.26981,472.87,522.91
7.2901,476.09,520.73
7.31469,478.27,519.38
7.33518,480.62,517.3
7.35571,482.9,514.64
7.37625,486.32,513.31
7.39665,487.45,511.85
7.4211,486.76,511.28
7.44176,487.81,512.03
7.46225,488.25,514.62
7.48287,498.4,518.7
7.50312,510.12,521.56
7.52372,516.7,525.25
7.5481,521.16,528
7.56879,524.52,528.6
7.58926,524.62,528.28
7.6096,520.9,528.02
7.6302,518.92,525.82
7.65458,518.73,522.45
7.67522,518.19,520.16
7.69574,514.35,519.73
7.71621,511.08,561.98
7.73664,510.66,576.39
7.75724,503.53,628.11
7.78159,514.42,706.29
7.80211,506.14,743.43
7.82265,509.71,780.34
7.84333,500.77,808.88
7.86359,499.42,809.9
7.88409,496.73,798.32
7.90867,493.99,755.86
7.92912,498.79,685.89
7.9496,506.63,605.71
7.97017,518.7,525.97
7.99064,529.76,458.17
8.01506,534.81,444.74
8.0356,533.65,451.19
8.05611,542.92,505.55
8.07662,556.54,565.64
8.097,554.83,601.91
8.11749,559.46,625.73
8.14201,555.57,635.18
8.16257,552.06,600.35
8.18312,549.04,538.68
8.2036,541.24,482.74
8.22401,531.39,437.39
8.24852,522.91,406.72
8.26915,513.33,386.17
8.28966,502.26,374.74
8.31004,492.41,369.19
8.33047,486.33,369.35
8.351,482.86,375.28
8.37553,480.49,383.63
8.39604,479.19,391.5
8.41651,476.35,400.6
8.43698,475.28,410.48
8.45744,474.43,419.78
8.48197,474.94,429.23
8.50245,475.95,437.78
8.52297,474.56,446.23
8.54347,474.05,451.58
8.56393,474.84,459.06
8.58448,473.67,465.25
8.60897,474.94,470.8
8.62946,476.95,477.24
8.64997,478.96,483.39
8.67044,479.37,489.71
8.69101,481.09,493.17
8.71552,482.08,496.34
8.73593,483.06,498.87
8.75644,484.65,499.5
8.77705,485.92,498.6
8.79745,486.53,497.88
8.81793,488.23,496.1
8.84242,487.78,496.28
8.86297,491.03,496.63
8.88347,494.02,497.7
8.90388,496.02,499.36
8.92437,496.41,502.49
8.945,498.13,505.79
8.96943,497.1,509.43
8.99001,500.68,514.35
9.01038,508.35,517.68
9.03086,511.08,519.54
9.05146,511.26,521.43
9.07586,510.21,521.15
9.09642,508.77,520.32
9.11686,506.41,518.85
9.13739,503.93,515.68
9.15783,501.35,512.95
9.17838,500.68,509.96
9.20282,501.54,507.17
9.22339,502.63,504.73
9.24392,502.11,502.99
9.26437,500.68,503.39
9.28499,499.35,506.71
9.3093,497.28,514.57
9.32983,494.82,519.26
9.35037,490.86,524.2
9.37087,488.09,524.16
9.39133,490.27,523.33
9.41186,492.82,521.46
9.43646,493.05,520.97
9.45696,489.84,520.78
9.47754,486.67,519.42
9.49782,487.54,519.14
9.51826,485.63,516.11
9.54276,484.9,512.69
9.56326,483.32,510.15
9.58377,484.26,509.32
9.60428,484.41,509.46
9.62483,485.33,509.17
9.64526,485.26,510.13
9.66977,487.41,512.31
9.69029,495.73,514.64
9.71078,500.18,518.52
9.73128,501.75,521.81
9.75184,502,524.85
9.7762,502,527.88
9.79687,501.6,530.5
9.8173,500.48,531.4
9.83782,499.78,531.12
9.85821,496.63,529.9
9.87869,495.5,527.92
9.90321,496.4,526.33
9.92379,497.12,525.67
9.94424,497.1,524.53
9.96477,496.48,524.03
9.98524,495.78,523.42
10.0058,497.83,523.54
10.0303,499.26,524.03
10.0507,499.61,524.62
10.0713,500.69,524.7
10.0917,501.35,526.16
10.1122,501.08,527.53
10.1367,499.06,528.62
10.1572,498.25,528.7
10.1777,497.4,527.56
10.1982,497.12,525.85
10.2186,498.3,523.68
10.2392,497.44,519.74
10.2638,500.35,517.19
10.2843,500.88,514.15
10.3047,500.3,512.52
10.3253,500.24,510.82
10.3457,500.39,510.66
10.3702,501.52,512.12
10.3907,502.21,513.1
10.4112,503.17,515.08
10.4318,504.14,517.46
10.4522,503.91,519.17
10.4727,505.53,520.54
10.4971,506.22,521.23
10.5177,506.38,521.58
10.5382,505.7,522.47
10.5587,505.16,545.17
10.5792,503.93,593.34
10.6037,498.34,651.07
10.6241,500.47,704.26
10.6447,511.38,766.41
10.6651,512.3,785.32
10.6858,515.24,820.26
10.7061,512.79,834.21
10.7306,505.44,814.97
10.7513,503.15,762.37
10.7716,500.72,687.1
10.7921,502.58,601.68
10.8126,508.46,528.34
10.8371,511.77,489.27
10.8577,509.21,492.22
10.8781,508.37,529.98
10.8988,523.3,577.58
10.9192,524.04,627.86
10.9396,519.63,664.09
10.9641,514.7,663.67
10.9847,507.36,626.54
11.0051,504.49,559.43
11.0256,508.79,483.34
11.0462,512.83,416.28
11.0666,519.67,367.22
11.0912,523.13,340.58
11.1116,524.71,330.46
11.1321,524.17,330.77
11.1525,521.53,338.02
11.173,518.83,347.41
11.1975,517.86,360.13
11.2182,518.09,374.1
11.2387,515.47,388.08
11.2591,508.18,402.67
11.2795,505.74,415.53
11.3,506.39,427.43
11.3247,506.11,438.14
11.345,502.89,446.51
11.3656,500.11,453.61
11.386,499.09,458.29
11.4065,498.47,462.43
11.4309,498.58,466.34
11.4516,498.26,471.48
11.472,497.21,476.18
11.4925,498.37,482.54
11.513,501.09,489.24
11.5335,502.28,494.79
11.558,502.62,499.23
11.5785,503.7,501.38
11.599,503.56,504.31
11.6195,504.45,506.45
11.6399,503.76,507.96
11.6645,501.21,506.97
11.685,499.76,505.17
11.7054,497.61,503.54
11.7259,495.89,504.83
11.7465,493.11,505.26
11.7669,488.69,506.01
11.7915,485.75,507.81
11.812,484.8,509.85
11.8326,487.24,511.48
11.8529,488.19,512.58
11.8735,489.95,514.07
11.8979,491.76,515.25
11.9184,494.61,517.8
11.939,493.29,518.44
11.9594,492.83,519.55
11.9799,493.06,519.44
12.0004,490.25,517.75
12.0248,490.8,517.6
12.0454,493.04,517.08
12.0659,493.43,515.27
12.0863,494.55,513.21
12.1069,494.84,511.37
12.1273,494.67,509.9
12.1521,496.34,508.92
12.1724,496.67,508.13
12.1929,495.53,508.91
12.2133,496.83,510.73
12.2338,496.06,512.98
12.2583,494.85,516.38
12.2788,495.28,520.71
12.2994,496.02,526.57
12.3199,494.62,530.65
12.3405,493.7,530.32
12.3609,493.96,528.46
12.3853,492.77,526.97
12.406,492.41,524.57
12.4266,490.33,522.86
12.4468,492.26,519.29
12.4673,491.81,516.03
12.4918,492.05,513.22
12.5123,493.04,512.58
12.5329,493.83,511.46
12.5533,496.86,512.17
12.574,498.69,512.34
12.5943,500.75,514.27
12.619,500.8,517.42
12.6393,502.64,518.73
12.6598,502.91,518.99
12.6802,502.93,519.59
12.7009,502.14,518.87
12.7252,500.92,518.7
12.7458,501.93,520.56
12.7663,499.95,520.25
12.7868,499.56,518.6
12.8073,499.45,517.28
12.8278,501.56,514.82
12.8522,502.45,514.46
12.8729,501.56,512.97
12.8934,500.84,512.77
12.9138,499.08,513.02
12.9342,502.06,514.01
12.9547,504.45,514.61
12.9792,504.76,516.09
12.9998,504.01,519.27
13.0203,504.41,523.62
13.0408,503.72,525.09
13.0613,504.58,525.08
13.0857,504.26,525.66
13.1063,500.81,523.13
13.1267,500.85,520.9
13.1472,502.08,518.12
13.1677,501.86,516.7
13.1882,500.89,514.16
13.2128,500.51,511.73
13.2333,501.01,509.78
13.2537,503.81,508.22
13.2742,505.05,508.18
13.2948,504.84,510.34
13.3191,502.87,520.28
13.3397,501.3,570.42
13.3603,505.24,627.54
13.3807,510.59,679.43
13.4012,507.47,746.94
13.4217,516.38,801.35
13.4462,511.5,841.28
13.4668,506.6,857.03
13.4872,502.48,844.62
13.5077,500.58,793.3
13.5282,504.07,713.44
13.5526,508.85,622.75
13.5731,514.88,537
13.5937,519.11,473
13.6142,522.69,467.2
13.6346,526.35,447.96
13.6551,525.88,470.57
13.6796,536.1,521.25
13.7002,542.08,574.4
13.7206,547.07,591.92
13.7412,552.65,575.54
13.7617,553.92,536.63
13.7862,549.14,489.3
13.8068,542.11,448.24
13.8272,530.29,416.99
13.8476,520.03,396.6
13.8681,512.02,384.48
13.8886,506.22,379.78
13.9131,499.78,380.03
13.9336,495.62,383.82
13.9542,494.7,390.66
13.9746,495.56,397.92
13.9951,496.45,407.34
14.0156,496.56,419.27
14.0402,496.25,430.62
14.0607,495.8,439.69
14.0811,498.44,451.76
14.1017,499.15,465.6
14.1221,494.72,474.28
14.1465,493.38,481.43
14.167,493.9,486.74
14.1875,493.72,489.59
14.208,495.38,491.27
14.2285,496.3,494.62
14.2491,495.84,495.5
14.2736,496.27,497.2
14.294,498.22,501.16
14.3146,497.17,501.93
14.335,498.94,503.14
14.3555,498.15,505.71
14.3799,497.52,508.37
14.4005,498.22,512.7
14.421,499.97,515.76
14.4415,496.78,520.21
14.4619,497.42,524.36
14.4824,497.54,528.29
14.5069,498.23,531.43
14.5275,497.78,532.55
14.548,496.83,533.84
14.5684,495.26,533.27
14.5889,494.61,532.22
14.6134,496.29,530.37
14.6339,497.63,527.3
14.6545,497.9,523.44
14.675,497.72,521.35
14.6955,499.38,519.88
14.7159,500.9,520.1
14.7404,501.92,521.08
14.7609,502.54,522.67
14.7815,503.03,524.73
14.8019,502.02,527.99
14.8225,502.62,531.19
14.843,501.7,533.55
14.8674,502.16,535.84
14.888,501.73,535.87
14.9085,501.98,535.7
14.929,502.58,534.76
14.9494,501.07,532.41
14.9739,502.05,530.53
14.9945,502.84,527.02
15.015,503.27,523.82
15.0355,502.82,521.25
15.0558,501.46,520.4
15.0763,501.76,519.72
15.1008,504.21,520.18
15.1215,504.57,521.94
15.142,504.46,524.15
15.1624,504.16,526.72
15.183,502.93,529.58
15.2074,501.55,532.66
15.2278,501.24,534.53
15.2484,500.19,534.82
15.2689,499.55,535.26
15.2894,499.04,534.41
15.3098,498.63,533.53
15.3343,499.31,532.22
15.3548,497.84,530.78
15.3753,502.48,529.02
15.3958,505.18,527.02
15.4165,505.74,526.41
15.4408,505.4,526.53
15.4613,508.12,526.82
15.4819,507.89,527.06
15.5023,509.11,529.05
15.5229,509.29,532.64
15.5433,506.63,535.11
15.5679,505.91,538.49
15.5883,505.13,540.59
15.6088,504.9,542.67
15.6292,503.32,542.34
15.6498,503.66,541.27
15.6743,503.52,540.02
15.6948,501.02,537.41
15.7153,500.22,533.93
15.736,501.77,531.14
15.7562,503.62,527.92
15.7767,503.69,524.93
15.8013,502.16,524.95
15.8219,499.92,525.16
15.8423,499.94,524.73
15.8628,500.15,525.58
15.8832,500.92,527.46
15.9038,500.34,529.37
15.9282,501.47,531.9
15.9488,502.78,532.72
15.9693,502.02,534.77
15.9897,502.42,534.42
16.0103,502.33,533.74
16.0348,503.07,532.39
16.0552,503.65,529.71
16.0758,503.52,526.17
16.0962,503.42,523.33
16.1166,503.33,520.87
16.1372,503.47,517.89
16.1618,502.57,515.32
16.1825,503.26,513.85
16.2027,502.21,513.88
16.2232,502.17,514.51
16.2436,503.13,517
16.2682,504.11,520.4
16.2887,504.49,541.12
16.3092,501.39,579.9
16.3296,501.91,627.92
16.3503,512.73,700.93
16.3707,517.18,758.15
16.3951,524.55,786.32
16.4157,531.44,771.45
16.4362,533.75,725.36
16.4567,531.4,660.29
16.4771,524.32,595.23
16.5017,518.46,539.59
16.5223,512.16,497.47
16.5427,507.33,467.38
16.5632,503.07,449.9
16.5836,501.25,462.32
16.6042,500.4,485.06
16.6287,499.52,541.44
16.6491,507.82,603.16
16.6696,526.65,674.72
16.6901,543.32,725.58
16.7106,561.46,740.66
16.7351,570.97,713.53
16.7556,565.37,651.62
16.7761,551.7,574.3
16.7967,536.36,506.24
16.8172,521.09,455.59
16.8375,508.47,419.47
16.8621,501.18,397.78
16.8827,494.94,387.22
16.9031,493.35,383.58
16.9236,490.68,386.26
16.9441,490.55,394.41
16.9685,490.84,405.53
16.9891,490.67,419.02
17.0096,490.74,432.22
17.0302,490.99,444.17
17.0505,491.59,454.14
17.0713,490.27,463.31
17.0955,490.22,471.25
17.116,488.37,477.4
17.1367,487.3,481.72
17.157,488.04,485.78
17.1775,488.43,489.62
17.1982,489.75,491.5
17.2225,489.8,493.6
17.2431,491.84,495.48
17.2635,492.27,498.38
17.284,493.82,502.51
17.3045,495.85,506.6
17.329,498.08,509.88
17.3496,499.87,513.31
17.3701,500.09,516.25
17.3906,499.67,519.8
17.4111,501.54,523.24
17.4316,500.63,525.99
17.456,501.11,526.99
17.4766,500.68,527.39
17.497,500.75,526.31
17.5176,500.6,524.65
17.538,499.68,523.52
17.5624,499.54,521.62
17.583,498.83,519.89
17.6036,497.87,518.92
17.624,497.29,517.73
17.6446,497.64,518.39
17.665,497.91,519.71
17.6895,499.13,520.77
17.7101,500.3,524.41
17.7305,500.84,527.53
17.751,501.07,530.02
17.7715,501.86,532.82
17.796,501.29,534.06
17.8164,501.23,535.44
17.8371,501.18,535.56
17.8574,501.55,534.24
17.8779,502.44,531.8
17.8985,502.35,529.84
17.9229,502.48,527.27
17.9434,501.58,525.62
17.9639,503.07,523.49
17.9845,502.45,522.19
18.0049,500.16,522.16
18.0293,502.13,523.12
18.0499,502.1,524.3
18.0704,502.48,526.84
18.0908,501.19,529.67
18.1113,501.95,532.14
18.1318,502.36,534.51
18.1564,501.89,535.61
18.1768,501.51,536.29
18.1974,501.61,535.63
18.2179,502.49,534.3
18.2384,503.39,532.04
18.2588,502.11,528.83
18.2833,501.29,526.07
18.304,501.43,524.45
18.3244,503.15,522.76
18.3449,504.12,522.61
18.3654,503.89,523.09
18.3898,504.71,524.07
18.4105,503.97,525.66
18.4309,503.78,527.53
18.4513,502.42,530.62
18.4719,503.54,532.9
18.4923,503.63,536.32
18.5169,503.1,537.45
18.5374,504.08,538.16
18.5578,503.07,537.93
18.5783,504.05,537.74
18.5989,501.24,535.4
18.6233,499.99,533.52
18.6439,500,531.21
18.6643,501.2,528.37
18.6848,500.36,525.7
18.7052,499.89,524.76
18.7258,500.51,523.81
18.7503,501.01,523.84
18.7708,501.41,525.68
18.7914,500.72,526.74
18.812,500.58,528.79
18.8324,501.66,531.83
18.8567,501.53,534.07
18.8773,500.42,535.05
18.8979,502.34,534.84
18.9184,502.67,533.07
18.9388,502.14,531.86
18.9592,503.11,529.09
18.9837,508.49,526.47
19.0042,514.99,521.58
19.0247,516.59,519.06
19.0452,518.07,515.05
19.0657,517.86,512.84
19.0901,518.29,511.07
19.1107,516.63,511.66
19.1312,515.9,512.33
19.1518,515.12,514.06
19.1723,514.5,516.65
19.1927,514.6,519.92
19.2172,513.68,524.73
19.2378,513.74,527.39
19.2583,512.59,528.71
19.2787,511.28,529.97
19.2992,509.42,529.17
19.3197,507.54,528.94
19.3441,509.03,538.55
19.3647,508.82,569.44
19.3852,509.26,619.35
19.4056,518.61,673.28
19.4262,523.69,730.03
19.4507,527.95,759.82
19.4711,535.96,746.46
19.4917,539.37,702.97
19.5122,538.49,642.37
19.5327,534.79,583.7
19.5532,528.24,535.76
19.5777,521.19,500.41
19.5981,514.75,475.73
19.6187,507.8,467.98
19.6392,503.24,488.98
19.6597,506.79,500.39
19.684,499.23,559.71
19.7046,503.59,633.57
19.7251,503.67,670.25
19.7457,512.34,657.2
19.7661,517.87,614.16
19.7865,524.89,554.73
19.811,527.12,503.78
19.8318,521.69,466.83
19.8522,515.35,443.06
19.8726,509.68,428.25
19.893,503.35,420
19.9175,498.08,417.2
19.9381,496.06,420.36
19.9586,494.45,426.29
19.9793,493.36,433.43
19.9995,492.49,442.54
20.0201,491.79,451.64
20.0447,491.63,458.71
20.0651,492.31,464.57
20.0856,491.84,469.65
20.1062,490.28,474.52
20.1266,490.82,477.22
20.151,491.66,480.17
20.1716,491.93,483.54
20.1921,489.54,487.43
20.2125,491.43,490.95
20.233,492.35,494.56
20.2535,493.88,499.65
20.278,495.9,504.72
20.2985,497.52,510.17
20.3191,499.82,515.74
20.3395,501.65,518.79
20.36,502.52,521.23
20.3805,501.82,522.79
20.405,500.85,522.63
20.4256,500.68,522.1
20.446,501.15,521.08
20.4665,499.52,519.87
20.487,498.21,518.09
20.5115,498.17,516.47
20.532,498.34,514.58
20.5525,497.67,513.66
20.573,497.94,513.53
20.5934,498.95,515.82
20.6141,499.36,516.86
20.6384,500.89,518.49
20.6591,501.31,521.79
20.6795,503.25,523.83
20.6999,505.2,525.87
20.7205,506.56,526.29
20.745,506.25,527.43
20.7655,507,528.15
20.786,506.8,527.92
20.8065,506.24,526.93
20.8271,503.99,526.75
20.8474,501.39,527.2
20.8719,502.31,527.56
20.8924,503.65,530.25
20.9129,502.52,533.6
20.9334,503.82,535.28
20.9539,503.85,538.42
20.9784,504.08,540.74
20.999,505.47,541.59
21.0195,506.37,542.07
21.04,507.1,542.86
21.0604,506.28,543.29
21.0808,505.42,541.83
21.1055,502.54,540.66
21.1261,500.83,537.13
21.1464,499.86,534.9
21.167,502.49,531.72
21.1873,505.19,527.98
21.2118,505.55,524.38
21.2323,504.44,520.71
21.253,504.56,518.97
21.2736,504.44,517.37
21.2938,505.16,517.1
21.3144,505.92,518.28
21.3389,506.74,520.42
21.3594,506.99,523.54
21.3801,504.79,526.63
21.4004,505.23,528.5
21.4209,505.59,530.4
21.4412,505.67,531.52
21.4658,504.34,532.02
21.4863,504.07,531.41
21.507,503.06,529.73
21.5274,503.04,527.99
21.5478,501.84,526.79
21.5723,502.67,524.43
21.593,503.33,522.14
21.6133,505.07,521.12
21.6339,504.65,519.69
21.6543,505.92,519.15
21.6749,504.14,520.32
21.6993,504.31,522.06
21.7199,505.25,525.05
21.7404,504.8,528.84
21.7607,507.44,532.07
21.7813,509.55,533.86
21.8057,510.04,534.08
21.8262,510.03,534.07
21.8468,509.83,531.85
21.8673,509.46,528.88
21.8877,509.37,525.91
21.9083,508.5,521.13
21.9327,507.8,515.7
21.9532,507.04,509.36
21.9737,506.63,504.29
21.9943,505.5,499.63
22.0149,506,497.3
22.0392,505.6,497.24
22.0598,504.48,501.19
22.0802,504.19,505.76
22.1007,502.75,509.4
22.1212,503,511.72
22.1418,503,513.98
22.1661,503.2,516.38
22.1867,503.76,518.51
22.2072,502.01,519.61
22.2278,501.61,519.88
22.2483,501.08,519.51
22.2726,501.27,519.21
22.2933,501.21,517.36
22.3138,500.57,515.49
22.3342,501.46,513.79
22.3547,501.17,513.23
22.3751,501.33,512.59
22.3997,502.87,513.27
22.4202,505.69,514.82
22.4408,506.55,517.85
22.4612,507.04,520.88
22.4817,506.43,523.91
22.5022,506.75,526.32
22.5266,506.6,528.86
22.5472,505.48,529.89
22.5677,504.18,530.71
22.5882,501.75,535.37
22.6086,502,563.69
22.6332,508.6,596.76
22.6536,511.68,651.8
22.6742,510.14,713.24
22.6946,507.71,764.79
22.7152,508.57,776.84
22.7356,512.26,753.27
22.7601,511.41,700.42
22.7807,513.12,633.13
22.801,516.1,565.91
22.8216,522.08,511.72
22.842,524.46,475.18
22.8666,524.37,450.34
22.8871,523.1,439.08
22.9077,521.68,456.26
22.9281,522.14,455.81
22.9485,540.71,524.45
22.9691,543.77,582.16
22.9936,540.62,641.13
23.0141,544.69,650.3
23.0346,548.55,622.24
23.0551,549.04,576.39
23.0755,542.84,531.31
23.1,532.67,495.65
23.1205,522.93,467.12
23.1411,511.95,447.5
23.1616,504.36,436.6
23.1821,499.69,429.48
23.2025,496.55,428.18
23.2271,494.64,432.75
23.2476,494.91,439
23.269,494.13,446.2
23.2885,493.5,454.76
23.3091,494,462.01
23.3334,493,468.61
23.3539,492.6,473.68
23.3746,492.08,478.95
23.3951,490.87,482.36
23.4154,490.29,482.49
23.4362,490.83,483.19
23.4605,491.27,484.55
23.4811,492.21,487.04
23.5016,493.37,490.43
23.522,496.7,495.15
23.5426,498.56,500.12
23.5631,499.25,505.69
23.5875,500.6,510.75
23.6081,500.48,515.2
23.6285,499.98,518.16
23.649,499.39,519.53
23.6694,499.51,521.42
23.694,499.41,521.94
23.7145,498.53,520.55
23.735,499.62,520.04
23.7555,500.5,517.63
23.776,501,516.31
23.7964,502.4,513.65
23.8209,502.12,512.32
23.8415,501.69,511.45
23.8619,502.96,512.96
23.8824,502.56,514.57
23.9029,503.25,517.46
23.9274,503.2,519.96
23.9479,502.96,522.77
23.9685,503.77,525.22
23.9889,503.42,527.37
24.0094,501.93,528.7
24.0298,500.95,529.16
24.0543,500.76,528.93
24.0749,501.01,526.94
24.0954,499.8,525.15
24.1158,499.04,523.12
24.1364,498.43,521.3
24.1608,499.35,518.84
24.1815,499.68,517.07
24.2019,501.94,516.66
24.2224,502.95,516.33
24.2428,503.96,518.26
24.2633,504.97,520.61
24.2879,504.58,524.29
24.3087,504.66,527.03
24.3289,503.73,528.82
24.3493,503.18,530.86
24.3699,503.75,532.09
24.3943,501.4,531.47
24.4148,501.52,530.58
24.4353,500.41,530.06
24.4559,499.53,527.85
24.4764,498.63,526.88
24.4968,499.3,524.1
24.5213,500.04,522.28
24.5418,502.23,519.83
24.5623,502.59,518.86
24.5828,502.47,517.89
24.6033,501.97,519.91
24.6239,502.58,522.53
24.6483,504.06,525.62
24.6688,504.85,527.3
24.6893,504.88,530.44
24.7097,505.3,532.15
24.7302,504.64,532.72
24.7547,503.72,531.38
24.7753,502.17,531.1
24.7958,502.34,529.48
24.8163,505.27,528.18
24.8367,507.82,525.95
24.8572,510.65,523.76
24.8817,511.72,521.81
24.9023,513.18,519.65
24.9228,511.94,518.92
24.9432,509.95,517.93
24.9637,509.96,518.75
24.9882,509.77,520.6
25.0087,510.02,522.68
25.0292,510.21,525.34
25.0497,510.17,528.67
25.0703,511.74,530.54
25.0906,509.59,531.83
25.1152,508.07,532.27
25.1358,508.06,531.61
25.1562,506.25,531.09
25.1768,505.4,528.67
25.1972,503.72,526.34
25.2216,503.37,523.87
25.2422,502.9,522.1
25.2627,503.12,519.68
25.2832,503.7,518.54
25.3037,503.76,517.83
25.3243,503.21,518.47
25.3487,503.56,520.37
25.3694,503.85,523.5
25.3897,506.68,527.2
25.4101,508.14,530.36
25.4306,509.32,532.49
25.4552,509.65,533.99
25.4756,509.72,534.39
25.4963,509.18,533.71
25.5167,508.34,532.37
25.5372,508.07,529.5
25.5576,507.86,527.2
25.5821,507.29,524.96
25.6028,507.83,522.17
25.6231,507.26,519.33
25.6436,508.01,518.47
25.6642,505.81,517.77
25.6846,506.65,536.02
25.7091,507.32,562.41
25.7296,517.05,633.33
25.7502,525.64,702.27
25.7706,524.31,756.41
25.7912,527.45,781.13
25.8156,529.56,768.9
25.8361,528.25,725.52
25.8566,526.6,664.42
25.8771,522.88,603.93
25.8976,518.5,550.55
25.9181,514.6,509.84
25.9426,510.08,476.87
25.9632,506.27,459.3
25.9836,504.81,478.64
26.004,510.85,488.91
26.0245,511.28,546.93
26.049,514.62,612.54
26.0696,510.9,674.43
26.09,515.92,699.15
26.1105,516.54,687.72
26.131,515.43,640.77
26.1516,515.94,575.42
26.176,518.15,507.94
26.1965,517.52,450.75
26.217,514.62,413.6
26.2375,509.7,389.88
26.2579,505.36,376.5
26.2825,502.28,370
26.303,501.03,370.4
26.3236,501.22,375.32
26.3439,499.38,383.26
26.3645,498.3,394.61
26.385,499.04,410.68
26.4096,497.43,425.15
26.4302,496.75,438.92
26.4506,496.6,451.73
26.471,496.08,463.99
26.4914,495.86,475.59
26.5119,495.69,484.67
26.5364,496.35,491.74
26.557,495.68,496.99
26.5774,496.35,500.59
26.5979,497.28,502.87
26.6184,496.82,504.9
26.6429,497.06,504.92
26.6635,497.25,505.94
26.6839,499,506.75
26.7045,498.6,506.2
26.725,498.88,505.16
26.7455,499.3,505.33
26.77,499.64,507.86
26.7904,498.51,511.69
26.8109,499.01,515.95
26.8314,499.01,520.16
26.8519,499.61,522.93
26.8764,500.89,526.74
26.8969,500.51,529.39
26.9175,500.61,529.92
26.938,500.89,529.93
26.9585,501.71,528.95
26.9789,501.97,526.96
27.0034,503.37,524.77
27.024,502.5,522.41
27.0444,501.4,518.93
27.0649,500.92,516.74
27.0854,501.74,515.6
27.1098,501.99,514.28
27.1303,501.39,514.82
27.1509,501.71,516.46
27.1714,502.17,519.57
27.1918,501.34,523.25
27.2123,501.07,525.8
27.237,502.06,529.04
27.2574,501.84,530.23
27.2779,502.88,531.39
27.2983,502.9,531.31
27.3189,502.12,530.05
27.3393,501.1,529.04
27.3638,501.08,528.63
27.3843,500.06,526.7
27.4048,500.25,523.36
27.4254,500,519.09
27.4458,500.4,517.87
27.4702,499.32,516.7
27.4908,499.66,516.36
27.5114,499.72,516.69
27.5318,500.78,517.75
27.5523,501.22,520.4
27.5727,503.18,523.12
27.5972,502.74,526.9
27.6178,502.39,529.32
27.6384,501.72,530.25
27.6588,502.77,530
27.6794,503.42,529.4
27.7038,503.33,527.92
27.7243,502.27,526.74
27.7448,501.61,525.19
27.7653,500.09,522.35
27.7858,500.87,520.28
27.8062,500.5,518.03
27.8308,500.2,517.42
27.8513,500.96,517.54
27.8719,503.57,518.63
27.8922,502.05,520.1
27.9128,502.64,521.68
27.9372,504.31,523.75
27.9579,504.05,526.6
27.9784,506.44,529.68
27.9988,504.75,531.74
28.0192,504,531.79
28.0397,502.8,531.23
28.0643,502.64,530.79
28.0847,502.51,528.83
28.1052,501.61,525.86
28.1257,500.89,522.69
28.1461,500.11,519.95
28.1706,500.09,517.96
28.1912,500.27,516.97
28.2117,501.02,516.18
28.2322,502.21,515.74
28.2527,501.77,517.79
28.2732,503.02,520.63
28.2977,503.81,523.51
28.3182,503.85,526.21
28.3387,503.88,528.36
28.3592,503.7,530.89
28.3797,503.76,532.11
28.4001,502.81,532.69
28.4246,501.45,531.55
28.4455,500.56,530.64
28.4657,500.05,528.31
28.4861,498.64,526.85
28.5066,498.71,523.08
28.531,498.57,521.26
28.5517,498.05,518.61
28.5723,499.84,518.09
28.5926,501.87,518.27
28.6133,500.7,518.62
28.6338,501.76,520.09
28.6581,503.41,523.08
28.6787,504.33,526.46
28.6991,504.46,529.37
28.7197,502.57,530.29
28.7401,502.46,531.44
28.7645,501.76,532.75
28.785,502.41,531.6
28.8056,502.53,529.68
28.826,501.62,526.94
28.8466,501.5,524.15
28.867,501.2,521.72
28.8917,500.96,519.38
28.9122,500.57,517.5
28.9325,500.45,516.4
28.9532,501.96,516.92
28.9736,501.37,518.94
28.9981,508.3,523.35
29.0185,514.44,526.48
29.0391,518.35,529.78
29.0596,520.48,533.03
29.08,521.18,534.62
29.1006,520.75,534.9
29.125,520,534.92
29.1455,518,534.13
29.1661,516.4,531.71
29.1865,515.12,529.37
29.2071,513.3,528.29
29.2315,512.04,549.83
29.2521,513.03,597.07
29.2727,507.62,613.85
29.293,522.9,665.88
29.3135,528.72,715.11
29.334,533.98,736.69
29.3585,540.78,726.15
29.379,543.22,691.72
29.3995,540.58,645.97
29.42,535.46,599.78
29.4407,527.57,560.22
29.461,519.26,526.78
29.4854,513.21,501.82
29.5059,506.56,483.46
29.5264,503.25,485.97
29.5469,499.2,505.37
29.5675,492.56,520.1
29.5919,492.45,561.68
29.6126,496.76,627.34
29.633,504.21,664.07
29.6534,511.77,661.46
29.674,517.21,621.77
29.6944,523.37,558.21
29.7189,523.9,494.57
29.7394,522.92,450.06
29.7601,517.33,421.45
29.7805,511.67,403.76
29.801,505.53,396.21
29.8253,502.83,393.76
29.8459,499.06,401.61
29.8664,497.65,408.09
29.887,495.52,415.47
29.9075,494.42,423.98
29.928,494.33,434.58
29.9525,494.47,443.87
29.973,493.97,451.89
29.9933,493.98,458.71
30.0139,494.58,466.57
30.0345,494.67,472.86
30.0589,494.93,479.69
30.0796,495.55,484.95
30.0999,495.64,491.76
30.1204,496.11,498.81
30.141,494.89,506.05
30.1615,494.71,512.24
30.1859,494.37,515.19
30.2065,496.89,517.55
30.2269,498.52,520.04
30.2475,498.81,521.23
30.268,497.65,521.39
30.2885,497.12,520.31
30.313,497.5,519.45
30.3334,497.8,517.36
30.354,497.44,516.49
30.3744,496.35,516.19
30.3949,496.68,517.35
30.4194,496.94,517.88
30.44,496.76,520.5
30.4604,496.6,521.8
30.481,498.08,522.84
30.5014,499.67,525.47
30.5218,500.33,527.98
30.5463,500.47,529.98
30.5668,499.97,529.79
30.5874,499.98,529.03
30.6079,500.58,526.62
30.6283,501.47,526.9
30.6529,499.77,525.12
30.6734,499.42,522.9
30.694,500.13,520.52
30.7144,499.91,518.01
30.7348,500.13,516.61
30.7553,501.9,516.49
30.7799,502.32,516.79
30.8003,504.66,518.03
30.8208,505.73,519.83
30.8413,505.58,522.46
30.8619,503.86,525.77
30.8864,504.49,528.02
30.9068,503.79,529.41
30.9274,502.63,530.93
30.9478,502.51,531.54
30.9683,501.61,531.63
30.9888,500.08,530.51
31.0133,499.87,527.41
31.0339,499.29,524.13
31.0544,497.24,521.3
31.0748,497.19,518.84
31.0952,497.75,517.47
31.1197,499.4,516.98
31.1403,499.32,517.18
31.1608,499.66,519.55
31.1813,501.13,521.44
31.202,502.3,524.55
31.2222,503.24,527.64
31.2467,503.79,529.71
31.2673,503.63,530.77
31.2878,504.51,531.42
31.3084,503.61,531.93
31.3288,503.28,531.75
31.3532,503.63,530.6
31.3737,504.1,527.48
31.3943,504.48,524.58
31.4148,502.99,522.27
31.4352,502.19,521.01
31.4556,501.15,519.41
31.4802,501.32,518.33
31.5007,502.86,517.86
31.5213,504.29,518.89
31.5417,503.63,521.11
31.5622,502.9,524.29
31.5826,504.52,526.83
31.6072,505.62,529.87
31.6278,505.89,531.89
31.6482,505.52,532.91
31.6688,505.41,533.13
31.6892,504.13,533.7
31.7137,504.5,533.56
31.7342,503,532.05
31.7547,503,528.04
31.7752,502.8,526.63
31.7957,502.44,523.91
31.8162,501.15,521.92
31.8406,501.92,520.94
31.8611,502.14,520.55
31.8817,504.11,520.84
31.9021,503.69,522.47
31.9227,504.55,523.98
31.9472,505.44,526.58
31.9677,506.95,529.67
31.9882,506.36,532.53
32.0087,506.69,532.63
32.029,505.15,532.9
32.0497,503.72,532.32
32.0741,503.98,531.26
32.0945,503.38,529.21
32.1151,503.31,527.36
32.1356,502.84,526.29
32.1562,501.88,524.23
32.1805,502.3,521.39
32.2011,502.64,521.11
32.2216,501.71,520.29
32.2421,503.37,520.63
32.2627,503.1,519.5
32.2831,503.68,521.6
32.3076,505.14,525.08
32.3281,505.91,527.47
32.3486,505.73,529.57
32.369,505.58,531.66
32.3895,506.07,532.93
32.4141,506.05,532.74
32.4348,505.24,531.39
32.4551,504.59,528.51
32.4756,505.08,526.81
32.496,504.06,525.05
32.5165,503.65,522.84
32.5411,501.92,520.67
32.5615,502.74,517.54
32.582,502.39,515.63
32.6025,502.51,514.7
32.6231,502.21,514.76
32.6436,503.57,516.01
32.6679,504.85,519.01
32.6886,505.88,522.61
32.7091,506.31,526.09
32.7295,504.84,528.67
32.7499,504.88,530.93
32.7745,503.7,532.15
32.795,503.16,532.12
32.8157,501.93,530.29
32.8361,501.54,528.04
32.8565,502.23,525.23
32.8769,502.39,523.58
32.9015,501.91,522.47
32.9221,502.93,520.57
32.9425,502.94,519.86
32.963,503.55,525.29
32.9835,504.84,547.43
33.0079,501.87,540.74
33.0284,504.5,578.99
33.049,507,624.8
33.0694,506.2,659.64
33.09,506.16,670.71
33.1105,506.53,660.97
33.1349,507.82,636.57
33.1555,508.26,602.86
33.1759,505.41,567.49
33.1965,504.13,533.79
33.217,502.9,508.23
33.2414,501.72,490.19
33.2619,501.58,476.55
33.2825,501.26,472.84
33.303,500.61,486.07
33.3234,499.89,496.66
33.3439,504.11,538.13
33.3684,512.89,582.9
33.3889,518.31,607.12
33.4095,526.85,603.5
33.4301,531.28,585.6
33.4503,529.62,560.88
33.4748,525.3,538.3
33.4953,519.44,518.04
33.516,514.55,499.23
33.5364,508.64,483.99
33.5569,503.11,471.59
33.5773,499.69,465.07
33.6019,496.75,460.46
33.6224,496.6,458.37
33.6428,495.88,460.29
33.6633,494.31,466.03
33.6839,504.04,473.23
33.7044,514.64,478.98
33.7288,521.51,485.59
33.7494,526.21,493.67
33.7699,527.57,500.53
33.7904,526.85,506.63
33.8109,524.28,512.3
33.8353,522.03,516.24
33.8558,519.62,519.19
33.8763,516.1,520.55
33.8968,514.08,520.64
33.9172,512.06,520.52
33.9377,509.85,519.61
33.9623,509.28,516.89
33.9829,507.62,516.51
34.0033,506.5,515.61
34.0238,505.8,515.29
34.0443,505.04,515.63
34.0689,504.23,515.7
34.0896,504.59,517.56
34.1098,506.27,520.05
34.1302,506.01,523.84
34.1509,505.61,527.07
34.1711,504.49,529.06
34.1958,503.99,532.05
34.2163,504.19,533.04
34.2368,502.95,532.43
34.2573,502.56,531.54
34.2777,502.85,530.04
34.3021,501.68,527.03
34.3228,500.74,523.82
34.3433,501.2,522.06
34.3637,500.96,519.05
34.3842,500.17,517.24
34.4047,500.33,516.39
34.4292,502.07,517.11
34.4498,501.85,517.09
34.4703,502.08,520.47
34.4908,502.47,523.58
34.5112,502.77,527.46
34.5356,503.22,530.37
34.5562,502.17,531.9
34.5767,501.74,532.12
34.5972,500.99,532.69
34.6175,499.79,531.75
34.6382,498.43,529.4
34.6627,499.15,527.52
34.6832,499.12,525.22
34.7037,500.29,521.57
34.7242,501.24,520.66
34.7447,499.99,519.33
34.7651,500.19,516.26
34.7896,499.75,517.01
34.8103,500.8,518.41
34.8308,501.64,520.73
34.8512,503.11,522.58
34.8717,504.29,525.26
34.8961,505.03,527.21
34.9167,505.03,529.97
34.9373,504.42,529.78
34.9577,504.74,529.42
34.9781,503.79,531.54
34.9987,503.63,530.63
35.023,503.51,526.5
35.0436,501.8,523.4
35.064,500.84,523.52
35.0846,502.07,521.82
35.105,502.46,522.25
35.1295,502.17,523.2
35.15,501.93,524.96
35.1707,502.35,528.17
35.191,502.48,532.74
35.2116,502.78,534.19
35.2321,503.83,540.95
35.2566,502.86,543.56
35.2772,502.69,543.65
35.2974,501.95,547.32
35.318,501.16,548.26
35.3386,501.73,548.2
35.3629,502.98,544.96
35.3835,501.99,542.17
35.404,500.99,542.14
35.4246,500.79,536.51
35.445,501.43,540.01
35.4656,501.35,538.61
35.49,501.88,542.68
35.5105,502.3,547.15
35.5311,503.04,548.72
35.5514,502.83,549.37
35.572,504.27,549.3
35.5964,506.61,550.04
35.6169,512.89,550.03
35.6375,516.71,548.43
35.6579,517.97,547.14
35.6783,518.18,542.31
35.6989,517.94,537.45
35.7234,517.55,532.16
35.7439,516.24,526.73
35.7644,514.39,521.98
35.7849,513.71,517.79
35.8054,512.77,514.43
35.8258,512.02,510.14
35.8505,511.61,507.71
35.871,511.89,505.57
35.8914,510.51,505.26
35.9119,509.01,506.81
35.9323,508.01,508.44
35.957,508.41,511.16
35.9773,508.73,514.92
35.9979,507.38,517.14
36.0184,507.9,520.71
36.0388,507.52,521.17
36.0593,507.02,522.54
36.0839,504.62,524.43
36.1043,503.89,521.74
36.1248,502.91,519.79
36.1453,502.73,517.04
36.1659,502.78,515.63
36.1903,502.03,514.1
36.2108,502.62,511.88
36.2313,502.7,511.31
36.2518,503.36,512.04
36.2723,502.69,512.24
36.2928,503.35,514.19
36.3173,503.28,517.15
36.3378,503.62,519.92
36.3583,503.7,522.54
36.3789,503.96,524.83
36.3992,503.57,526.66
36.4238,503.65,526.73
36.4443,502.92,525.38
36.4648,502.34,522.91
36.4853,501.47,519.93
36.5058,502.38,517.94
36.5262,501.9,515.35
36.5507,502.52,514.08
36.5713,500.82,514.27
36.5917,501.05,513.61
36.6122,502.64,513.89
36.6327,504.11,514.51
36.6572,504.89,517.41
36.6777,504.51,520.33
36.6982,504.81,524.06
36.7187,505.25,527.85
36.7393,504.4,528.28
36.7598,504.32,530.22
36.7842,503.46,531.38
36.8048,504.76,530.7
36.8253,503.61,529.16
36.8457,503.29,527.73
36.8663,504.23,526.58
36.8867,502.79,523.87
36.9113,501.43,519.89
36.9317,502.74,518.52
36.9522,502.79,517.21
36.9727,503.04,518.17
36.9932,503.03,536.74
37.0176,503.42,567.39
37.0382,504.74,585.91
37.0588,507.79,627.33
37.0792,507.83,654.06
37.0997,509.47,662.85
37.1201,513.17,650.08
37.1447,515.34,625.06
37.1653,514.87,593.05
37.1856,513.3,560.44
37.2061,511.64,532.35
37.2266,509.71,519.88
37.2511,507.17,521.31
37.2717,509.93,533.64
37.2921,502.35,564.52
37.3127,506.08,604.61
37.3331,510.06,621.69
37.3536,518.85,620.35
37.3781,524.48,603.68
37.3987,526.78,573.95
37.4191,525.43,542.96
37.4396,520.74,515.97
37.4601,515.99,495.37
37.4846,511.99,480.3
37.5052,508.2,472.64
37.5257,506.36,467.11
37.5461,504.49,464.49
37.5665,503.39,462.39
37.5871,500.51,460.11
37.6117,500.81,459.89
37.6321,500.45,461.91
37.6526,499.76,465.73
37.6731,498.81,468.78
37.6935,498.84,473.63
37.7181,498.88,478.7
37.7386,496.9,485.76
37.7591,495.32,492.41
37.7797,495.66,496.13
37.8001,498.93,502.1
37.8206,500.54,505.48
37.8451,499.43,508.59
37.8655,499.35,512.07
37.886,500.28,513.25
37.9066,500.62,515.6
37.927,499.3,515.68
37.9515,498.84,514.55
37.9721,501.67,514.04
37.9925,502.94,513.23
38.013,503.35,511.98
38.0336,503.08,510.79
38.054,503.46,512.03
38.0785,502.37,512.62
38.099,502.9,516.1
38.1195,504.52,518.68
38.14,505.81,520.74
38.1605,505.05,523.19
38.181,505.04,525.36
38.2055,504.23,525.48
38.226,503.99,527.19
38.2465,504.79,527.55
38.2672,504.63,527.44
38.2874,504.1,526.55
38.312,502.88,523.24
38.3324,502.31,520.59
38.353,503.45,518.47
38.3735,502.96,515.98
38.3939,502.17,514.78
38.4144,500.73,514.63
38.4389,501.39,515.5
38.4595,502.71,518
38.4799,504.37,519.6
38.5004,506.49,522.28
38.5209,505.79,525.62
38.5454,502.64,529.5
38.566,502.71,531
38.5864,503.77,531.8
38.6069,504.41,532.04
38.6274,504.13,529.43
38.6478,502.1,528.35
38.6725,500.28,525.08
38.6929,501.23,521.86
38.7135,501.98,519.89
38.7342,501.99,518.71
38.7544,501.59,517.57
38.7788,501.67,516.66
38.7993,502.94,516.52
38.8199,504.15,516.22
38.8403,505.32,518.58
38.8608,504.06,520.46
38.8814,504.04,523.77
38.9058,505.44,526.41
38.9264,505.75,528.33
38.947,505.4,531.87
38.9674,504.72,533.49
38.9878,504.98,531.99
39.0126,506.78,530.8
39.0329,504.62,527.04
39.0534,503.1,525.03
39.0738,502.48,524.02
39.0943,503.18,521.82
39.1149,503.95,518.45
39.1393,504.56,518.16
39.1599,503.05,516.53
39.1803,503.84,520.02
39.2009,505.67,523.02
39.2213,506.34,525.42
39.2417,506.87,528.33
39.2665,505.09,530.87
39.287,502.88,533.89
39.3074,502.7,533.11
39.328,502.36,533.09
39.3483,501.09,533.07
39.3728,500.27,531.46
39.3933,499.22,530.77
39.4139,499.77,528.21
39.4343,500.22,526.17
39.4548,499.57,525.34
39.4752,499.06,522.87
39.4998,498.05,521.5
39.5203,499.64,520.4
39.5408,499.51,522.12
39.5613,501.21,523.89
39.5817,501.57,525.71
39.6062,502.85,527.57
39.6267,504.08,529.26
39.6472,504.67,532.41
39.6679,503.93,534.12
39.6883,503.15,533.3
39.7087,503.72,532.44
39.7332,503.77,530.55
39.7537,503.82,528.84
39.7742,503.26,527.07
39.7947,502.2,524.46
39.8152,502.96,521.57
39.8396,503.37,520.65
39.8603,504.5,519.32
39.8808,504.6,517.66
39.9013,503.88,518.93
39.9217,504.5,520.54
39.9422,505.2,522.63
39.9666,505.96,527.11
39.9872,505.57,528.49
40.0077,503.66,530.39
40.0281,504.12,531.51
40.0486,505.1,533.21
40.0731,504.48,532.57
40.0936,503.38,531.65
40.1144,501.71,529.72
40.1347,500.97,527.98
40.1551,501.97,526.78
40.1756,503.58,525.03
40.2001,504.66,521.42
40.2207,503.93,519.34
40.2412,503.74,517.87
40.2617,503.2,520.3
40.2822,503.56,522.64
40.3026,503.64,524.31
40.3271,503.92,526.65
40.3476,504.73,529.12
40.3682,506.79,530.09
40.3887,506.83,531.88
40.4091,505.06,531.3
40.4336,504.05,531.24
40.4541,503.44,530.39
40.4746,501.95,528.31
40.495,501.96,527.25
40.5156,503.17,524
40.5361,503.14,523
40.5606,502.31,520.2
40.5812,502.85,518.36
40.6016,503.08,516.89
40.622,503.06,518.11
40.6425,503.85,519.69
40.667,505.28,521.15
40.6875,506.22,522.72
40.7082,506.98,524.78
40.7285,507.58,527.42
40.7491,507.07,562.54
40.7696,511.05,586.23
40.7941,514.84,619.98
40.8146,522.27,654.99
40.8351,517.62,700.59
40.8556,524.5,720.47
40.876,532.8,713.58
40.9005,538.84,683.26
40.9211,541.07,637.41
40.9415,541.26,593.13
40.9621,536.4,554.3
40.9826,531.72,531.84
41.003,524.18,520.67
41.0275,520.14,512.74
41.0481,518.91,569.39
41.0685,515.13,611.11
41.089,517.31,659.69
41.1095,529.44,675.55
41.134,535.76,664.44
41.1545,539.4,636.15
41.175,536.12,594.12
41.1954,529.3,548.7
41.2159,519.04,506.96
41.2365,510.63,476.17
41.2609,504.3,453.73
41.2816,498.64,440.39
41.3022,494.92,431.71
41.3224,493.73,427.97
41.3429,493.39,426.17
41.3634,494.71,427.94
41.388,495.17,432.75
41.4085,496.33,440.2
41.429,497.07,449.76
41.4495,498.25,457.81
41.4699,499.6,466.85
41.4944,500.08,474.88
41.5149,498.67,481.7
41.5354,496.53,486.96
41.5559,496.43,489.97
41.5764,497.14,491.18
41.597,497.31,491.74
41.6214,495.45,492.79
41.6419,494.96,494.43
41.6624,496.97,494.55
41.6829,499.17,496.64
41.7034,500.94,498.71
41.7279,501.35,500.37
41.7485,501.48,504.89
41.7689,503.19,510.52
41.7894,504.95,512.41
41.8099,504.76,515.33
41.8304,504.01,517.26
41.8548,501.81,520.61
41.8754,502.64,521.29
41.8959,505.92,522.43
41.9163,506.53,522.14
41.9369,503.83,521.32
41.9614,502.46,518.85
41.9819,501.77,516.88
42.0024,502.21,515.31
42.0228,499.57,512.64
42.0433,498.46,511.52
42.0638,498.57,513.41
42.0884,501.25,514.13
42.1089,503.4,515.9
42.1294,504.12,519.52
42.1499,502.9,523.62
42.1703,502.12,527.89
42.1948,501.89,530.52
42.2153,500.12,532.01
42.236,501.09,532.81
42.2563,500.27,531.65
42.2769,501.82,529.52
42.2972,501.26,528.41
42.3218,501,527.53
42.3423,499.6,525.03
42.3628,498.68,521.82
42.3832,500.55,519.46
42.4039,500.84,517.57
42.4282,500.47,517.05
42.4488,500.18,517.84
42.4694,500.74,519.87
42.4898,502.39,522.9
42.5103,501.51,526.12
42.5309,501.21,525.7
42.5552,503.37,524.96
42.5757,504.5,524.56
42.5962,502.8,523.65
42.6167,503.44,527.12
42.6373,501.75,525.7
42.6578,505.6,526.56
42.6822,505.48,527.25
42.7028,503.38,524
42.7232,508.31,521.2
42.7438,510.45,517.16
42.7641,509.56,513.33
42.7887,509.05,507.66
42.8092,513.24,509.53
42.8298,513.19,511.42
42.8502,517.55,513.94
42.8707,518.24,518.95
42.8913,518.99,523.36
42.9157,517.99,528.29
42.9362,514,531.43
42.9568,514,532.94
42.9772,513,533.56
42.9976,511.8,532.44
43.0221,511.04,529.56
43.0426,510.23,526.04
43.0631,507.98,521.64
43.0838,506.59,517.71
43.1042,506.07,513.77
43.1246,507.46,512.41
43.1492,511.36,512.53
43.1697,513.49,513.02
43.1901,515.19,514.62
43.2106,517.55,517.5
43.2311,516.44,521.4
43.2556,516.16,527.32
43.2761,515.32,537.65
43.2966,505.66,544.92
43.3171,488.33,547.74
43.3375,474.86,548.19
43.358,468.49,545.75
43.3826,466.19,541
43.4031,464.35,534.4
43.4236,465.68,529.12
43.444,468.55,523.7
43.4646,472.24,519.36
43.489,475.59,515.09
43.5096,479.67,513.47
43.5301,482.94,512.58
43.5505,487.15,513.66
43.571,490.52,515.33
43.5915,495.22,518.46
43.616,498.17,523.37
43.6366,501.34,527.9
43.6571,502.27,533.52
43.6775,502.82,537.61
43.698,502.85,540.09
43.7186,500.88,540.47
43.743,501.11,537.18
43.7636,500.88,531.74
43.7841,499.91,525.99
43.8045,499.93,520.4
43.825,501.14,514.52
43.8495,502.11,511.41
43.87,504.09,513.33
43.8905,506.67,516.66
43.911,507.14,528.13
43.9315,507.11,540.51
43.9519,506.89,547.8
43.9765,506.71,548.64
43.997,506.97,546.51
44.0175,506.37,577.01
44.0381,510.1,621.21
44.0584,494.88,654.17
44.083,507.9,691.53
44.1035,511.72,721.63
44.1241,516.78,708.3
44.1446,521.62,665.64
44.165,526.1,611.51
44.1857,529.88,562.01
44.21,529.9,516.81
44.2305,528.32,496.85
44.2509,523.06,523.28
44.2714,510.45,554.62
44.2919,509.76,557.5
44.3164,506.81,581.8
44.3369,502.84,610.04
44.3575,505.48,601.83
44.3779,509.78,566.06
44.3985,517.22,522.05
44.4189,522.58,482.84
44.4434,522.06,454.47
44.4639,518.85,435.98
44.4844,515.68,424.18
44.5049,510.54,417.55
44.5255,508.64,413.44
44.5499,505.11,413.75
44.5704,502.29,417.4
44.5909,499.43,423.12
44.6113,498.54,429.5
44.6318,498.03,436.2
44.6523,500.43,445.16
44.6769,503.54,454.93
44.6974,505.23,463.54
44.7178,507.59,474.03
44.7384,508.27,482.63
44.7588,510.42,489.9
44.7793,512.53,493.72
44.8038,514.43,496.98
44.8244,515.74,499.18
44.8448,515.39,498.75
44.8653,515.31,500.2
44.8858,513.85,500.56
44.9103,511.08,499.65
44.9309,511.46,496.92
44.9513,512.57,498.73
44.9718,513.86,499.39
44.9923,513.29,501.71
45.0128,511.83,505.97
45.0373,511.66,510.37
45.0578,514.93,515.7
45.0783,514.74,520.96
45.0988,512.6,524.77
45.1193,510.28,528.41
45.1438,509.82,531.73
45.1643,510.26,532.78
45.1848,508.61,532.23
45.2052,510.28,528.78
45.2257,524.83,525.43
45.2462,544.06,522.74
45.2708,557.25,519.59
45.2914,562.8,515.87
45.3119,561.44,514.5
45.3322,560.15,513
45.3528,558.72,513.4
45.3772,556.18,515.92
45.3979,551.74,518.14
45.4183,546.59,521.31
45.4388,543.07,524.85
45.4593,539.66,528.08
45.4797,537.73,529.66
45.5042,534.18,530.33
45.5248,529.55,530.66
45.5452,526.84,529.33
45.5659,523.87,527.26
45.5862,522.3,523.41
45.6107,519.84,519.33
45.6313,515.67,516.26
45.6518,512.34,512.61
45.6722,510.27,511.09
45.6927,511.41,509.67
45.7132,511.93,509.94
45.7376,511.35,511.35
45.7582,511.28,515.08
45.7787,512.22,518.26
45.7992,514.18,520.61
45.8197,514.74,523.89
45.8402,513.19,526.51
45.8646,512.95,527.41
45.8853,514.36,529.13
45.9057,510.89,531.7
45.9262,499.31,532.36
45.9466,480.85,526.69
45.9711,468.88,520.55
45.9916,462.9,514.84
46.0121,460.52,509.87
46.0329,458.82,506.7
46.0531,461.45,505.76
46.0736,464.76,505.81
46.0982,467.21,509.05
46.1186,473.17,512.24
46.1392,479.14,515.59
46.1597,484.31,518.07
46.1802,489.05,521.66
46.2047,491.04,524.73
46.2252,494.83,525.38
46.2457,496.46,526.3
46.2663,498.57,526.24
46.2866,497.66,524.79
46.3071,498.33,522.44
46.3316,499.46,518.95
46.3521,500.37,515.36
46.3726,499.29,512.49
46.3931,499.24,510.59
46.4137,501.99,510.27
46.438,504.19,511.42
46.4587,505.15,513.73
46.4792,505.32,517.59
46.4996,506.66,520.67
46.52,509.93,523.94
46.5405,511.94,525.95
46.565,512.55,528.76
46.5856,513.04,529.81
46.6061,513.23,530.65
46.6266,513.99,529.12
46.6471,513.99,526.89
46.6716,514.39,524.71
46.6921,511.71,520.17
46.7126,522.37,513.94
46.7331,540.3,508.55
46.7535,553.84,505.24
46.7742,561.87,504.39
46.7986,563.9,505.51
46.8192,562.92,507.01
46.8395,561.53,509.01
46.86,556.63,6.26246e-34
