Program Time [s],data 0,data 1
4.02879,461.65,355.32
4.02881,475.12,387.66
4.02882,482.3,410.32
4.02883,488.84,453.26
4.02884,488.67,517.01
4.02885,497.34,488.41
4.02886,497.87,473.52
5.54392,509.6,512.4
5.56448,506.28,511.52
5.58887,503.42,510.62
5.60943,505.94,510.69
5.62995,505.15,511.55
5.65041,501.32,512.64
5.67086,506.26,513.31
5.69534,513.01,515.25
5.71586,520.2,518.6
5.73638,522.76,520.88
5.75691,522.21,523.9
5.77744,523.77,527.72
5.79783,522.61,528.78
5.82234,520.89,528.62
5.84288,519.51,529.1
5.86346,512.41,527.28
5.88383,510.13,525.02
5.9045,506.9,521.82
5.92881,505.52,519.25
5.94942,501.82,517
5.96992,502.25,514.8
5.99037,502,513.04
6.01094,502.8,514.03
6.03135,501.44,514.83
6.05591,499.15,516.06
6.07644,497.32,520.65
6.0969,488.46,526.52
6.11742,482.97,531.02
6.13782,478.97,533.21
6.15832,477.98,533.97
6.18282,478.18,533.18
6.20334,479.35,531.14
6.22383,479.48,528.11
6.24435,479.58,523.89
6.26482,480.27,519.51
6.28928,481.61,515.01
6.30982,481.69,511.21
6.33036,483.15,508.77
6.35084,485.12,507.01
6.37139,487.5,505.81
6.3918,490,506.65
6.41635,491,509.92
6.43682,492.4,513.13
6.45729,492.92,516.31
6.47775,492.34,520.25
6.49829,491.67,524.2
6.52274,493.93,525.56
6.54335,493.95,526.25
6.56379,494.56,526
6.5843,494.65,523.4
6.60479,495.12,519.72
6.62535,496.69,516.57
6.64972,497.56,512.86
6.67028,497.64,511.09
6.69078,496.12,508.47
6.7113,496.49,507.58
6.73169,499.99,506.26
6.75624,508.8,507.01
6.77671,512.44,509.21
6.79725,514.55,512.37
6.81771,516.44,516.69
6.8383,517.75,521.95
6.8588,518.6,531.36
6.88322,518.68,549.29
6.90382,518.14,580.03
6.9243,515.12,608.83
6.94473,516.69,617.66
6.96524,516.15,605.73
6.98967,512.12,583.38
7.01017,512.3,560.11
7.03074,510.04,539.69
7.05122,506.83,526.95
7.0717,505.26,530.96
7.09213,504.81,550.17
7.11669,505.05,563.53
7.13723,503.64,558.23
7.15768,504.71,540.98
7.17819,506.57,521.59
7.19863,506.46,505.47
7.22309,504.76,491.97
7.24365,504.21,483.38
7.26414,503.57,477.7
7.2847,504.86,472.76
7.30516,503.08,468.81
7.32557,500.87,466.25
7.35013,500.09,465
7.37061,501.08,466
7.39116,500.06,467
7.4116,496.85,470.2
7.43215,501.48,468.36
7.45265,504.98,467.89
7.47709,507.19,470.11
7.49761,509.95,476.49
7.51809,510.96,482.79
7.53863,512.97,489.63
7.5591,511.17,497.11
7.58371,508.34,504.88
7.60414,508.27,509.71
7.62466,509.02,512.37
7.64513,507.61,514.49
7.66554,504.89,515.39
7.68603,500.71,515.12
7.71057,499.17,513.89
7.73107,499.34,512.51
7.75154,498.47,509.61
7.77209,495.98,507.29
7.7925,496.78,506.03
7.81706,496.02,505.63
7.83758,496.62,506.5
7.85817,497.5,510
7.87864,496.6,515.4
7.8991,498.88,520.92
7.9196,500.3,526.14
7.94411,500.04,530.71
7.96456,501.63,534.57
7.98502,502.31,536.45
8.00551,501.85,535.36
8.02598,499.68,535.29
8.05046,500.34,534.03
8.07106,499.07,530.63
8.09152,496.86,527.1
8.11206,495.89,523.68
8.13256,494.71,519.34
8.15302,493.17,516.48
8.17746,492.93,514.38
8.19807,491.35,513.9
8.21857,493.28,515.32
8.23901,494.82,518.66
8.25943,495.46,524.53
8.27995,495.77,531.62
8.30444,498.21,538.3
8.32498,497.97,540.84
8.34553,490.98,528.67
8.366,485.78,505.34
8.38645,480.62,479.87
8.411,477.1,455.1
8.43151,476.88,436.08
8.45206,475.9,427.46
8.47254,477.32,422.37
8.49306,481.26,421.9
8.51343,485.61,426.72
8.53794,488.09,433.77
8.55842,492.07,440.22
8.57892,495.05,449.57
8.59939,497.44,461.06
8.61987,498.96,465.25
8.64438,504.56,476.4
8.6649,502.25,481.32
8.6855,498.8,487.85
8.70592,497.44,490.48
8.72646,495.75,494.99
8.7469,494,496.19
8.77149,492.2,504.35
8.79195,493.76,531.08
8.81239,501.41,569.07
8.83285,509.33,605.85
8.85341,516.46,628.48
8.8779,522.37,631.79
8.89834,525.3,629.63
8.91888,525.24,619.3
8.93935,524.99,608.44
8.95987,523.39,595.95
8.98034,527.51,586.36
9.00484,525.01,575.29
9.02534,519.01,566.83
9.04586,515.01,557.07
9.06636,506.61,551.65
9.08682,502.88,544.72
9.10729,498.91,539.98
9.13187,497.33,533.38
9.15238,491.06,526.91
9.17282,492.05,520.12
9.19331,492.64,513.9
9.21377,492.51,508.72
9.23828,492.81,503.98
9.25879,493.05,498.78
9.27934,490.84,497.22
9.2998,492.47,499.98
9.32031,492.38,501.38
9.34086,498.5,505.71
9.36528,500,509.77
9.38591,498.8,516.01
9.4064,496.44,523.81
9.42679,498.15,528.05
9.44725,497.52,530.04
9.47178,495.02,530.63
9.49228,496.41,530.1
9.51277,495.33,528.28
9.53327,493.86,523.43
9.55378,492.29,518.34
9.57438,491.83,511.87
9.59875,490.47,505.9
9.61928,492.17,502.52
9.64001,492.14,502.42
9.66041,493.51,502.93
9.68079,494.41,504.35
9.7052,497.33,508.28
9.72582,500.26,512.02
9.74629,501.81,517.62
9.76674,502.45,521.69
9.78717,503.36,524.55
9.80771,502.69,526.44
9.83217,502.55,527.56
9.85274,502.44,526.24
9.87344,501.55,525.4
9.89377,500.04,522.72
9.91418,499.83,518.57
9.93864,498.67,514.06
9.95917,498.33,509.45
9.97988,498.27,505.56
10.0003,496.21,503.25
10.0207,496.97,502.4
10.0412,497.98,502.92
10.0657,499.98,506.33
10.0862,501.98,512.27
10.1066,501.79,517.01
10.1272,502.63,521.21
10.1477,503.1,524.77
10.1683,503.48,525.62
10.1927,504.79,526.89
10.2133,504.03,527.91
10.2337,504.82,529.53
10.2542,502.66,536.42
10.2746,501.33,555.94
10.2991,499.86,583.75
10.3197,498.09,592.8
10.3403,497.67,580.64
10.3608,497.74,561.31
10.3812,498.39,542.25
10.4016,500.31,531.4
10.4261,498.85,547.92
10.4466,498.88,567.14
10.4672,499.7,577.71
10.4877,500.36,569.17
10.5081,500.09,549.33
10.5326,500.07,528.47
10.5532,499.06,509.77
10.5736,498.25,494.22
10.5941,496.8,480.38
10.6147,497.44,471.5
10.635,497.75,465
10.6598,498.2,460.4
10.6802,496.76,456.92
10.7006,496.61,455.14
10.721,496.69,455.51
10.7417,495.55,458.01
10.766,495.64,462.01
10.7868,496.11,467.8
10.8071,498.09,476.04
10.8276,497.67,482.83
10.848,498.34,490.07
10.8685,499.27,498.85
10.893,499.62,505.48
10.9136,500.09,510.39
10.934,498.47,513.51
10.9545,497.78,515.61
10.975,497.82,514.49
10.9995,496.66,511.79
11.0201,496.33,510.43
11.0406,496.46,507.94
11.0611,496.57,505.56
11.0815,495.26,503.44
11.102,494.8,503.36
11.1267,499.04,504.08
11.147,504.43,506.67
11.1675,507.15,509.93
11.188,509.52,513.75
11.2085,509.21,517.6
11.2291,509.37,521.48
11.2534,509.5,524.98
11.274,508.4,526.39
11.2945,506.12,528.31
11.3149,505.69,527.85
11.3354,506.16,525.88
11.3599,505.12,523.7
11.3804,502.7,520.36
11.401,501.96,517.69
11.4215,499.97,514.15
11.442,499.37,511.92
11.4624,500.3,510.54
11.487,501.44,510.03
11.5075,501.95,511.42
11.5281,503.96,514.14
11.5484,504.37,517.71
11.569,506.9,522.17
11.5935,506.52,526.14
11.6139,505.61,528.51
11.6345,503.49,530.01
11.6549,501.99,530.01
11.6756,500.19,529
11.6959,498.96,526.8
11.7204,497.76,523.64
11.7409,498.41,520.51
11.7614,492.93,516.41
11.7819,489.54,511.93
11.8023,486.83,508.54
11.8269,486.67,507.23
11.8475,487.73,506.79
11.8679,487.39,508.03
11.8884,488.11,510.82
11.9089,489.69,513.86
11.9293,490.75,517.09
11.9539,491.8,520.87
11.9743,494.04,524.5
11.9948,495.83,525.8
12.0153,496.87,525.04
12.0359,498.29,523.23
12.0563,500.43,521.18
12.0808,499.55,518.15
12.1013,498.24,515.12
12.1218,497.59,511.29
12.1424,499.07,507.84
12.1628,497.46,504.47
12.1873,496.37,502.77
12.2079,494.89,502.62
12.2284,496.11,504.9
12.2488,496.69,508.32
12.2693,499.75,512.25
12.2899,500,516.4
12.3143,500.2,520.72
12.3349,501.16,523.98
12.3554,500.93,526.98
12.3758,499.34,526.79
12.3964,498.87,527.43
12.4207,497.7,526.14
12.4413,497.36,523.31
12.4618,497.09,520.05
12.4823,496.07,516.44
12.5028,497.26,512.15
12.5233,495.01,508.72
12.5477,496.4,506.58
12.5683,496.12,506.46
12.5888,495.7,506.57
12.6094,495.56,508.46
12.6298,496.45,511.96
12.6543,498.96,516.37
12.6748,499.17,520.1
12.6955,498.13,523.68
12.7159,497.71,526.34
12.7363,497.77,527.67
12.7567,496.41,527.74
12.7812,495.13,526.59
12.8017,491.7,524.67
12.8223,492.36,521.94
12.8427,492.49,518.75
12.8631,490.99,515
12.8877,491.39,511.2
12.9082,492.12,507.96
12.9288,492.49,506.57
12.9492,492.19,507.05
12.9697,493.55,508.64
12.9901,495.44,513.11
13.0147,498.36,518.09
13.0353,499.08,522.87
13.0559,499.07,526.9
13.0761,500.65,528.92
13.0967,502.12,529.74
13.1171,503.1,529.99
13.1417,501.28,528.99
13.1623,500.02,526.99
13.1827,502.82,524.19
13.2033,504.25,519.96
13.2237,503.2,515.96
13.2482,503.76,511.97
13.2687,502.41,508.98
13.2893,503.13,507.58
13.3097,503.1,508.07
13.3301,504.48,508.85
13.3506,504.99,511.68
13.3752,505.39,514.75
13.3957,504.91,518.2
13.4162,504.53,522.16
13.4367,504.42,524.93
13.4572,501.94,525.74
13.4816,500.35,526.79
13.5022,499.28,526.23
13.5228,499.02,524.19
13.5432,498.62,526.15
13.5636,494.9,534.32
13.5842,495.52,556.46
13.6086,495.61,581.76
13.6292,500.09,590.61
13.6497,502.87,579.89
13.6701,504.7,559.31
13.6906,506.16,542.25
13.7151,508.93,532.6
13.7356,510.14,536.28
13.7563,510.71,552.22
13.7766,508.77,563.18
13.7971,510.42,557.14
13.8177,511.73,540.51
13.8421,512.99,524.81
13.8626,510.39,510.85
13.8832,507.51,504.28
13.9037,505.61,499.02
13.9241,504.69,490.22
13.9446,502.75,481.58
13.969,500.6,472.86
13.9895,496.88,465.69
14.0101,495.9,461.95
14.0305,498.32,459.96
14.051,500.26,461.97
14.0755,499.81,465.57
14.096,500.25,471.66
14.1165,502,478.53
14.137,503.2,485.62
14.1576,501.36,492.7
14.178,502.29,498.16
14.2026,501.83,501.33
14.223,501.46,504.26
14.2435,501.97,506.61
14.264,501.58,506.89
14.2844,499.06,505.71
14.3089,498.65,504.57
14.3294,498.92,502.45
14.3499,497.54,502.16
14.3705,495.83,502.33
14.391,495.46,502.66
14.4116,495.97,504.13
14.4359,496.38,507.51
14.4565,496.5,513
14.477,496.4,518.6
14.4975,495.92,522.28
14.518,498.54,525.23
14.5425,498.83,527.98
14.5631,499.06,529.18
14.5834,499.65,530.15
14.6039,498.92,528.92
14.6244,496.94,526.93
14.6449,496.95,523.35
14.6694,495.96,519.88
14.6899,495.97,515.9
14.7104,494.97,511.32
14.731,493.38,508.06
14.7514,492.3,506.45
14.7719,492.64,506.56
14.7963,494.51,509.65
14.8169,496.41,511.92
14.8374,497.53,516.13
14.8579,499.42,520.31
14.8784,498.14,524.45
14.9029,498.71,528.16
14.9233,498.37,530.32
14.9439,496.89,531.06
14.9644,498.12,529.65
14.9848,497.89,527.12
15.0053,497.11,523.69
15.0298,496.49,521.16
15.0503,494.79,518.52
15.0709,494.23,514.42
15.0913,495.19,510.34
15.1118,495.75,508.07
15.1363,495,507.25
15.1568,495.4,508.6
15.1774,495.52,511.88
15.1979,495.82,515.11
15.2183,497.05,519.49
15.2388,499.24,522.59
15.2634,502.79,525.27
15.2839,504.04,526.82
15.3043,504.83,528.45
15.3249,504.66,528.16
15.3453,503.93,525.93
15.3698,501.74,522.74
15.3903,501.6,520.4
15.4109,499.48,516.72
15.4313,498.58,513.57
15.4518,497.86,510.66
15.4723,498.09,508.93
15.4969,497.47,509.34
15.5174,498.58,509.67
15.5379,499.26,511.34
15.5583,498.61,515.27
15.5787,499.09,518.02
15.6032,498.67,522.41
15.6238,498.94,525.33
15.6443,497.35,528.66
15.6648,497.28,529.33
15.6852,497.22,528.67
15.7058,496.98,526.53
15.7303,495.98,524.23
15.7509,496.39,520.58
15.7714,496.91,516.86
15.7917,495.73,513.29
15.8122,494.98,509.83
15.8367,496.39,507.67
15.8572,496.71,506.93
15.8777,497.17,507.35
15.8982,498.33,509.68
15.9186,499.07,513.34
15.9393,499.85,516.87
15.9637,501.88,520.1
15.9843,502.51,522.48
16.0047,502.8,524.78
16.0252,502.64,525.63
16.0458,502.12,525.5
16.0663,501.09,524.2
16.0908,498.67,521.36
16.1113,498.14,518.49
16.1319,501.11,515.99
16.1522,500.69,512.39
16.1726,500.75,509.11
16.1971,500.8,506.29
16.2177,500.44,505.83
16.2382,501.35,506.27
16.2587,501.68,508.21
16.2792,502.55,510.77
16.2996,503.24,514.82
16.3241,504.59,518.45
16.3447,503.87,522.16
16.3652,504.1,524.53
16.3857,503.48,526.02
16.4062,502.38,525.42
16.4307,501.91,524.94
16.4512,501.92,523.35
16.4718,500.14,521.28
16.4921,498.11,519.02
16.5126,498.69,518.02
16.533,498.95,526.41
16.5576,500.36,553.33
16.5783,502.09,591.27
16.5987,502.47,613.61
16.6192,503.18,613.69
16.6396,505.34,597.15
16.6641,506.47,579.32
16.6847,507.38,568.86
16.7051,508.5,570.09
16.7255,510.8,585.47
16.7462,509.64,598.57
16.7666,509.11,591.46
16.7911,508.69,568.57
16.8116,507.15,538.45
16.8322,505.12,509.36
16.8527,504.5,484.69
16.8731,502.2,466.75
16.8975,500.76,452.8
16.918,499.01,442.64
16.9387,498.81,437.31
16.9592,499.04,436.65
16.9795,498.64,440.12
17.0002,499.51,445.7
17.0246,499.81,454.56
17.0451,501.45,462.85
17.0656,500.96,471.48
17.086,501.57,480.18
17.1065,502.05,488.75
17.127,502.44,493.4
17.1515,501.75,496.72
17.1721,501.2,498.77
17.1926,500.76,499.82
17.2131,500.61,499.86
17.2335,499.49,498.88
17.258,497.99,497.31
17.2786,497.99,497.05
17.299,498.59,496.24
17.3195,498.48,497.19
17.34,497.98,499.55
17.3604,497.58,503.44
17.385,498.07,508.15
17.4055,500.45,512.92
17.426,499.96,517.34
17.4464,501.57,521.87
17.4671,500.26,525.3
17.4914,498.81,527.64
17.5122,498.44,528.11
17.5325,498.76,527.09
17.553,496.6,525.27
17.5735,495.08,522.82
17.594,493.87,518.25
17.6184,493.49,514.2
17.6389,493.99,510.76
17.6594,494.8,508.01
17.6799,495.24,507.01
17.7003,494.99,507.81
17.7208,496.59,510.44
17.7454,499.07,513.96
17.7661,500.26,517.56
17.7864,501.41,522.25
17.8069,500.13,526
17.8273,499.3,529.4
17.8519,500.24,530.32
17.8725,500.19,529.86
17.8929,499.55,529.29
17.9134,500.64,526.83
17.9338,500.91,523.66
17.9544,498.33,520.13
17.9788,497.67,516.9
17.9994,498.33,512.52
18.0198,497.87,509.02
18.0403,497.69,507.61
18.0608,498.55,507.69
18.0853,498.84,508.75
18.1058,499.07,512.4
18.1263,499.06,515.92
18.1468,499.05,518.74
18.1674,500.64,521.99
18.1879,499.71,524.79
18.2123,502.57,526.23
18.2328,504.65,525.59
18.2534,505.52,523.87
18.2738,505.42,521.7
18.2943,504.74,519.16
18.3187,505.19,516.93
18.3393,503.75,513.14
18.3598,503,509.31
18.3803,501.2,506.25
18.4009,501.36,505.6
18.4213,500.09,505.68
18.4457,500.67,507.14
18.4664,500.94,509.92
18.4867,501.75,513.53
18.5073,501.2,518.23
18.5277,500.96,521.98
18.5522,500.37,525.38
18.5728,501.09,528.11
18.5934,500.48,529.49
18.6137,500.38,529.59
18.6342,500.5,529.87
18.6547,498.4,529.7
18.6792,498.52,526.76
18.6997,497.42,524.21
18.7203,497.13,520.96
18.7407,497.71,517.37
18.7612,499.57,514.9
18.7817,499.85,513.92
18.8063,499.08,513.33
18.8268,500.27,515.87
18.8473,501.41,518.09
18.8677,502.73,522.68
18.8882,505.18,527.94
18.9127,506.95,540.75
18.9332,509.36,565.6
18.9538,512.29,592.48
18.9741,511.43,601.59
18.9947,510.74,591.87
19.0152,508.19,573.09
19.0397,506.16,554.68
19.0602,505.12,542.14
19.0807,504.5,547.91
19.1012,501.6,557.13
19.1217,501.28,552.5
19.1462,500.02,535.8
19.1667,499.42,515.84
19.1872,498.34,496.67
19.2077,498.67,483.74
19.2281,498.13,475.59
19.2486,497.51,471.87
19.2731,496.81,470.7
19.2938,496.44,471.56
19.3144,496.36,473.65
19.3349,494.88,474.32
19.3551,493.91,475.85
19.3797,494.53,477.28
19.4002,495.42,478.03
19.4207,494.54,478.22
19.4412,494.43,478.18
19.4616,493.94,478.74
19.4821,493.95,477.79
19.5067,495.16,480.43
19.5272,496.33,483.15
19.5476,497.46,487.92
19.568,498.17,493.73
19.5886,499.14,500.39
19.6131,500.11,507.11
19.6338,501.49,513.29
19.6542,502.79,518.03
19.6746,501.63,521.62
19.6951,501.31,522.5
19.7155,498.24,521.8
19.74,498,520.84
19.7605,497,518.27
19.781,496.2,516.02
19.8015,494.76,513.61
19.8221,493.81,510.89
19.8425,492.65,508.31
19.867,491.72,507.05
19.8875,492.57,506.84
19.908,494.06,507.87
19.9285,495.65,511.1
19.9491,496.72,515.88
19.9735,496.97,520.1
19.9942,499.38,523.28
20.0146,499.7,525.83
20.0351,498.56,528.66
20.0555,498.45,529.33
20.0759,497.96,529.26
20.1005,497.57,527.41
20.121,497.45,524.73
20.1415,495.96,520.38
20.162,492.97,516.91
20.1825,493.58,513.72
20.207,493.46,511.38
20.2275,493.37,509.5
20.248,493.9,508.6
20.2685,495.32,508.28
20.289,496.45,510.23
20.3094,497.16,513.18
20.3341,497.73,517.34
20.3546,498.58,521.88
20.375,497.07,526.3
20.3954,498.05,528.64
20.4159,499.04,528.91
20.4403,499.83,528.93
20.4609,498.27,526.94
20.4815,498.01,523.96
20.502,497.81,520.36
20.5226,496.45,516.09
20.5429,495.16,512.27
20.5674,495.93,508.42
20.5879,497.34,505.33
20.6085,497.47,504.27
20.6289,497.78,505.81
20.6494,497.02,507.45
20.6699,497.62,510.96
20.6945,498.69,513.97
20.715,499.16,518.38
20.7353,499.32,522.5
20.7559,497.66,526.8
20.7764,498.33,527.04
20.8008,498.06,527.03
20.8215,497.25,526.23
20.8419,497.4,523.58
20.8623,495.52,521.06
20.8829,492.62,518.45
20.9035,494.29,513.76
20.9279,496.23,509.21
20.9487,497.79,506.37
20.9689,496.63,506.09
20.9894,497.7,506.68
21.0098,499.56,507.94
21.0344,499.25,511.75
21.0548,499.6,515.6
21.0753,500.68,519.08
21.0959,501.54,523.67
21.1163,501.84,527.33
21.1368,501.47,528.27
21.1614,502.57,529.41
21.182,501.86,528.53
21.2024,501.09,527.82
21.2228,501.47,529.06
21.2433,502.98,541.25
21.2678,503.78,567
21.2882,502.22,590.4
21.3088,501.38,598.72
21.3293,502.3,589.17
21.3499,500.84,568.54
21.3703,499.67,548.83
21.3947,499.94,536.47
21.4152,499.75,534.97
21.4358,499.6,548.98
21.4564,500.28,568.18
21.4767,501.42,571.75
21.5013,502.34,560.2
21.5218,502.87,540.56
21.5423,504.1,521.05
21.5628,503.28,502.84
21.5834,500.62,486.87
21.6039,497.9,474.9
21.6283,497.72,466.12
21.6487,496.57,460.49
21.6693,496.46,456.39
21.6897,495.37,455.92
21.7102,497.09,458.33
21.7308,500.88,462.07
21.7553,499.9,468.25
21.7757,500.32,476.2
21.7962,500.86,484.36
21.8167,500.29,491.49
21.8372,499.23,498.19
21.8616,497.78,502.15
21.8823,498.23,505.52
21.9028,497.18,508.62
21.9232,499.54,511.09
21.9436,499.64,511.08
21.9641,498.91,509.26
21.9887,497.73,507.81
22.0092,496.18,505.65
22.03,495.35,504.92
22.0503,495.68,505.73
22.0708,497.94,505.59
22.0951,498.15,506.47
22.1157,499.72,509.18
22.1362,501.18,512.34
22.1568,501.34,516.87
22.1772,501.47,521.5
22.1976,499.18,525.2
22.2221,498.54,527.56
22.2427,500.23,527.65
22.2631,498.59,527.72
22.2836,496.87,526.97
22.3043,494.9,524.18
22.3286,494.32,520.54
22.3492,494.85,516.83
22.3697,494.88,512.27
22.3903,492.51,508.81
22.4106,492.8,507.05
22.4311,493.84,506.84
22.4555,495.08,507.67
22.4761,496.06,509.54
22.4967,496.45,513.03
22.5172,498.96,516.02
22.5376,500.17,520.62
22.558,498.93,526.1
22.5826,499.15,528.68
22.603,497.92,530.34
22.6236,498.13,530.47
22.644,496.91,529.38
22.6646,496.13,527.1
22.689,496.1,522.88
22.7096,495.88,519.91
22.7301,493.7,514.92
22.7507,492.76,510.54
22.7712,494.61,507.83
22.7915,494.89,506.67
22.8161,494.31,506.53
22.8365,494.25,508.43
22.857,495.8,512.34
22.8776,496.64,515.67
22.8979,495.91,518.94
22.9224,496.33,521.75
22.943,498.26,524.2
22.9635,498.81,525.56
22.984,496.85,525.45
23.0045,495.48,525.16
23.0249,495.78,523.33
23.0495,496.23,519.66
23.07,495.38,515.53
23.0906,493.5,511.22
23.111,492.4,506.78
23.1316,492.12,505.22
23.156,492.7,504.18
23.1764,494.36,503.94
23.1971,495.09,504.95
23.2174,496.87,508.56
23.238,498.5,512.85
23.2584,499.4,516.88
23.2829,499.92,520.3
23.3035,500.73,522.64
23.3239,499.39,524.51
23.3444,497.91,525.01
23.3649,498.13,525.21
23.3894,498.5,524.37
23.4099,499.2,520.89
23.4304,498.36,517.32
23.4509,498.09,514.25
23.4714,497.07,510.4
23.4919,497.46,507.92
23.5164,496.97,507.14
23.537,498.37,506.11
23.5575,499.1,506.89
23.578,499.68,509.51
23.5985,500.54,513.61
23.6189,499.03,521.09
23.6434,498.63,531.87
23.6639,499.7,561.5
23.6844,500.36,593.4
23.7049,500.29,606.52
23.7253,503.03,598.61
23.7499,506.43,578.29
23.7706,507.34,555.83
23.7909,508.27,537.27
23.8113,505.62,520.41
23.8318,504.69,522.93
23.8525,504.96,543.14
23.8769,506.76,553.32
23.8975,508.81,544.05
23.918,508.65,527.24
23.9384,507.72,511.39
23.9588,507.18,498.31
23.9833,505.94,488.65
24.0039,505.75,483.12
24.0243,505,480.3
24.0449,504,477.84
24.0653,500.8,477.87
24.0858,501.04,477.7
24.1103,499.63,478.36
24.1309,498.91,478.69
24.1513,497.73,478.35
24.172,496.18,478.48
24.1923,496.14,477.58
24.2169,495.32,477.27
24.2374,494.85,478.61
24.2578,495.28,480.89
24.2783,498.23,484.71
24.2988,499.78,489.97
24.3194,500.62,495.98
24.3438,500.7,502.78
24.3644,501.56,508.62
24.3848,502.05,513.1
24.4053,503.44,518.48
24.4258,501.35,520.78
24.4464,499.48,522.03
24.4707,498.38,521.62
24.4913,498.31,519.7
24.5119,496.45,518.36
24.5322,495.16,515.69
24.5528,494.33,511.55
24.5772,495.06,508.24
24.5977,495.65,507.39
24.6183,494.72,507.11
24.6387,494.17,507.89
24.6592,496.74,509.31
24.6797,498.99,512.05
24.7042,500.19,515.44
24.7248,499.15,519.15
24.7452,501.12,521.92
24.7659,503.3,524.74
24.7862,503.24,526.39
24.8108,499.59,526.31
24.8312,498.67,525.65
24.8517,498.14,523.72
24.8722,497.91,519.78
24.8926,498.13,516.02
24.9131,495.7,512.22
24.9376,494.16,508.97
24.9582,491.33,505.98
24.9788,491.46,503.78
24.9991,493.37,504.43
25.0196,495.3,506.74
25.0442,493.64,510.79
25.0647,492.71,515.23
25.0852,493.17,519.59
25.1058,493.93,523.07
25.1261,495.95,527.06
25.1467,496.16,530.44
25.1711,497.13,531.36
25.1917,498.5,530.08
25.2121,496.4,527.87
25.2326,496.32,526.09
25.2531,495.46,523.28
25.2776,494.97,519.62
25.298,493.77,516.3
25.3186,494.82,512.84
25.3391,494.05,510.47
25.3595,494.04,509.78
25.38,493.23,510.82
25.4048,494.19,513.06
25.4251,495.95,516.65
25.4456,496.96,520.12
25.4662,497.17,523.69
25.4865,498.33,525.75
25.5072,500.27,527.4
25.5316,502.01,526.92
25.5521,501.81,526.14
25.5726,501.85,524.51
25.5931,500.88,521.01
25.6136,499.3,518.01
25.638,500.64,514.21
25.6585,498.91,509.96
25.6791,498.53,506.37
25.6995,498.03,504.7
25.72,498.42,504.16
25.7405,500.74,505.33
25.7649,501.19,507.86
25.7855,503.55,511.89
25.806,504.84,515.91
25.8265,503.87,520.93
25.8469,502.5,524.34
25.8714,502,527.07
25.8921,501.2,527.66
25.9126,501.16,527.13
25.9331,502.33,524.1
25.9535,500.66,520.88
25.974,499.33,519.31
25.9984,498.26,519.64
26.019,498.41,534.72
26.0396,500.13,565.77
26.06,498.9,586.02
26.0804,497.12,586.61
26.105,497.9,572.69
26.1255,498.12,556.95
26.146,499.09,544.76
26.1665,498.88,538.61
26.187,499.3,553.29
26.2074,500.24,576.63
26.2319,500.79,584.7
26.2525,501.43,571.56
26.273,501.15,547.25
26.2937,501.92,520.6
26.314,502.13,499.08
26.3344,501.51,481.66
26.359,500.61,469.13
26.3796,501.68,459.91
26.4,502.75,454.12
26.4205,502.4,452.1
26.441,500.92,453.28
26.4654,499.33,457.62
26.4859,499.47,462.1
26.5064,499.77,469.68
26.5269,501.02,477.34
26.5474,501.82,485.07
26.5678,503.05,492.26
26.5924,504.24,499.21
26.6131,503.39,503.97
26.6335,502.51,506.37
26.654,502.01,508.1
26.6745,501.41,508.68
26.6989,500.73,508.34
26.7194,499.58,506.87
26.7399,499.27,505.5
26.7604,496.81,505
26.7809,496.05,503
26.8013,498.24,503.4
26.8259,497.79,504.12
26.8464,497.63,506.9
26.8668,498.11,510.32
26.8874,499.69,514.05
26.9078,499.75,518.84
26.9326,499,523.07
26.9529,499.2,526.26
26.9735,501.16,528.41
26.9939,501.53,528.13
27.0143,499.62,526.9
27.0348,498.7,524.52
27.0593,498.16,522.02
27.0798,497.73,519.01
27.1004,496.18,515.01
27.121,496.14,511.41
27.1414,495.12,508.53
27.1619,495.89,507.22
27.1862,496.71,506.58
27.2068,496.97,507.26
27.2274,499.38,510.01
27.2478,499.5,513.61
27.2684,498.8,517.89
27.2927,499.24,521.51
27.3133,499.19,524.81
27.3339,499.35,525.85
27.3543,499.68,525.68
27.3747,499.35,524.74
27.3953,499.48,523.59
27.4198,499.58,521.67
27.4403,498.67,519.54
27.4608,497.73,515.43
27.4813,497.19,511.95
27.5017,497.55,508.76
27.5261,498.04,506.41
27.5467,498.23,505.92
27.5672,499.99,507.14
27.5876,500.39,509.51
27.6082,501.31,512.41
27.6286,501.85,516.53
27.6532,502.28,521.02
27.6737,504.02,524.02
27.6942,504.02,526.01
27.7147,503.01,526.61
27.7351,501.81,526.29
27.7596,500.85,524.63
27.7801,499.88,522.5
27.8008,497.7,518.8
27.8213,497.36,515.84
27.8417,497.29,511.87
27.8623,496.03,509.5
27.8867,497.03,507.8
27.9072,497.42,506.04
27.9277,496.14,507.03
27.9482,496.91,510.03
27.9687,497.53,513.42
27.9932,498.02,517.54
28.0137,498.82,520.83
28.0341,499.05,524.26
28.0547,498.44,526.21
28.0751,496.95,526.97
28.0957,497.16,527.17
28.1203,496.93,526.14
28.1406,496.54,524.11
28.1613,494.64,520.89
28.1817,494.31,516.71
28.2021,494.45,513.57
28.2227,495.36,509.66
28.2472,495.69,507.12
28.2677,495.35,505.9
28.2882,495.88,506.32
28.3086,497.9,508.06
28.3292,499.72,511.84
28.3537,499.58,515.88
28.374,499.26,519.7
28.3946,498.41,523.36
28.4151,499.33,525.69
28.4356,499.46,526.95
28.4561,497.77,528.36
28.4807,497.22,528.09
28.5012,496.97,525.67
28.5216,496.58,522.74
28.542,497.06,519.39
28.5625,495.85,515.71
28.587,494.48,512.17
28.6077,494.38,509.54
28.6281,494.31,508.03
28.6486,494.25,508.42
28.6691,494,510.74
28.6896,496,513.99
28.714,497.8,517.39
28.7346,498.04,521.71
28.755,498.43,527.17
28.7755,497.54,544.34
28.7961,495.64,578.47
28.8205,489.31,626.98
28.8411,483.25,660.78
28.8616,478.2,672.82
28.882,478.56,666.46
28.9026,480.65,646.77
28.9229,485.52,626.61
28.9474,489.41,616.69
28.968,496.53,624.55
28.9885,504.42,627.24
29.0091,511.94,611.39
29.0295,518.95,576.72
29.0541,522.36,531.77
29.0745,524.09,488.42
29.0951,524.67,455.53
29.1155,524.14,435.03
29.136,524.11,424.42
29.1565,522.89,419.74
29.1811,518.91,419.39
29.2014,515.13,421.11
29.222,514.3,424.69
29.2425,513.24,428.15
29.2629,511.19,432.92
29.2834,508.55,436.94
29.3079,507.04,441.35
29.3285,505.24,445.68
29.3489,504.99,450.54
29.3695,502.19,456.84
29.3899,499.95,463.47
29.4144,500.56,470.97
29.4349,499.25,479.18
29.4554,498.6,486.34
29.4759,498.68,494.27
29.4964,500.14,500.62
29.5169,501.12,506.5
29.5413,500.29,511
29.5619,498.03,512.6
29.5824,496.23,513.68
29.6029,495.78,512.54
29.6233,493.63,510.63
29.6479,493.3,509.11
29.6684,494.84,507.49
29.6889,496.07,505.19
29.7094,496.26,504.55
29.7299,495.81,504.84
29.7503,496.45,506.07
29.7748,498.16,509.26
29.7953,500.32,512.41
29.8159,500.26,516.53
29.8363,499.61,520.82
29.8569,501.29,524.06
29.8813,503.03,526.44
29.9019,503.02,527.56
29.9224,501.02,528.24
29.943,498.41,527
29.9635,498.73,524.4
29.9838,498.19,521.52
30.0084,499.35,517.81
30.0289,497.28,514.65
30.0493,495.62,510.52
30.0698,496.1,508.02
30.0903,495.28,507.01
30.1147,496.22,507.41
30.1353,496.58,509.93
30.1559,497.46,513.14
30.1765,499.57,516.91
30.1968,499.66,520.93
30.2173,499.92,524.75
30.2417,498.74,527.6
30.2623,496.99,529.48
30.2828,495.79,530.38
30.3033,495.23,530.71
30.3239,495.39,528.76
30.3443,495.11,524.81
30.3688,493.49,521.65
30.3894,493.99,518.52
30.4097,493.99,514.82
30.4302,493.59,512.85
30.4508,494.08,512.08
30.4752,494.66,512.27
30.4958,497.93,513.21
30.5162,498.54,515.57
30.5367,499.43,518.66
30.5571,500.95,522.32
30.5777,501.56,525.46
30.6022,501.45,527.17
30.6227,500.76,528.73
30.6432,500.01,528.99
30.6637,499.6,527.99
30.6841,498.68,525.99
30.7087,497.55,522.39
30.7291,496.44,518.51
30.7498,496.35,515.21
30.7703,494.68,512.57
30.7907,493.54,510.86
30.8112,494.64,510.28
30.8356,495.11,511.83
30.8563,495.89,513.06
30.8767,496.71,517.05
30.8972,497.57,521.24
30.9176,499.05,525.19
30.9421,500.24,529.15
30.9626,499.99,533.32
30.9832,499.6,534.66
31.0037,498.68,534.33
31.0242,496.74,533.06
31.0446,497.99,530.65
31.0692,497.59,530.32
31.0896,496.28,531.26
31.1101,496.62,558.4
31.1306,497.9,602.72
31.1511,500.32,635.58
31.1716,504.25,644.66
31.1962,505.8,630.53
31.2167,507.24,605.42
31.2372,508.59,585.34
31.2576,508.88,568.87
31.2781,510.1,573.9
31.3026,508.08,594.92
31.3231,508.66,598.13
31.3436,510.13,573.31
31.364,510.91,533.25
31.3846,510.72,496
31.405,507.58,465
31.4296,505.66,443
31.4501,504.53,428.2
31.4707,503.02,419.76
31.491,501.42,415.41
31.5116,500.14,414.73
31.5361,499.31,417.78
31.5567,499.85,424.02
31.5771,499.88,434.22
31.5976,499.1,445.38
31.618,498.08,457.5
31.6384,499.67,468
31.6631,500.93,478.2
31.6836,500.55,487.16
31.704,499.04,494.53
31.7245,499.03,499.22
31.745,500.42,502.58
31.7694,501.94,504.26
31.7901,500.95,504.61
31.8105,497.96,504.29
31.831,496.57,503.43
31.8516,496.85,501.94
31.872,497.88,500.16
31.8966,497.51,500.32
31.917,494.81,501.06
31.9375,494.24,502.25
31.958,495.8,505.2
31.9784,497.24,509.36
32.0029,497.99,514.89
32.0235,497.59,519.31
32.044,498.47,521.85
32.0646,498.78,524.08
32.085,498.22,525.26
32.1055,497.18,525.61
32.1302,494.54,524.29
32.1504,494.63,522.43
32.171,495.91,519.34
32.1915,496.13,515.68
32.212,495.5,512.34
32.2324,495.8,509.27
32.257,496.64,507.42
32.2774,496.31,506.93
32.2979,495.85,507.35
32.3184,494.48,510.08
32.3388,494.78,513.86
32.3633,496.43,517.69
32.384,496.94,522.15
32.4045,496.95,525.92
32.425,496.56,527.94
32.4454,497.25,527.15
32.4659,496.4,526.12
32.4904,494.32,525.9
32.511,493.86,523.92
32.5314,494.08,520.53
32.552,495.07,516.83
32.5723,494.65,513.26
32.5968,495.32,509.41
32.6174,494.26,506.73
32.638,493.81,504.78
32.6584,494.45,503.23
32.6789,494.96,503.98
32.6994,496.17,506.58
32.7239,498.13,511.07
32.7444,498.71,515.25
32.7649,499.56,519.8
32.7854,500.65,523.04
32.8058,499.92,525.03
32.8302,499.54,525.63
32.8509,499.23,525.1
32.8714,498.78,522.88
32.8919,499.63,520.11
32.9125,498.3,517.48
32.9328,497.84,514.59
32.9573,497.67,511.27
32.9779,497.14,508.02
32.9984,497.11,506.01
33.0188,496.09,505.41
33.0393,496.27,506.13
33.0599,496.62,508.9
33.0844,496.49,511.52
33.1048,496.79,515.22
33.1253,497.44,518.77
33.1457,498.95,522.22
33.1663,498.36,523.98
33.1907,498.29,524.98
33.2113,497.63,524.78
33.2319,495.9,523.23
33.2523,495.92,520.38
33.2729,495.14,517.51
33.2934,495.11,515.4
33.3177,495.09,511.52
33.3383,496.07,509.02
33.3587,495.46,507.82
33.3793,495.17,506.65
33.3998,495.73,506.72
33.4243,497.99,508.58
33.4447,500.99,511.46
33.4652,501.39,514.77
33.4858,501.91,519.22
33.5062,501.93,522.17
33.5268,501.14,525.14
33.5512,501.32,526.31
33.5717,500.45,528.05
33.5924,500.16,529.44
33.6127,498.13,536.75
33.6332,498.7,556.4
33.6576,501.76,579.52
33.6782,502.41,589.82
33.6987,503.33,581.25
33.7192,505.06,561.2
33.7397,506.65,540.96
33.7602,506.52,522.57
33.7846,506.42,508.66
33.8052,504.73,499.32
33.8256,504.39,493.46
33.8461,505.31,491.17
33.8667,505.45,493.53
33.8912,507.76,503.83
33.9118,507.61,525.26
33.9323,507.09,551.01
33.9528,508.47,560.61
33.9732,508.97,551.89
33.9937,506.58,535.71
34.018,504.66,518.57
34.0387,502.53,502.65
34.0592,502.02,489.32
34.0797,500.22,480.46
34.1001,499.38,473.97
34.1246,498.5,473.17
34.1451,498,473.54
34.1657,498,476.03
34.1861,498.6,481.42
34.2066,497.88,486.74
34.227,499.3,492.39
34.2516,500.24,497.31
34.2722,497.99,502.65
34.2926,496.6,505.92
34.3131,495.88,507.54
34.3337,495.5,508.23
34.354,495.4,507.58
34.3786,495.72,506.67
34.3992,495.18,504.53
34.4196,494.94,501.83
34.44,494.75,500.26
34.4605,495.2,500.21
34.4851,494.36,501.97
34.5055,494.49,504.77
34.5261,496.19,508.02
34.5465,497.35,512.42
34.567,499.08,515.93
34.5874,499.87,519.95
34.6121,501.89,523.96
34.6326,500.51,527.37
34.6532,499.61,528.69
34.6735,498.69,528.35
34.6941,498.55,526.68
34.7185,498.04,523.75
34.7391,496.63,518.8
34.7596,497.11,514.84
34.7801,497.09,511.47
34.8008,497.67,508.98
34.8211,498.33,507.58
34.8455,498.27,508.46
34.866,498.01,508.97
34.8865,498.61,511.78
34.907,500.09,515.22
34.9277,500.67,518.58
34.952,500.34,522.06
34.9726,499.67,525.85
34.9932,499.94,527.68
35.0134,498.55,527.74
35.0339,498.64,528.4
35.0544,497.51,526.52
35.079,497.21,523.01
35.0995,495.37,519.01
35.1199,499.09,516.41
35.1406,500.07,513.73
35.1609,501.86,510.58
35.1815,499.69,507.87
35.206,499.35,507.29
35.2268,499.88,507.83
35.2469,501.7,509.27
35.2676,503.16,512.41
35.2879,503.13,515.53
35.3125,502.7,519.42
35.333,501.76,523.34
35.3534,500.21,525.87
35.3739,499.57,526.9
35.3944,498.46,526.92
35.4149,497.56,525.93
35.4395,495.05,522.95
35.4601,494.64,519.56
35.4806,495.11,516.05
35.5009,492.29,512.24
35.5213,490.43,508.79
35.5459,488.35,506.23
35.5664,488.68,505.39
35.587,489.74,506.11
35.6074,489.79,507.29
35.6278,491.23,510.63
35.6483,492.79,515.1
35.6728,493.83,519.48
35.6933,494.86,523.79
35.7139,495.89,529.03
35.7343,495.71,535.82
35.7548,496.17,554.46
35.7795,497.54,582.17
35.8,499.43,594.53
35.8204,500.34,586.43
35.8408,500.47,568.94
35.8614,498.78,551.15
35.882,497.22,534.72
35.9063,497.78,536.78
35.9268,499.82,557.42
35.9473,501.26,572.74
35.9678,505.21,571.99
35.9883,508.17,556.19
36.0127,510.33,536.95
36.0333,509.87,520.76
36.0538,508.89,506.21
36.0744,508.11,494.77
36.095,507.09,485.01
36.1154,506.67,480.21
36.1398,504.14,477.17
36.1604,501.91,474.74
36.1807,500.53,473.39
36.2012,500.02,472.31
36.2217,499.02,471.45
36.2423,496.81,471.56
36.2667,495.85,472.65
36.2873,496.48,474.92
36.3079,495.99,478.13
36.3282,495.59,482.71
36.3487,496.87,488.77
36.3732,497.7,494.21
36.3937,501.36,501.57
36.4142,502.29,508.46
36.4347,502.23,513.16
36.4553,502.38,516.93
36.4757,500.91,518.95
36.5003,499.53,519.96
36.5209,498.22,519.17
36.5415,497.18,516.93
36.5617,495.74,513.95
36.5822,496.19,510.76
36.6067,496.35,507.01
36.6273,496.08,504
36.6477,495.67,503
36.6682,497.33,502.4
36.6887,497.87,503.72
36.7092,498.29,506.38
36.7338,497.83,509.1
36.7543,499.47,512.28
36.7748,499.97,515.63
36.7952,500.58,519.9
36.8157,499.46,522.32
36.8401,499.37,523.06
36.8607,498.5,523.25
36.8812,498,522.8
36.9017,497.4,520.44
36.9221,497.12,517.15
36.9426,496.49,513.52
36.9672,496.4,509.62
36.9877,494.12,506.49
37.0082,494.29,504.59
37.0287,494.03,504.88
37.0491,495.43,506.5
37.0736,494.74,508.6
37.0942,496.59,512.68
37.1147,497.48,516.54
37.1351,498.78,520.84
37.1556,499.22,525.27
37.176,498.78,528.01
37.2006,498.22,528.81
37.221,496.58,528.85
37.2416,495.66,527.88
37.2622,496.13,525.9
37.2825,495.5,523.32
37.3032,495.4,519.66
37.3275,493.72,515.33
37.3481,494.38,511.26
37.3686,494.9,508.61
37.389,495.12,510.49
37.4095,495.7,515.99
37.4341,496.36,536.79
37.4545,499.89,568.23
37.4751,505.71,585.79
37.4955,508.57,584.23
37.5161,510.05,571.78
37.5365,510.24,557.63
37.5611,507.99,542.7
37.5818,506.2,527.96
37.6022,504.16,516.17
37.6225,502.33,505.74
37.643,501.26,497.39
37.6676,499.01,491.31
37.6881,500.01,496.45
37.7085,500.61,520.36
37.7291,500.88,548.89
37.7495,502.51,558.71
37.77,504.01,550.37
37.7945,504.4,536.89
37.815,504.72,522.92
37.8357,504.58,511.53
37.8561,503.66,502.83
37.8765,503.33,497.06
37.9009,501.66,493.65
37.9214,501.33,491.92
37.9421,500.07,490.94
37.9625,499.25,490.95
37.983,499.2,489.76
38.0035,498.76,489.01
38.0279,497.81,488.61
38.0485,498.85,487.48
38.0689,498.68,485.59
38.0895,497.74,485.47
38.1099,497.39,486.18
38.1344,497.52,487.34
38.1551,498.21,490.47
38.1755,498.17,495.58
38.1961,499.34,501.06
38.2165,501.07,506.25
38.237,501.45,511.6
38.2615,501.96,516.68
38.282,501.37,519.94
38.3025,500.9,521.76
38.3229,499.32,522
38.3434,499.05,520.6
38.3639,498.64,518.48
38.3884,496.71,515.39
38.4089,495.57,512.11
38.4294,496.26,509.29
38.4499,495.61,506.03
38.4704,494.68,504.42
38.4949,494.75,504.34
38.5155,495,506.07
38.5359,495.2,508.06
38.5565,495.56,512.05
38.577,497.65,516.04
38.5974,499.72,519.83
38.6219,498.97,523.46
38.6424,499.38,525.57
38.6629,498.9,525.66
38.6834,498.32,526.13
38.7038,497.86,525.1
38.7282,496.29,523.68
38.7488,495.83,521.54
38.7693,495.66,518.84
38.7898,494.93,514.47
38.8103,494.54,510.97
38.8308,494.24,508.58
38.8554,493.99,508.06
38.8759,495.39,508.05
38.8964,495.71,509.44
38.9169,495.17,512.95
38.9373,495.14,516.56
38.9617,495.31,520.65
38.9822,496.05,524.32
39.0028,497.24,526.66
39.0233,497.19,528.12
39.0438,496.15,528.3
39.0643,496.32,527.44
39.0887,494.26,524.55
39.1093,495.21,522.24
39.1298,493.56,518.39
39.1503,493.65,514.91
39.1708,494.52,510.13
39.1954,494.42,508.31
39.2158,494.73,508.04
39.2363,492.99,509.04
39.2568,491.59,511.83
39.2773,491.27,514.66
39.2976,492.42,517.93
39.3223,492.73,521.34
39.3427,493.99,525.68
39.3635,494.59,529.14
39.3837,494.87,530.71
39.4042,493.5,530.97
39.4248,492.6,530.18
39.4492,492.68,527.74
39.47,492.54,524.79
39.4902,493.23,521.03
39.5106,492.19,517.23
39.5313,492.55,513.78
39.5558,492.44,510.63
39.5763,493.75,508.7
39.5968,495.8,507.96
39.6172,496.84,508.17
39.6376,498.87,511.13
39.6581,499.1,514.51
39.6828,500.28,518.41
39.7033,504.62,521.72
39.7237,506.9,525.18
39.7443,507.92,526.74
39.7646,508.94,527.6
39.7892,508.35,526.88
39.8096,506.48,524.5
39.8302,505.78,523
39.8506,506.63,520.2
39.8711,502.9,529.56
39.8917,503.52,557.45
39.9162,503.62,580.56
39.9369,505.09,583.05
39.9572,505.87,571.04
39.9777,505.7,552.43
39.9982,505.96,535.94
40.0226,506.77,521.16
40.0433,505.81,510.72
40.0636,505.25,506.18
40.0841,504.2,509.54
40.1045,504.36,531.43
40.125,506.29,560.55
40.1495,507.63,570.04
40.1701,508.3,559.83
40.1906,508.24,542.26
40.2113,505.4,523.01
40.2316,503.32,504.81
40.2521,501.25,488.85
40.2767,500.2,476.48
40.2973,498.96,468.58
40.3176,498.37,465.47
40.3381,500.1,464.77
40.3586,500.88,466.62
40.3833,500.9,471.49
40.4036,501.12,477.8
40.4241,502.1,484.04
40.4445,501.68,489.63
40.465,502.54,496.3
40.4855,501.23,500.64
40.5101,501.39,503.11
40.5306,500.11,505.69
40.5511,498.29,505.95
40.5717,496.63,504.76
40.592,495.5,503.21
40.6166,493.6,501.17
40.637,493.28,499.13
40.6576,494.23,497.31
40.678,493.78,497.05
40.6985,493.62,498.44
40.719,494.3,500.75
40.7435,495.84,504.4
40.764,496.67,508.52
40.7845,497.54,513.22
40.805,498.23,517.37
40.8254,498.38,521.1
40.8501,498.51,522.88
40.8704,497.21,523.5
40.8912,497.36,522.2
40.9115,497.09,519.56
40.932,497.47,515.85
40.9525,496.38,513.28
40.9771,495.3,510.02
40.9975,495.44,506.82
41.018,495.95,504.46
41.0385,496.76,503.36
41.059,497.61,503.69
41.0835,496.29,505.35
41.1039,497.03,508.08
41.1244,498.22,511.07
41.1449,497.78,515.65
41.1653,497.82,519.72
41.186,499.26,522.78
41.2105,498.81,525.02
41.231,498.05,525.02
41.2516,497.84,524.41
41.2719,495.67,523.73
41.2925,496.74,522.39
41.3129,494.99,519.11
41.3374,494.39,516.69
41.358,492.91,513.15
41.3784,492.93,508.52
41.3988,493.54,507.62
41.4194,493.04,507.49
41.4438,493.63,508.79
41.4643,494.7,511.04
41.4849,497.56,513.83
41.5054,499.25,517.06
41.5259,498.6,520.45
41.5465,500.28,524.16
41.5708,500.82,526.33
41.5914,500.06,526.86
41.6119,499.25,526.29
41.6324,497,526.43
41.6527,496.6,524.35
41.6773,498.28,521.28
41.6978,499.42,517.82
41.7184,498.74,512.86
41.7388,499.19,510.09
41.7593,499.35,508.47
41.7797,498.28,508.37
41.8044,498.23,509.3
41.8249,498.78,511.04
41.8453,499.22,513.43
41.8657,499.78,516.35
41.8864,501.62,519.88
41.9109,498.9,523.3
41.9313,497.52,525.44
41.9518,496.02,526.35
41.9723,493.61,526.48
41.9928,493.09,525.39
42.0133,491.07,522.51
42.0378,491.26,519.41
42.0583,491.21,515.53
42.0787,490.36,512.42
42.0994,489.69,508.74
42.1197,490.15,505.59
42.1443,490.92,504.47
42.1647,491.34,503.98
42.1853,493.07,505.58
42.2058,494.66,508.47
42.2263,495.53,511.77
42.2467,497.82,514.82
42.2713,498.46,517.85
42.2918,499.16,520.88
42.3123,499.53,522.71
42.3327,498.43,523.17
42.3532,498.34,522.53
42.3737,498.47,519.83
42.3982,497.98,516.46
42.419,500.18,511.97
42.4393,505.55,508.77
42.4597,507.64,505.62
42.4801,507.11,507.7
42.5046,509.29,511.36
42.5252,509.63,534.89
42.5457,512.3,570.71
42.5662,512.44,594.77
42.5866,511.75,597.61
42.6072,512.2,585.89
42.6317,511.36,569.31
42.6522,508.29,552.45
42.6728,506.03,535.36
42.6933,504.43,521.09
42.7136,503.34,508.87
42.7382,500.07,498.3
42.7588,498.26,490.24
42.7792,497.81,484.39
42.7997,496.45,481.11
42.8202,494.76,479.69
42.8407,495,491.55
42.8652,499.6,521.64
42.8857,504.08,554.51
42.9061,507.87,574.81
42.9266,509.49,576.05
42.9472,507.79,563.64
42.9716,506.64,545.51
42.9921,504.51,529.01
43.0126,502.41,514.61
43.0332,501.33,504.49
43.0536,499.26,496.39
43.074,497.81,490.51
43.0986,495.25,485.21
43.1192,495,480.17
43.1396,494.4,476.93
43.1602,493.72,474.95
43.1805,492.97,473.96
43.2051,494.38,474.17
43.2256,493.3,474.53
43.2461,494.44,476.43
43.2666,495.95,480.14
43.2871,495.56,483.91
43.3075,496.45,490.73
43.332,497.76,496.38
43.3526,498.61,502.51
43.3731,498.89,507.81
43.3936,499.11,511.64
43.4141,497.49,515.52
43.4346,495.99,521.01
43.459,494.79,522.41
43.4795,492.63,521.73
43.5,491.51,519.78
43.5205,491.41,517.23
43.541,490.92,514.18
43.5654,490.14,511.34
43.586,491.31,509.48
43.6066,492.05,507.98
43.6271,493.24,508.18
43.6475,494.39,509.75
43.668,495.11,512.2
43.6925,496.29,516.36
43.7131,497.43,519.69
43.7335,498.95,523.75
43.754,499.76,525.2
43.7744,498.41,526.96
43.7989,497.52,525.57
43.8194,496.82,524.65
43.84,495.46,522.72
43.8606,494.36,519.38
43.881,493.69,515.5
43.9014,494.35,511.4
43.926,494.08,507.92
43.9466,496.27,503.54
43.967,499.01,499.63
43.9875,501.01,499.1
44.0081,503.41,499.88
44.0326,504.13,503.31
44.053,505.3,506.85
44.0735,505.64,510.88
44.0939,504.71,514.7
44.1144,504.77,518.36
44.1349,504.22,520.49
44.1595,502.77,521.39
44.1799,502.42,521.51
44.2004,500.33,519.41
44.2209,498.47,517.13
44.2415,496.97,514.7
44.2659,496.58,511.16
44.2863,496.26,508.13
44.3069,496.61,505.9
44.3274,496.69,504.52
44.3479,495.95,504.42
44.3683,496.96,506.13
44.3929,498.77,510.11
44.4134,499.01,514.49
44.4339,498.41,517.99
44.4543,499.13,522.19
44.4748,499.9,525.75
44.4954,498.72,528.2
44.5198,497.98,529.16
44.5405,496.18,528.73
44.5608,496.55,526.38
44.5813,496.44,523.31
44.602,494.95,519.65
44.6265,492.56,516.92
44.6468,493.05,512.93
44.6674,492.84,509.55
44.688,493.47,507.64
44.7084,494.38,506.51
44.729,494.1,507.61
44.7533,495.08,510.49
44.7738,496.06,514.39
44.7943,496.65,518.91
44.8148,496.52,522.13
44.8354,496.62,525.3
44.8598,496.89,527.24
44.8804,498.32,527.19
44.9008,496.45,526.56
44.9213,495.96,525.24
44.9417,495.97,522.6
44.9622,496.58,519.48
44.9868,495.86,515.38
45.0074,495.09,513.1
45.0278,496.27,514.48
45.0483,494.42,525.79
45.0687,498.73,557.63
45.0932,502.19,588.1
45.1138,507.75,599.48
45.1344,509,593.59
45.155,511.2,577.07
45.1752,511.36,560.46
45.1956,510.29,544.16
45.2203,508.43,530.53
45.2409,507.14,519.63
45.2613,508.52,512.7
45.2818,509.01,520.56
45.3022,506.21,543.45
45.3268,504.97,563.16
45.3472,506.57,563.33
45.3678,506.46,548.06
45.3882,504.77,527.45
45.4088,502.81,507.36
45.4293,501.85,490.49
45.4536,501.88,478.79
45.4743,501.1,472.63
45.4948,500.08,470.91
45.5153,499.47,471.92
45.5356,498.77,474.34
45.5562,498.42,478.47
45.5807,498.34,482.38
45.6012,497.87,486.7
45.6217,497.49,489.76
45.6421,497.8,492.21
45.6627,497.64,492.17
45.6871,496.51,492.53
45.7076,494.81,492.03
45.7281,494.85,490.62
45.7486,495.28,490.1
45.769,496.02,489.88
45.7897,496.62,490.1
45.8141,496.69,491.88
45.8346,497.75,494.91
45.8551,499.4,500.12
45.8757,500.32,504.5
45.896,500.06,509.8
45.9206,500.85,515.24
45.9411,501.68,519.79
45.9616,500.54,522.83
45.9821,499.83,523.27
46.0026,499.07,522.81
46.0232,499.85,521.05
46.0476,498.68,519.04
46.0681,497.15,515.83
46.0885,495.92,512.47
46.1092,494.93,510.17
46.1296,495.15,507.34
46.1541,497.32,506.47
46.1747,497.45,506.58
46.1951,498.56,508.26
46.2155,501.25,511.61
46.2361,503.6,515.29
46.2567,503.68,518.23
46.281,502.74,522.18
46.3017,503.4,525.75
46.322,501.92,527.6
46.3426,501.13,528.28
46.3631,500.11,528.62
46.3874,499.49,527.3
46.4081,498.99,525.04
46.4285,497.79,521.63
46.4491,497.03,517.9
46.4695,496.63,514.52
46.49,497.1,512.62
46.5145,496.68,511.1
46.535,497.14,510.08
46.5555,498.12,510.86
46.576,500.89,513.69
46.5965,501.11,516.15
46.617,498.69,520.32
46.6414,494.75,523.86
46.662,493.2,527.09
46.6826,492.36,529.67
46.7031,490.29,531.53
46.7235,489.63,531.63
46.7479,488.31,530.7
46.7685,488.04,528.16
46.789,487.24,524.53
46.8095,486.39,521.62
46.83,486.51,518.9
46.8505,487.41,515.32
46.875,488.13,514.06
46.8954,489.5,512.64
46.9159,491,512.72
46.9365,493,513.97
46.9571,494.4,516.98
46.9814,495.32,520.38
47.002,495.66,524.31
47.0224,494.93,527.84
47.043,495.34,530.88
47.0634,496.07,531.9
47.0839,496.06,531.72
47.1084,495.05,530.18
47.1289,494.24,527.74
47.1494,495.19,524.79
47.1699,495.55,520.43
47.1904,493.64,516.35
47.215,492.31,512.68
47.2354,493.05,509.74
47.2559,493.84,508.19
47.2763,493.67,507.96
47.2968,494.54,508.36
47.3174,495.43,511.09
47.3418,496.74,514.27
47.3624,497.6,518.42
47.383,498.08,521.53
47.4034,498.66,524.23
47.4238,498.93,525.98
47.4483,498.54,525.99
47.469,498.23,525.79
47.4893,499.59,524.03
47.5098,502.67,521.22
47.5303,504.74,517.78
47.5509,504.99,514.42
47.5754,504.59,511.34
47.596,503.47,509.27
47.6164,503.98,507.62
47.637,504.98,507.09
47.6574,504.59,507.87
47.6779,503.47,510.1
47.7023,503.98,512.68
47.7228,504.38,516.14
47.7433,504.1,519.12
47.7638,503.48,521.29
47.7843,503.59,522.83
47.8087,505.87,522.07
47.8293,510.5,521.65
47.8499,514.2,522.92
47.8704,515.56,520.94
47.8909,515.45,528.95
47.9113,516.76,555.96
47.9357,516.41,570.17
47.9564,515.92,567.13
47.9769,515.14,553.31
47.9973,511.91,535.25
48.0179,509.53,519.4
48.0422,509.42,509.32
48.0627,510.14,506.65
48.0832,507.71,512.92
48.1037,505.97,536.54
48.1243,506.98,563.83
48.1447,507.78,573.06
48.1693,508.62,564.65
48.1898,506.3,547.32
48.2103,504.24,527.66
48.2308,502.19,510.33
48.2514,500.15,494.86
48.2756,499.72,482.29
48.2963,498.78,472.63
48.3168,497.22,464.9
48.3371,496.78,462.52
48.3577,497.02,462.22
48.3781,497.42,464.58
48.4027,497.93,468.26
48.4231,498.55,474.41
48.4438,498.44,481.73
48.4643,498.55,488.58
48.4847,499.84,495.47
48.5092,499.07,500.57
48.5298,497.86,504.66
48.5502,496.89,506.93
48.5706,496.91,508.74
48.5912,497.93,508.99
48.6117,497.14,507.99
48.6362,495.11,505.4
48.6568,493.49,503.32
48.6773,491.99,501.65
48.6977,492.59,500.52
48.7183,492.68,500.22
48.7387,493.54,500.37
48.7632,495.83,503.3
48.7836,496.67,507.44
48.8042,496.73,512.15
48.8248,497.79,516.72
48.8451,497.23,521.18
48.8697,496.78,524.54
48.8901,497.03,526.63
48.9107,496.62,526.91
48.9311,496.5,525.73
48.9516,496,524.18
48.972,495.8,521.74
48.9965,494.84,518.6
49.017,494.47,515.68
49.0377,493.98,511.54
49.058,493.38,509.23
49.0786,492.71,508.19
49.103,493.16,508.15
49.1235,495.53,509.12
49.1441,496.63,512.1
49.1645,497.9,515.28
49.185,498.32,519.02
49.2055,499.66,522.82
49.2301,500.52,525.65
49.2507,501.42,527.72
49.271,501.94,528.38
49.2915,501.15,527.9
49.312,500.52,525.32
49.3365,498.62,522.26
49.3571,499.89,518.61
49.3775,501.31,514.68
49.3981,500.65,510.75
49.4185,499.72,508
49.4391,500.38,507
49.4635,499.9,507.2
49.4841,500.32,508.96
49.5045,500.46,511.97
49.525,500.57,515.57
49.5455,501.85,519.06
49.5699,502.48,522.65
49.5905,504.19,525.52
49.6111,503.15,528.01
49.6315,502.32,529.61
49.6519,501.46,529.69
49.6725,499.56,527.95
49.697,500.65,524.76
49.7177,499.72,520.81
49.7382,497.98,517.25
49.7585,497.38,513
49.779,496.91,508.8
49.7995,497.12,507.44
49.8239,497.5,507.15
49.8445,495.8,508.12
49.8649,496.04,510.3
49.8855,496.23,513.24
49.906,497.99,516.59
49.9304,498.79,520.07
49.951,498.83,523.46
49.9714,498.26,526.17
49.992,497.41,527.33
50.0124,496.53,528.27
50.0329,495.62,526.81
50.0574,495.1,524.65
50.0779,493.68,521.32
50.0985,493.74,517.66
50.1189,493.99,513.93
50.1395,494,510.54
50.1639,493.8,508.03
50.1844,494.44,507.03
50.205,495.55,506.82
50.2253,496.24,508.26
50.2459,497.99,511.01
50.2663,497.39,514.6
50.2908,497.31,517.68
50.3114,497.05,521.55
50.3318,497.44,525.04
50.3524,498.15,526.23
50.3728,497.32,526.58
50.3973,497.06,525.27
50.4179,497.45,522.21
50.4384,497.96,519.37
50.459,497.17,515.5
50.4794,495.13,512
50.4998,495.31,508.2
50.5245,495.44,505.56
50.5449,494.96,504.65
50.5654,494.76,504.72
50.5858,494.61,506.17
50.6064,494.89,509.94
50.6309,496.71,513.75
50.6513,498.17,518.2
50.6718,498.54,520.96
50.6924,498.83,523.97
50.7129,499.06,524.77
50.7333,498.45,524.82
50.7578,495.96,524.46
50.7784,494.17,522.36
50.7988,494.93,519.69
50.8194,494.55,515.95
50.8398,494.44,511.76
50.8603,494.35,508.21
50.8849,494.48,505.77
50.9053,496.58,504.61
50.9258,496.67,503.89
50.9463,496.73,504.11
50.9668,498.39,507.89
50.9912,499.91,516.31
51.0117,500.53,536.85
51.0322,503.02,572.28
51.0529,506.82,604.02
51.0734,510.65,612.62
51.0938,513.52,601.1
51.1183,513.62,579.88
51.139,512.5,556.5
51.1594,511.2,534.2
51.1797,508.96,515.36
51.2001,505.77,501.29
51.2246,504.01,496.23
51.2453,504.81,496.58
51.2659,505.65,518.07
51.2862,507.32,547.25
51.3068,509.65,561.8
51.3273,510.52,558.24
51.3518,509.42,544.59
51.3722,509.14,528.88
51.3926,508.11,514.7
51.4132,505.89,503.16
51.4338,505.11,493.73
51.4581,503.09,487.18
51.4786,501.07,482.55
51.4993,500.66,480.04
51.5197,500.32,477.03
51.5403,498.26,475.02
51.5606,495.41,474.22
51.5851,494.53,473.58
51.6056,494.62,473.86
51.6261,494.1,475.09
51.6466,495.08,477.47
51.6672,495.86,481.58
51.6876,496.49,486.26
51.7123,497.19,491.81
51.7327,498.55,497.65
51.7531,499.44,503.32
51.7738,500.55,509.05
51.7941,501.84,514.24
51.8185,502.07,516.79
51.8392,501.06,518.24
51.8596,499.85,518.99
51.8801,499.88,517.59
51.9006,499.1,516.07
51.9212,499.28,513.46
51.9455,497.23,510.17
51.9661,495.98,507.13
51.9867,496.38,504.71
52.0072,497.51,504.37
52.0277,499.21,504.89
52.0521,499.56,507.11
52.0726,499.05,510.89
52.0931,501.24,514.71
52.1135,500.99,517.97
52.1342,500.59,521.78
52.1546,500.88,524.62
52.1791,500.7,525.9
52.1995,501.36,527.12
52.22,500.09,526.89
52.2406,499.87,524.12
52.2611,498.5,521.69
52.2856,499,518.35
52.306,497.8,514.48
52.3265,497.84,510.59
52.3471,497.87,508.07
52.3676,497.5,507.06
52.388,497.6,506.24
52.4125,498.48,507.2
52.433,498.78,509.36
52.4536,498.63,512.69
52.4741,498.3,517.55
52.4945,499.84,520.64
52.519,500.67,522.31
52.5395,500.34,524.65
52.5601,497.87,525.92
52.5806,497.3,524.34
52.601,497.24,521.87
52.6215,496.19,520.89
52.6459,493.15,517.32
52.6666,495.32,513.45
52.687,495.66,510.76
52.7074,495.53,508.01
52.7279,495.02,505.41
52.7484,496.22,505.13
52.773,497.37,507.1
52.7935,498.1,508.88
52.814,499.48,510.5
52.8345,501.58,514.2
52.8549,501.87,518.36
52.8795,501.09,522.69
52.8999,501.07,524.75
52.9205,500.86,527.4
52.9412,501.09,528.52
52.9614,500.67,527.02
52.982,499.54,525.21
53.0064,498.23,522.77
53.027,497.78,519.02
53.0474,496.03,515.01
53.068,494.02,512.01
53.0884,492.82,509.61
53.113,493.45,508.49
53.1334,494.36,508.79
53.154,496.09,510.03
53.1745,497.87,512.83
53.1949,499.5,517.06
53.2153,500.8,519.65
53.2398,501.04,523.12
53.2605,500.83,525.69
53.2809,500.66,527.56
53.3014,501.53,528.64
53.3219,499.23,527.52
53.3463,497.38,524.81
53.3669,496.5,521.45
53.3874,497.8,517.76
53.4079,497.84,514.81
53.4283,497.27,511.85
53.4489,496.62,509.48
53.4734,498.5,507.78
53.4939,500,511.23
53.5144,501,521.38
53.5349,501.6,542.5
53.5553,504.08,569.4
53.5758,508.86,590.52
53.6004,513.29,599.22
53.6208,516.03,592.57
53.6414,516.43,577.46
53.6619,513.94,557.77
53.6824,510.15,537.61
53.707,507.72,519.09
53.7274,506.38,503.07
53.7481,503.3,490.26
53.7684,500.44,480.81
53.789,498.95,473.65
53.8093,497.76,468.72
53.8339,497.61,466.17
53.8544,495.29,469.54
53.8749,495.23,481.03
53.8953,498.58,510.62
53.9157,503.07,551.1
53.9404,505.25,577.68
53.9609,508.4,581.54
53.9814,507.52,570.84
54.0018,506.42,554.47
54.0224,505.73,537.57
54.0427,503.59,520.26
54.0673,501.87,506.21
54.0878,500.5,493.57
54.1083,499.6,484.65
54.1287,499.28,477.52
54.1492,497.82,470.42
54.1738,496.26,467.13
54.1942,495.81,466.51
54.2147,496.04,467.61
54.2352,496.64,470.68
54.2558,497.31,476.15
54.2762,497.25,482.32
54.3008,497.6,489.45
54.3212,499.08,495.96
54.3418,501.66,502.37
54.3622,501.73,507.5
54.3828,501.58,511
54.4032,499.47,513.6
54.4277,497.97,515.08
54.4482,498.58,514.66
54.4687,498.66,513.73
54.4892,497.93,510.98
54.5097,495.74,507.59
54.5341,494.2,505.27
54.5546,493.96,502.62
54.5754,495.17,502.09
54.5959,494.73,502.87
54.6162,495.59,504.5
54.6367,497.07,507.4
54.6612,497.45,511.32
54.6817,498.96,515.46
54.7022,499.77,518.96
54.7227,500.02,522.37
54.7432,499.21,524.3
54.7675,499.97,526.04
54.7881,498.78,525.83
54.8087,498.22,525.06
54.8291,496.38,522.65
54.8497,495.3,519.52
54.8701,494.64,516.22
54.8947,494.71,511.17
54.9152,494.17,508.14
54.9358,494.34,506.51
54.9561,495.87,506.41
54.9767,496.5,507.13
55.0011,497,509.3
55.0217,497.8,512.24
55.0421,498.44,516.39
55.0625,498.55,520.91
55.083,498.84,524.33
55.1035,499.67,526.47
55.1281,500.14,527.77
55.1486,499.11,527.22
55.169,498.69,525.97
55.1897,498.35,523.18
55.2101,496.88,520.34
55.2306,495.9,517.27
55.255,495.12,514.02
55.2756,496.1,511.42
55.2961,495.68,510.13
55.3166,496.54,509.71
55.3371,497.23,510.16
55.3616,497.59,512.13
55.3819,497.87,514.71
55.4028,498.1,516.76
55.4229,498.68,519.41
55.4435,498.94,522.13
55.464,499.35,525.9
55.4885,500.28,532.52
55.5091,501.23,541.22
55.5296,502.98,564.17
55.5501,502.98,588.14
55.5705,503.79,593.91
55.5949,505.63,582.33
55.6154,505.7,561.26
55.6361,505.16,539.61
55.6566,504.13,521.29
55.6769,502.7,505.03
55.6975,502.76,492.82
55.722,503.61,486.06
55.7426,503.29,483.25
55.7631,504.23,483.8
55.7836,503.98,485.24
55.8041,505.39,489.39
55.8285,508.11,496.31
55.849,507.49,520.05
55.8696,506.99,552.24
55.8901,506.79,573.99
55.9104,507.83,572.79
55.931,507.67,556.44
55.9554,505.33,535.95
55.9759,501.47,516.36
55.9964,499.97,500.09
56.0169,498.98,488.67
56.0374,498.98,480.54
56.0618,499.39,476.83
56.0824,500.31,474.86
56.1032,500.85,475.29
56.1235,498.28,481.03
56.1439,498.22,485.23
56.1644,498.38,489.58
56.189,498.5,495.66
56.2095,497.6,499.53
56.2299,497.48,502.63
56.2505,496.79,504.9
56.2709,497.03,505.92
56.2913,496.42,505.14
56.3159,495.14,504.31
56.3364,494.91,502.65
56.3568,494.33,501.12
56.3774,494.26,499.89
56.3979,496.41,502.12
56.4223,496.93,505.29
56.4429,498.14,508.83
56.4634,498.11,512.67
56.4839,499.69,516.73
56.5044,500.55,520.19
56.5248,502.44,523.95
56.5494,502.75,527.56
56.5699,501.8,528.85
56.5904,501.84,529.28
56.6108,501.27,529.42
56.6312,500.82,528.54
56.6558,499.46,524.83
56.6765,498.36,521.66
56.6968,497.89,518.33
56.7174,495.71,514.47
56.7378,494.57,511.37
56.7583,493.46,509.3
56.7828,492.57,508.24
56.8035,492.85,509.19
56.8237,494.08,511.35
56.8443,495.27,513.68
56.8648,494.81,516.35
56.8893,496.25,520.28
56.91,497.8,523.42
56.9303,497.84,525.74
56.9508,498.07,527.19
56.9713,498.46,527.15
56.9919,497.97,526.52
57.0162,497.17,524.02
57.0368,497.34,520.61
57.0573,498.07,517.69
57.0779,497.46,514.35
57.0983,495.57,510.88
57.1228,494.65,507.91
57.1433,494.72,506.72
57.1639,494.78,505.98
57.1843,495.82,507.38
57.2046,496.86,509.31
57.2251,498.69,513.45
57.2496,500.75,516.76
57.2702,500.8,520.61
57.2908,499.64,524.08
57.3113,499.51,526.47
57.3316,500.41,527.57
57.3521,500.33,526.86
57.3768,499.26,525.09
57.3973,498.01,522.07
57.4177,498.21,519.06
57.4383,497.77,517.24
57.4588,497.41,514.4
57.4832,497.13,510.72
57.5038,496.5,508.17
57.5241,496.8,506.34
57.5447,497.84,506.67
57.5652,498.07,508.74
57.5858,499.06,511.79
57.6101,499.05,515.43
57.6307,498.44,519.95
57.6512,500.75,527.36
57.6717,500.4,539.48
57.6922,501.12,566.19
57.7167,502.9,589.95
57.7372,505.52,596.96
57.7577,508.61,588.37
57.778,507.09,570.09
57.7986,505.87,548.08
57.819,503.7,526.86
57.8436,501.76,508.49
57.8642,500.61,494.19
57.8846,499.29,483.95
57.9052,497.23,477.96
57.9256,497.18,476.77
57.9501,498.55,483.22
57.9706,500.04,495.37
57.9911,499.43,525.9
58.0117,503.34,557.52
58.0322,505.07,572.01
58.0527,505.06,568.01
58.077,503.65,555.01
58.0975,502.32,539.41
58.118,501.85,523.53
58.1385,501.08,508.82
58.1592,500.47,496.46
58.1795,498.97,487.17
58.204,497.18,479.13
58.2246,496.34,476.11
58.245,495.47,474.08
58.2656,495.38,475.07
58.2861,496.5,478.05
58.3104,498,482.64
58.331,498.6,488.71
58.3516,499.48,493.77
58.3721,500.39,500.22
58.3925,499.71,504.97
58.4131,499.97,509.78
58.4376,499.37,512.02
58.458,498.9,513.82
58.4784,497.32,513.45
58.4989,497.26,512.16
58.5194,496.8,510.73
58.5439,496.24,508.58
58.5645,496.19,506.47
58.5849,496.36,504.37
58.6056,495.48,503.9
58.626,495.19,504.52
58.6465,494.95,505.62
58.671,498.36,508.49
58.6916,499.49,511.59
58.7121,499.99,514.88
58.7325,501.19,518.7
58.753,500.95,522.56
58.7773,500.76,524.65
58.7979,500.01,525.32
58.8184,499.01,525.65
58.8388,498.21,525.12
58.8594,499.17,522.9
58.8799,498.73,519.72
58.9043,497.39,515.38
58.9248,497.71,510.5
58.9453,498.17,507
58.9659,499.33,505.8
58.9863,494.47,509.04
59.0068,482.97,516.23
59.0313,472.58,520.79
59.0518,467.46,524.63
59.0723,465.17,527.7
59.0928,465.94,530.16
59.1133,466.55,530.53
59.1377,470.04,530.62
59.1583,473.23,529.9
59.1789,474.79,527.92
59.1993,476.23,524.94
59.2198,477.38,519.55
59.2403,479.91,513.44
59.2648,481.12,507.55
59.2854,482.7,502.04
59.3058,483.96,497.43
59.3263,486.37,494.15
59.3468,487.69,493.52
59.3713,488.76,494.01
59.3918,490,494.41
59.4123,490.8,496.53
59.4328,492.24,501.22
59.4534,492.59,504.98
59.4738,493.48,509.18
59.4983,494.38,512.35
59.5187,494.7,516.28
59.5393,494.76,517.42
59.5597,495.81,518.14
59.5802,494.45,516.91
59.6048,493.96,515.73
59.6253,494.17,512.58
59.6458,494.53,510.47
59.6664,494.43,508.57
59.6869,493.94,506.46
59.7072,493.75,506.17
59.7318,494,505.13
59.7524,495.6,507.11
59.7728,496.68,509.89
59.7933,496.95,513.91
59.8137,496.96,518.33
59.8381,498.17,523.46
59.8587,498.13,526.77
59.8794,501.91,528.42
59.8997,503.92,528.73
59.9202,502.34,528.79
59.9406,502.47,527.23
59.9652,502.38,523.18
59.9857,501.7,519.95
60.0062,500.36,516.56
60.0266,499.49,513.85
60.0473,498.79,509.68
60.0717,497.83,507.54
60.0922,498.47,505.83
60.1129,499.17,505.87
60.1333,499.54,507.89
60.1538,499.43,511.11
60.1742,500.14,515.69
60.1987,501.72,519.95
60.2192,500.97,524.56
60.2397,500.98,527.85
60.2601,500.58,528.88
60.2806,502.27,529.7
60.3012,501.81,529.96
60.3256,502.05,525.97
60.3461,502.04,522.98
60.3668,500.03,519.38
60.3872,499.83,514.7
60.4076,498.66,510.96
60.4321,497.73,507.77
60.4526,497.58,505.82
60.4731,497.47,504.65
60.4936,498.17,505.92
60.5141,497.54,508.54
60.5346,498.63,512.83
60.5591,500.3,516.86
60.5797,502.04,520.49
60.6003,501.44,524.59
60.6207,500.35,527.47
60.6411,500.48,528.18
60.6657,501.18,526.94
60.6862,500.95,525.16
60.7068,499.16,522.12
60.7272,498.73,518.3
60.7477,496.78,516.04
60.7681,500.62,508.03
60.7926,506.7,498.63
60.8131,511.76,492.1
60.8336,516.81,488.08
60.8542,522.05,487.86
60.8746,522.84,491.09
60.8992,521.87,496.87
60.9195,519.7,502.1
60.9402,517.96,508.28
60.9609,517.37,514.02
60.981,513.69,517.02
61.0015,510.95,519.41
61.026,508.76,520.33
61.0466,509.61,520.07
61.0671,509.09,518.05
61.0875,507.47,515.84
61.1082,506.78,513.87
61.1286,505.02,510.7
