Program Time [s],data 0,data 1
5.3193,509.29,516.41
5.31931,506.83,514.13
5.31932,507.46,510.1
5.31933,506.37,511.48
5.31934,507.9,512.19
5.31935,507.52,513.95
5.31936,518.82,519.46
5.31937,509.51,519.77
5.31938,509.61,516.41
5.31939,509.29,514.13
5.3194,506.83,510.1
5.3197,507.46,511.48
5.31972,506.37,512.19
5.31973,507.9,513.95
5.31974,507.52,515.4
6.83451,510.4,519.52
6.8549,510.72,521.82
6.87942,511.58,523.05
6.89995,510.46,522.64
6.92042,509.97,522.11
6.94099,509.57,521.29
6.96143,507.86,520.43
6.98189,507.89,516.95
7.00655,506.91,513.96
7.02697,506.33,509.57
7.04744,504.86,507.45
7.06792,505.49,506.56
7.08839,504.19,506.85
7.11287,504.35,507.88
7.13346,505.48,509.7
7.15388,506.39,513.36
7.17438,507.11,516.29
7.19487,508.29,519.23
7.21543,509.43,520.99
7.23985,511.54,521.99
7.26039,510.44,521.39
7.28086,511.75,520.11
7.30132,512.2,518.89
7.32181,511.36,516.51
7.34633,510.09,514.41
7.36692,510.07,512.53
7.38738,509.06,510.82
7.40785,508.24,509.06
7.42833,507.4,508.05
7.44882,507.92,508.24
7.47343,508.13,509.59
7.49386,510.11,510.47
7.5143,511.49,512.18
7.53485,512.79,513.54
7.55525,513.83,515.83
7.57977,514.06,517.87
7.60027,514.45,518.89
7.62078,513.76,518.71
7.64129,513.01,519.97
7.66176,510.81,518.18
7.68232,517.85,515.54
7.70675,526.28,514.23
7.72733,530.22,511.59
7.74776,530.58,509.47
7.76823,530.66,506.78
7.78877,529.93,505.22
7.81321,528.54,505.38
7.83373,527.23,505.3
7.85428,525.59,507.44
7.87476,523.67,507.95
7.89526,523.34,510.96
7.91572,522.47,514.17
7.94034,521.98,517.14
7.9608,521.38,519.51
7.98136,520.9,521.41
8.00199,518.72,521.33
8.02229,517.38,520.26
8.04674,516.9,517.01
8.06738,514.92,514.21
8.08789,513.54,512.97
8.10842,512.23,510.77
8.12879,509.78,508.82
8.14918,509.43,508.05
8.17376,509.14,505.84
8.19421,508.91,506.27
8.21472,509.13,509.02
8.23519,510.7,512.02
8.25576,510.96,514.21
8.27618,512.17,515.57
8.30065,512.54,518.46
8.3213,514.23,519.76
8.34168,515.18,520.21
8.36215,514.35,520.37
8.38272,513.48,519.9
8.40713,511.78,518.52
8.42772,510.43,516.21
8.4482,507.94,513.97
8.46865,507.35,511.18
8.48917,507.68,508.94
8.50963,507.55,506.95
8.53421,506.64,506.16
8.55465,506.31,506.73
8.57521,507.45,508.38
8.59576,508.96,511.91
8.61619,509.57,514.93
8.6406,511.65,517.94
8.66114,513.92,520.55
8.68167,514.34,523.84
8.7022,514.27,528.27
8.72259,514.02,545.22
8.74315,515.21,598.98
8.76759,520.77,661.98
8.78832,523.42,733.18
8.80861,521.93,788.55
8.82923,545.15,819.64
8.84955,543.92,845.51
8.87406,541.73,849.81
8.89474,538.59,829.25
8.91526,540.47,775
8.93556,540.38,703
8.95609,540.1,626.2
8.97655,540.88,549.16
9.00114,541.7,519.53
9.02157,542.76,526.42
9.04218,539.01,558.34
9.06272,547.21,577.07
9.08323,551.57,584.86
9.10752,554.25,566.28
9.12803,556.2,516.43
9.14861,550.36,456.54
9.16912,536.69,400.23
9.18962,522.75,350.79
9.21012,509.4,308.03
9.23455,499.92,274.42
9.25501,491.14,255.74
9.27561,486.51,247.79
9.29619,479.41,250.83
9.31658,476.33,260.67
9.33723,473.26,275.73
9.36158,471.41,293.39
9.38212,470.33,315.71
9.40252,471.66,340.17
9.42317,474.73,367.73
9.44347,478.18,392.59
9.46803,481.95,413.47
9.48859,485.76,432.78
9.50906,488.41,448.22
9.52952,489.92,461.38
9.55005,491.54,471.1
9.57051,491.63,476.88
9.59503,489.51,482.5
9.61559,488.6,488
9.63593,488.48,493.4
9.65648,489.39,497.52
9.67693,490.11,501.42
9.70152,492.29,506.13
9.72197,494.63,510.71
9.74249,496.7,514.77
9.763,497.96,519.21
9.78347,498.77,521.97
9.80395,499.42,523.58
9.82841,500.73,523.26
9.84904,500.99,522.61
9.86944,500.79,518.89
9.88993,500.63,518.71
9.91035,499.31,533.17
9.93484,499.24,563.53
9.95545,502.2,608.03
9.97589,508.96,650.62
9.99636,514.57,678.5
10.0169,520.45,676.2
10.0373,523.56,662.16
10.0619,525.05,641.93
10.0824,526.84,621.34
10.1029,526.67,601.87
10.1234,527.34,583.5
10.1439,524.67,567.8
10.1683,521.54,553.64
10.1888,519.43,541.11
10.2094,517.74,529.89
10.2299,515.19,519.51
10.2503,514.56,510.61
10.2708,512.64,503.29
10.2953,511.12,497.23
10.3158,511.49,492.98
10.3363,510.59,490.59
10.3568,511.48,488.27
10.3773,513.58,487.42
10.4019,514.26,491.73
10.4223,511.01,501.19
10.4428,502.41,506.95
10.4633,496.73,511.36
10.4838,491.98,516.69
10.5043,490.99,520.15
10.5288,490.19,522.72
10.5494,488.75,524.38
10.5698,488.2,524.3
10.5903,488.56,523.24
10.6108,489.05,521.19
10.6313,490.04,518.75
10.6558,491.43,516
10.6763,491.34,512.8
10.6968,491.48,509.84
10.7173,491.58,508.67
10.7377,493.06,506.74
10.7622,494.25,506.39
10.7828,495.2,506.51
10.8033,496.76,509.61
10.8238,498.41,513.69
10.8443,498.73,516.75
10.8647,500.58,519.6
10.8893,502.67,521.68
10.9098,504.93,523.14
10.9303,507.35,523.72
10.9508,507.88,522.97
10.9713,508.1,521.78
10.9957,508.08,520.22
11.0162,509.26,517.58
11.0367,509.01,513.86
11.0573,508.21,510.89
11.0777,508.17,508.71
11.0983,507.53,507.97
11.1227,507.23,506.98
11.1434,506.98,508.58
11.1637,507.59,511.06
11.1842,508.87,514.65
11.2047,510.09,518.92
11.2292,509.48,526.54
11.2497,506.18,532.23
11.2703,505.54,534.58
11.2907,502.84,534.47
11.3111,500.87,533.37
11.3316,500.09,531.3
11.3561,499.48,528.64
11.3767,498.98,525.31
11.3972,498.38,522.25
11.4176,498.11,514.8
11.4381,504.09,508.84
11.4586,508.87,504.67
11.4831,513.9,502.74
11.5037,517.12,503.39
11.5241,519.29,503.51
11.5446,519.23,506.81
11.5651,518.79,509.45
11.5896,519.03,512.36
11.6102,518.42,514.29
11.6306,517.14,515.23
11.6511,516.51,516.18
11.6716,520.81,517.75
11.692,528.45,517
11.7166,531.56,515.4
11.7371,531.45,512.32
11.7576,531.56,508.85
11.7781,530.45,504.48
11.7986,529.16,501.59
11.8231,528.13,500.27
11.8436,526.9,499.62
11.8641,525.12,501.09
11.8846,523.9,503.07
11.9051,522.52,506.06
11.9256,522.21,508.45
11.9501,521.97,512.36
11.9707,521.58,518.09
11.9912,521.66,557.27
12.0117,529.93,599.42
12.0321,544.54,625.53
12.0565,544.43,695.43
12.077,536.55,739.94
12.0975,532.84,755.55
12.1181,527.87,754.04
12.1386,522.9,723.23
12.1591,524.12,675.39
12.1835,524.29,623.11
12.204,524.63,573.89
12.2245,522.31,538.51
12.2451,518.45,518.41
12.2655,516.36,503.73
12.29,515.29,546.58
12.3105,516.63,595.06
12.3311,518.5,662.45
12.3515,527.2,699.36
12.372,527.56,730.69
12.3925,521.45,744.35
12.417,518.36,719.88
12.4375,523.09,658.9
12.458,530.07,574.12
12.4784,538.66,482.9
12.499,544.72,404.72
12.5234,548.78,354.58
12.5439,547.82,324.26
12.5645,543.46,311.61
12.585,540.57,311.69
12.6054,535.65,317.75
12.6259,529.52,330.2
12.6505,524.82,346.36
12.6709,520.65,364.29
12.6914,517.92,380.83
12.7119,516.34,398.46
12.7324,513.07,414.77
12.7529,512.66,428.02
12.7774,509.93,441.41
12.7981,507.94,450.53
12.8184,504.15,459.62
12.8389,501.72,466.9
12.8595,502.58,471.32
12.8839,502.66,475.26
12.9045,501.13,477.6
12.925,499.5,480.48
12.9454,506,484.99
12.9658,514.4,489.59
12.9863,519.32,495.67
13.0109,522.46,502.54
13.0315,524.17,508.43
13.0519,524.53,513.54
13.0725,525.03,518.24
13.093,524.42,522.39
13.1174,523.94,523.51
13.1379,514.95,522.41
13.1584,506.56,520.93
13.1789,500.25,518.54
13.1994,495.8,517.23
13.2199,493.24,514.19
13.2443,491.19,511.95
13.2649,488.95,509.96
13.2854,490.36,508.57
13.3058,490.89,508.65
13.3263,493.31,509.52
13.3508,494.25,511.22
13.3713,496.6,513.77
13.3918,498.48,516.82
13.4123,500.18,520.46
13.4328,501.35,523.96
13.4533,503.08,525.17
13.4778,504.66,525.34
13.4983,503.53,524.87
13.5188,504.82,523.1
13.5393,505.26,521.28
13.5597,504.61,519.82
13.5843,506.09,517.26
13.6048,514.07,515.21
13.6253,518.05,512.56
13.6458,521.24,510.85
13.6662,521.4,510.28
13.6867,521.52,510.83
13.7112,521.81,512.06
13.7318,520.85,514.25
13.7523,520.48,517
13.7727,519.78,520.6
13.7932,518.03,525.28
13.8137,516.62,528.22
13.8382,514.9,529.58
13.8588,512.72,529.66
13.8793,510.97,528.73
13.8997,509.98,526.78
13.9202,507.58,524.23
13.9447,506.47,522.38
13.9653,506.17,519.71
13.9859,505.54,516.16
14.0063,503.43,514.53
14.0267,502.74,513.63
14.0472,502.6,514.7
14.0718,503.08,515.96
14.0922,504.06,517.77
14.1128,505.05,521.01
14.1333,504.84,525.41
14.1537,505.27,528.73
14.1781,506.82,531.18
14.1987,508.25,531.75
14.2193,508.6,533
14.2397,508.48,531.8
14.2602,503.99,529.44
14.2807,497.39,526.55
14.3052,492.51,523.24
14.3257,489.81,519.39
14.3462,487.45,516.11
14.3667,486.36,512.09
14.3871,486.89,509.47
14.4116,487.91,507.98
14.4322,489.93,507.18
14.4527,491.14,508.95
14.4732,494.11,510.16
14.4936,493.29,512.93
14.5141,493.83,514.74
14.5386,494.07,516.39
14.5592,496.05,519.11
14.5796,496.24,519.89
14.6001,495.99,519.71
14.6208,496.4,518.57
14.6452,496.52,516.86
14.6657,496.61,513.89
14.6862,497.49,510.91
14.7067,498.59,507.53
14.7271,499.27,504.62
14.7476,500.42,505.3
14.7722,500.14,505.24
14.7939,499.71,506.19
14.8132,506.17,510.55
14.8337,516.33,513.84
14.854,522.67,517.07
14.8785,526.93,520.06
14.8991,529.95,522.85
14.9197,531.16,524.88
14.9402,530.13,524.9
14.9606,528.7,524.72
14.9811,527.76,523.38
15.0057,525.21,520.9
15.0261,523.17,518.72
15.0466,519.73,515.78
15.0671,517.79,512.82
15.0876,516.23,510.66
15.1081,514.98,508.13
15.1325,512.99,507.3
15.1532,512.79,507.64
15.1737,511.63,509.11
15.1942,512.11,511.89
15.2146,512.28,514.31
15.239,512.63,517.05
15.2595,512.7,519.84
15.2801,511.76,522.27
15.3007,511.61,522.82
15.3211,509.89,523.05
15.3415,510.51,523.04
15.3661,511.21,522.23
15.3865,510.37,519.39
15.407,509.29,516.31
15.4275,507.63,513.65
15.448,507.71,510.52
15.4725,506.57,509.21
15.4931,506.05,546.57
15.5135,519.04,567.66
15.5341,522.03,622.53
15.5545,513.83,690.22
15.5749,522.86,747.98
15.5994,528.29,771.78
15.6201,532.43,762.03
15.6405,532.15,722.42
15.6609,532.32,667.34
15.6814,531.25,618.27
15.7059,526,604.82
15.7266,515.2,632.05
15.7469,522.96,664.24
15.7675,548.77,671.99
15.7879,556.02,684.59
15.8084,545.61,676.88
15.8329,546.69,637.1
15.8536,553.55,565.48
15.874,560.04,486.98
15.8945,565.63,420.39
15.9149,566.71,372.51
15.9395,556.17,353.21
15.9599,556.13,344.97
15.9804,550.51,336.57
16.001,538.8,346.46
16.0213,528.84,357.37
16.0419,517.07,373.09
16.0665,506.66,387.07
16.0869,505.53,400.46
16.1075,499.22,411.97
16.128,496.78,421.57
16.1485,496.02,430.26
16.1729,495.02,442.81
16.1935,501.41,449.25
16.2139,498.93,461
16.2344,505.15,467.6
16.2549,504.52,471.68
16.2754,498.61,475.94
16.2999,494.49,480.55
16.3204,498.59,489.44
16.3408,494.67,496.75
16.3614,495.94,499.4
16.3818,495.55,507.12
16.4024,503.04,513.1
16.4269,516.03,515.28
16.4473,516.63,521.02
16.4678,510.3,522.42
16.4884,513.64,515.93
16.5088,506.71,506.75
16.5332,454.77,505
16.5539,468.02,497.8
16.5743,488.81,510.24
16.5948,496.45,494.59
16.6153,494.56,510.67
16.6357,505.85,497.34
16.6602,483.68,508.07
16.6808,509.74,508.06
16.7013,496.39,500.65
16.7218,487.32,525.12
16.7422,528.85,524.29
16.7667,526.48,532.03
16.7873,534.59,533.03
16.8078,528.87,534.82
16.8284,532.89,534.66
16.8487,526.92,531.33
16.8693,515.33,527.66
16.8938,509.07,524.93
16.9142,505.25,519.94
16.9348,502.4,516.95
16.9553,499.32,514.16
16.9757,498.66,514.93
17.0002,498.13,515.94
17.0208,496.7,518.36
17.0413,496.76,520.28
17.0618,500.21,523.63
17.0823,500.17,527.1
17.1027,501.73,527.88
17.1272,502.59,527.91
17.1477,503.47,526.72
17.1683,504.58,524.78
17.1888,505.86,521.82
17.2092,506.69,517.86
17.2296,506.15,513.49
17.2542,505.12,508.79
17.2747,505.3,503.83
17.2952,503.64,500.27
17.3156,502.91,499.21
17.3362,501.53,497.97
17.3607,503.42,499.18
17.3813,505.14,500.54
17.4018,506.31,505.23
17.4222,506.05,514.79
17.4428,502.64,524.83
17.4633,498.71,530.46
17.4877,497.37,535.37
17.5082,497.7,538.5
17.5288,496.56,541.4
17.5491,496.04,540.52
17.5697,497.04,538.41
17.5941,497.03,529.33
17.6147,503.42,522.47
17.6351,506.54,515.77
17.6556,509.63,511.22
17.6763,509.7,508.97
17.6966,509.96,512.58
17.7211,507.17,517.46
17.7417,506.74,519.37
17.7621,506.99,523.5
17.7826,506.19,524.6
17.8031,508.95,530.08
17.8276,507.76,532.86
17.8482,509.81,533.29
17.8686,510.25,532.63
17.889,509.6,534.71
17.9095,511.28,534.16
17.9301,506.42,527.93
17.9545,503.14,523.75
17.975,500.91,520.8
17.9957,499.53,517.84
18.0161,499.62,527.47
18.0366,489.9,521.78
18.061,492.92,517.42
18.0816,497.13,516.74
18.1021,497.51,516.59
18.1227,499.61,518.47
18.143,501.49,521.98
18.1636,502.19,526.18
18.188,502.15,528.35
18.2085,504.52,529.28
18.2291,507.02,528.02
18.2495,509.81,525.42
18.27,511.05,523.73
18.2905,510.44,521.19
18.315,510.35,518.35
18.3355,510.28,513.88
18.3561,510.43,510.9
18.3765,507.94,507.92
18.397,509.15,507.54
18.4214,507.92,511.83
18.442,505.74,514.86
18.4625,505.99,518.49
18.483,505.99,521.19
18.5035,506.59,526.15
18.5239,507.27,531.12
18.5484,509.42,538.7
18.569,504.94,541.76
18.5895,506.15,540.41
18.6099,507.12,541.13
18.6304,506.9,538.5
18.6549,506.72,538.6
18.6754,503.37,533.88
18.6959,503.3,529.5
18.7165,503.84,524.4
18.7369,503.67,520.32
18.7574,502.54,516.66
18.7819,502.43,517.53
18.8024,500.54,515.82
18.8229,501.23,516.26
18.8434,503.19,521.01
18.864,504.75,530.6
18.8884,504.4,568.08
18.9089,505.92,582.07
18.9295,513.54,626.45
18.9499,514.03,696.96
18.9704,513.02,746.97
18.9909,513.02,760.38
19.0154,514.01,743.7
19.0359,511.61,705.36
19.0565,510.49,656.69
19.0769,510.59,604.75
19.0975,509.27,560.8
19.1219,505.82,540.24
19.1425,509.65,543.59
19.163,509.72,554.07
19.1833,518.58,564.26
19.2039,519.26,619.81
19.2244,519.01,655.05
19.2489,517.61,669.84
19.2694,513.09,657.67
19.29,511.47,616.14
19.3104,517.38,555.11
19.3309,529.1,488.49
19.3512,538.28,431.39
19.3759,546.62,393.71
19.3964,548.3,373.37
19.4169,544.84,364.9
19.4373,541.27,365.92
19.4579,535.82,369.53
19.4822,529.85,375.03
19.5028,524.48,384.22
19.5234,520.19,394.18
19.5438,518.75,408.54
19.5643,516.8,427.03
19.5847,515.84,445.83
19.6093,514.47,463.46
19.6298,511.78,479.97
19.6504,511.22,492.58
19.6708,511.78,504.26
19.6913,509.82,514.41
19.7158,508.66,519.53
19.7363,507.53,523.42
19.7568,506.22,525.94
19.7776,505.78,525.95
19.7978,506.82,525.56
19.8183,507.46,526.25
19.8427,506.57,525.2
19.8633,506.65,525.36
19.8838,507.32,527.09
19.9042,506.26,529.27
19.9248,505.41,531.02
19.9493,506.72,534.41
19.9697,507.38,539.53
19.9903,506.7,543.62
20.0107,506.56,548.3
20.0312,507.05,545.64
20.0517,512.04,543.31
20.0762,512.63,540.45
20.0968,515.31,538.16
20.1172,516.24,536.13
20.1377,515.2,533.3
20.1582,512.76,530.44
20.1827,511.21,527.15
20.2033,510.36,523.52
20.2238,511.09,520.82
20.2443,510.27,517.45
20.2647,510.42,516.16
20.2852,512.73,515.93
20.3096,512.99,517.94
20.3303,512.19,525.96
20.3506,508.15,535.76
20.3711,503.12,544.01
20.3916,499.3,548.21
20.4162,500.84,545.37
20.4367,504.47,544.09
20.4572,506.18,543.28
20.4776,506.54,539.22
20.4982,508.83,535.18
20.5186,509.07,530.34
20.5431,508.65,526.67
20.5636,507.72,522.94
20.5841,508.38,520.35
20.6046,507.1,519.68
20.625,505.68,519.14
20.6455,506.35,519.72
20.67,505.88,522.57
20.6906,506.1,525.06
20.7111,508.08,527.85
20.7315,510.46,531.08
20.7523,511.77,533.66
20.7766,514.02,536.33
20.7972,514.61,538.46
20.8176,514.89,538.57
20.8381,514.31,538.26
20.8585,514.45,536.61
20.8791,513.96,533.88
20.9035,512.97,531.11
20.9241,511.37,527.29
20.9446,510.5,524.63
20.9651,510.4,522.3
20.9857,510.52,522.24
21.01,510.42,522.79
21.0306,508.73,524.84
21.0511,508.59,528.47
21.0715,507.67,533.17
21.0921,506.34,537.74
21.1126,505.87,541.19
21.1371,506.49,543.55
21.1575,504.6,545.44
21.178,501.68,545.15
21.1986,501.14,543.52
21.2191,500.71,540.82
21.2434,501.37,535.05
21.2641,501.9,531.04
21.2845,502.72,527.44
21.3051,502.97,523.75
21.3254,502.98,521
21.346,502.18,519.8
21.3705,506.75,519.84
21.3911,509.4,521.27
21.4115,511.92,524.62
21.4321,513.33,528.89
21.4524,513.27,533.31
21.477,512.41,536.05
21.4974,512.73,538.64
21.5179,513.38,540.51
21.5384,512.31,540.61
21.5589,511.45,539.89
21.5794,509.76,537.31
21.6039,508.01,533.85
21.6247,507.6,530.28
21.645,507.28,526.82
21.6654,507.03,522.86
21.6859,506.82,519.89
21.7104,507.06,519.51
21.731,507.05,519.41
21.7515,507.84,520.73
21.7719,507.47,523.58
21.7924,506.98,526.86
21.8128,506.38,532.09
21.8374,505.7,535.47
21.8579,507.56,537.98
21.8784,508.65,540.58
21.8989,508.72,539.67
21.9193,509.18,540.13
21.9398,510.74,537.51
21.9644,510.79,533.81
21.9851,509.63,529.64
22.0054,509.51,526.32
22.0259,509.61,522.25
22.0465,508.88,518.4
22.0709,508.71,516.72
22.0914,507.17,516.78
22.112,506.33,517.02
22.1324,506.07,520.42
22.1529,506.45,525.33
22.1734,506.76,529.47
22.1979,506.41,533.57
22.2184,504.33,536.46
22.2389,503.86,538.57
22.2593,504.09,538.85
22.28,504.67,539.28
22.3044,503.54,537.43
22.3248,503.63,534.74
22.3454,506.1,531.39
22.3658,505.48,526.51
22.3863,505.79,522.41
22.4068,505.43,518.13
22.4314,504.54,516.7
22.4518,504.23,516.76
22.4723,505.99,518.21
22.4928,506.99,521.37
22.5133,506.39,524.69
22.5377,506.71,527.96
22.5583,506.97,532.16
22.5789,507.98,536.53
22.5994,507.18,539.43
22.6197,508.15,539.94
22.6402,508.32,539.75
22.6648,508.65,538.4
22.6853,508.52,535.72
22.7058,508.82,532.18
22.7263,508.45,528.14
22.7467,508.36,526.31
22.7712,508.29,524.05
22.7918,508.03,522.24
22.8123,509.03,520.79
22.833,509.42,521.23
22.8533,509.94,522.59
22.8738,510.95,535.27
22.8983,511.36,567.42
22.9189,500.49,634.33
22.9393,504.19,698.87
22.9597,503.35,762.49
22.9802,502.48,796.59
23.0048,503.99,799.48
23.0252,504.19,771.18
23.0457,502.75,721.74
23.0662,500.6,667
23.0866,500.68,621.4
23.1071,502.14,605.72
23.1316,493.72,629.57
23.1522,491.97,658.86
23.1727,492.98,683.29
23.1933,493.38,711.03
23.2137,493.91,723.42
23.2342,491.32,705.14
23.2587,490.06,658.31
23.2792,495.85,589.65
23.2997,506.68,511.72
23.3202,519.34,437.58
23.3407,529.27,380.86
23.3651,537.82,347.49
23.3857,540.86,333.19
23.4061,540.68,329.15
23.4268,537.35,333.92
23.4471,535.08,340.74
23.4676,530.66,347.79
23.4922,529.93,358.83
23.5127,526.54,370.27
23.5331,523.24,384.41
23.5536,521.19,400.13
23.5741,518.55,417.7
23.5985,516.44,437.56
23.6191,514.75,455.45
23.6396,511.8,471.96
23.6603,511.24,485.97
23.6806,509.19,496.57
23.701,507.55,504.86
23.7255,507.24,510.49
23.7461,506.59,515.19
23.7666,506.08,517.35
23.7871,505.06,516.28
23.8076,506.05,514.43
23.8323,505.84,512.14
23.8525,506.27,510.51
23.8731,506.02,509.01
23.8935,506.41,508.81
23.914,505.53,508.05
23.9345,506.62,510.04
23.959,506.7,512.83
23.9796,506.36,517.66
24.0001,506.29,522.93
24.0205,506.43,528.14
24.0411,505.94,533.52
24.0654,507.16,538.01
24.0861,507.52,539.81
24.1066,506.42,540.85
24.127,505.14,539.28
24.1475,504.11,537.22
24.1681,503.69,532.58
24.1925,504.15,528.86
24.2132,503.72,524.29
24.2336,505.18,520.23
24.2541,505.14,517.99
24.2745,506.11,517.39
24.2951,505.49,515.51
24.3195,507.39,517.41
24.34,509.31,521.13
24.3604,509.65,525.5
24.3811,510.12,530.2
24.4015,510.7,534.16
24.4259,509.36,537.33
24.4466,509.49,538.06
24.4671,508.79,538.65
24.4876,506.63,536.92
24.5079,506.3,535.14
24.5284,506.84,532.11
24.5529,506.68,528.09
24.5735,506.74,524.67
24.5939,505.59,520.34
24.6144,506.87,518.27
24.6349,506.9,517.21
24.6595,508.32,518.37
24.68,508.66,520.7
24.7005,508.72,524.36
24.721,509.58,528.69
24.7415,509.86,533.55
24.7619,510.09,537.24
24.7865,511.07,540.39
24.807,510.86,544.31
24.8276,507.29,546.05
24.8479,504.03,546.04
24.8684,502.82,544.63
24.8929,502.26,541.91
24.9134,502.21,537.72
24.9339,501.57,533.38
24.9545,502.45,529.3
24.9749,503.96,525.24
24.9954,504.57,522.59
25.0199,504.06,521.68
25.0405,505.64,522.34
25.0609,505.52,524.27
25.0814,505.21,527.42
25.1019,505.37,531.53
25.1263,504.1,535.63
25.1469,504.28,538.9
25.1674,503.62,541.12
25.1878,502.7,540.7
25.2085,502.36,540.76
25.2289,503.09,538.21
25.2533,503.07,534.57
25.274,502.46,531.25
25.2943,502.76,527.8
25.3148,502.81,524.44
25.3354,508.05,522.15
25.3559,512.44,520.72
25.3804,514.75,519.78
25.4008,517.4,521.02
25.4214,517.72,523.22
25.4417,516.58,526.37
25.4623,516.46,530.9
25.4867,516.17,535.12
25.5073,515.54,538.1
25.5278,514.43,539.88
25.5483,512.14,541.1
25.5688,512.11,541.48
25.5892,511.29,539.58
25.6137,510.23,538.07
25.6343,509.99,534.05
25.6549,509.39,529.44
25.6753,506.71,524.55
25.6957,502.77,521.24
25.7202,501.62,520.4
25.7407,500.69,519.52
25.7613,499.55,520.81
25.7818,501.24,524.05
25.8022,500.99,527.44
25.8227,501.6,531.55
25.8472,500.28,536.24
25.8677,500.62,539.79
25.8882,500.5,541.83
25.9087,499.6,543.47
25.9293,499.88,543.77
25.9536,499.7,542.62
25.9744,501.76,540.5
25.9947,501.21,536.6
26.0152,502.17,532.48
26.0356,502.93,528.58
26.0561,503.95,525.07
26.0806,504.36,522.85
26.1012,507.49,522.68
26.1217,514.39,522.35
26.1421,519.31,524.08
26.1626,521.25,526.86
26.1872,521.2,530.29
26.2077,521.96,534.43
26.2283,521.97,538.74
26.2486,520.97,542.4
26.2692,519.78,543.32
26.2897,518.42,542.85
26.3142,517.14,541.08
26.3347,516.11,538.27
26.3552,514.09,534.21
26.3756,512.47,529.37
26.3962,512.38,525.7
26.4207,510.5,520.36
26.4412,509.8,516.69
26.4616,509.44,515.55
26.4822,509.15,515.64
26.5027,510.52,517.91
26.5231,510.02,520.73
26.5476,509.21,524.98
26.5681,510.17,529.79
26.5887,510.74,534.03
26.6091,509.99,537.42
26.6296,508.99,540.54
26.65,509.79,547.63
26.6746,511.63,574.5
26.6951,499.31,593.8
26.7157,508.85,613.64
26.7361,519.48,664.91
26.7567,534.98,708.13
26.7811,547.99,727.71
26.8016,557.39,720.16
26.8221,561.91,696.33
26.8426,564.93,662.67
26.8631,562.94,624.93
26.8836,554.15,595.35
26.9081,539.32,587.08
26.9287,518.86,607.66
26.9491,519.09,620.73
26.9697,532.67,682.58
26.9901,542.54,712.87
27.0145,543.83,741.89
27.0351,537.46,754.11
27.0556,526.97,744.29
27.0762,519.98,698.43
27.0966,514.38,632.55
27.117,510.7,550.44
27.1416,509.16,462.75
27.1621,507.93,386.8
27.1826,507.14,337.04
27.2031,504.52,313.03
27.2236,500.21,307.63
27.248,496.17,315.7
27.2685,493.94,329.76
27.2891,491.75,347.01
27.3098,491.2,365.01
27.3301,491.76,384.81
27.3505,491.01,403.04
27.3749,491.21,420.84
27.3956,490.76,436.27
27.4162,491.01,450.61
27.4366,490.01,462.49
27.457,492.61,469.79
27.4775,495.49,475.83
27.5019,495.19,479.67
27.5225,495.55,482.13
27.543,495.44,486.11
27.5635,497.15,490.69
27.5839,498.32,495.75
27.6084,498.46,502.6
27.6291,498.77,508.28
27.6495,502.01,517.22
27.67,501.21,524.38
27.6904,500.17,530.9
27.7109,498.53,535.32
27.7354,499.43,537.66
27.7559,498.74,537.93
27.7764,499.59,536.94
27.7969,500.08,536.35
27.8174,501.46,533.08
27.8419,503.17,530.07
27.8625,504.53,527.05
27.883,503.43,523.04
27.9033,503.54,521.63
27.9239,505.23,521.51
27.9444,507.39,522.41
27.9689,507.31,525.52
27.9894,506.45,529.22
28.0099,508.36,533.98
28.0304,509.69,538.18
28.0509,512.55,543.54
28.0754,512.04,546.24
28.0958,509.63,547.59
28.1163,507.71,547.47
28.1369,507.76,544.98
28.1573,507.61,541.98
28.1778,506.69,537.99
28.2023,505.35,534.79
28.2228,505.08,529.03
28.2433,504.46,524.62
28.2638,504.97,521.5
28.2843,504.58,519.8
28.3087,505.46,520.24
28.3294,506.17,523.79
28.3499,508.34,527.83
28.3704,505.47,532.87
28.3908,505.77,537.69
28.4113,504.02,541.15
28.4358,503.22,543.92
28.4563,502.17,545.34
28.4768,501.94,545.87
28.4973,501.95,545.3
28.5178,501.96,543.44
28.5423,501.77,539.95
28.5627,501.81,536.96
28.5833,502.05,532.57
28.604,501.04,528.45
28.6243,501.03,525.16
28.6448,503.03,523.93
28.6692,505.02,522.94
28.6899,504.82,523.96
28.7103,504.65,527.16
28.7307,504.92,530.33
28.7512,506.54,534.47
28.7717,507.03,538.77
28.7962,506.02,542.22
28.8168,507.22,543.57
28.8373,506.38,543.86
28.8577,505.9,543.49
28.8782,506.32,540.99
28.9027,506.26,537.59
28.9232,506.21,533.27
28.9438,505.36,528.22
28.9642,506.09,524.98
28.9847,506.07,521.18
29.0052,505.66,519.54
29.0297,505.33,519.04
29.0502,505.46,520.03
29.0707,503.97,522.82
29.0911,508.98,525.86
29.1116,512.78,529.69
29.1361,514.42,534.35
29.1566,513.14,537.88
29.1771,514.71,540.1
29.1976,514.17,541.68
29.2181,513.74,541.95
29.2386,512.79,539.96
29.2631,512.63,536.97
29.2837,511.7,534.37
29.3042,509.36,529.9
29.3246,508.89,527.12
29.3451,509.11,524.89
29.3695,509.69,523.92
29.3901,509.55,523.53
29.4106,510.24,524.23
29.4311,509.79,526.38
29.4517,509.63,531.1
29.4721,508.51,535.88
29.4966,508.81,540.31
29.5171,509.45,545.05
29.5376,508.36,546.44
29.5582,509.68,545.35
29.5787,509.15,541.08
29.6031,508.72,537.06
29.6237,507.57,534.05
29.6443,505.86,529.64
29.6647,505.49,526.71
29.6851,506.59,524.17
29.7055,505.27,521.34
29.7301,505.02,519.67
29.7506,506.21,518.54
29.7712,506.57,519.43
29.7916,505.26,522.14
29.8121,505.21,526.51
29.8326,505.96,531.01
29.8571,506.17,536.01
29.8776,506.34,540.01
29.8982,507.67,542.81
29.9186,506.54,544.64
29.9392,506.43,545.32
29.9636,505.94,545.05
29.9842,505.95,543.04
30.0046,505.76,539.83
30.0252,506.01,537.67
30.0455,504.21,534.33
30.066,502.57,531.47
30.0906,503.25,529.17
30.111,504.2,531.74
30.1317,507.36,536.99
30.1522,510.29,540.99
30.1725,510.83,546.39
30.197,510.27,550.32
30.2176,510.01,554.85
30.2382,510.01,558.68
30.2585,509.41,560.55
30.2791,509.13,560.84
30.2995,507.7,559.47
30.324,506.96,557.98
30.3446,506.97,554.38
30.3651,508.57,550.5
30.3855,508.66,545
30.4061,509.33,538.8
30.4305,509.06,534.04
30.4511,509.25,530.63
30.4716,509.6,535.11
30.492,509.08,556.09
30.5126,512.26,601.87
30.533,514.01,662.29
30.5575,522.21,733.24
30.578,522.17,789.99
30.5986,524.93,829.39
30.619,525.55,832.11
30.6395,520.44,798.49
30.664,513.15,737.79
30.6844,509.72,664.83
30.705,508.58,596.07
30.7254,508.26,547.25
30.746,511.01,567.2
30.7665,506.21,567.56
30.791,511.97,601.05
30.8116,525.97,639.64
30.8319,535.78,662.91
30.8525,540.82,671.93
30.873,539.66,652.54
30.8934,538.13,608.23
30.918,536.3,554.39
30.9385,533.44,491.71
30.9589,533.55,431.97
30.9794,533.84,376.77
31,532.47,335.42
31.0244,528.58,316.54
31.0449,525.26,313.03
31.0655,520.01,317.02
31.086,515.81,326.42
31.1064,512.05,337.53
31.1269,508.64,349.43
31.1515,506.91,363.74
31.172,503.13,380.79
31.1925,505.1,398.44
31.2129,504.88,416.15
31.2334,504.71,433.12
31.2579,504.76,450.69
31.2785,504.41,467.16
31.2988,504.93,481.12
31.3194,503.74,494.5
31.3399,503.39,505.8
31.3603,504.12,513.24
31.3848,503.49,519.99
31.4053,502.19,523.39
31.4259,502.76,526.31
31.4464,501.8,527.05
31.4669,501.24,525.64
31.4912,501.59,524.31
31.5119,501.28,521.25
31.5323,500.82,519.2
31.553,500.66,516.96
31.5734,503.13,517.57
31.5938,502.5,518.85
31.6184,502.6,522.08
31.6389,503.48,526.47
31.6594,503.58,532.17
31.6798,504.87,537.34
31.7004,506.69,541.47
31.7247,506.96,544.58
31.7453,506.96,545.46
31.7659,508.37,544.17
31.7864,508.9,543.54
31.8069,508.12,541.63
31.8272,507.49,538.1
31.8517,506.6,533.88
31.8723,506.08,529.51
31.8928,505.86,525.4
31.9132,506.89,522.32
31.9337,505.71,520.86
31.9544,507.37,521.29
31.9788,506.5,524.03
31.9992,507.8,527.42
32.0198,507.84,531.94
32.0402,509.07,538.35
32.0607,509.06,543.48
32.0851,509.24,545.58
32.1058,510.8,546.67
32.1263,511.04,547.33
32.1467,510.83,547.07
32.1673,510.26,544.05
32.1876,509.21,540.04
32.2122,508.77,535.63
32.2327,508.21,529.91
32.2532,506.97,525.93
32.2738,507.58,521.54
32.2942,507.66,520.23
32.3187,507.93,519.99
32.3392,506.74,521.79
32.3597,506.2,524.83
32.3802,505.56,530.27
32.4008,504.44,535.01
32.4212,503.36,540.81
32.4456,502.28,544.25
32.4663,501.23,547
32.4866,500.98,547
32.5071,500.79,547.2
32.5277,500.23,544.56
32.5524,500.98,540.45
32.5726,501.39,537.36
32.5932,502.71,531.89
32.6137,505.37,526.71
32.6341,509.09,523.77
32.6546,511.28,521.81
32.6792,513.22,522.85
32.6997,513.98,524.28
32.7202,513.58,527.62
32.7406,514.86,530.9
32.761,513.29,534.92
32.7855,513.43,538.34
32.806,512.75,541.87
32.8266,513.4,545.89
32.8471,509.12,547.12
32.8676,505.49,545.69
32.8881,502.6,543.75
32.9126,501.08,539.4
32.9331,499.66,537.12
32.9536,499.73,532.1
32.9741,500.18,526.48
32.9945,500.75,523.38
33.015,500.8,521.91
33.0399,502.24,521.33
33.0601,505.19,523.66
33.0805,504.55,526.33
33.1011,504.64,530.06
33.1215,506.31,535.25
33.1461,507.65,540.2
33.1666,508.52,543.96
33.1871,508.82,546.77
33.2076,509.65,546.81
33.2281,508.72,546.45
33.2486,509.58,544.36
33.273,514.26,540.69
33.2935,517.01,536.75
33.314,518.01,533.4
33.3345,518.61,529.32
33.355,519.09,524.86
33.3794,518.27,523.29
33.4001,518.61,522.23
33.4205,516.09,523.18
33.4412,515.87,526.15
33.4614,515.7,529.92
33.482,515.56,534.33
33.5066,515.65,539.07
33.5272,514.32,543.65
33.5475,513.85,546.32
33.568,512.88,549.06
33.5885,511.71,548.65
33.613,513.57,548.12
33.6334,515.25,545.69
33.6541,516.2,540.56
33.6745,515.36,536.04
33.6949,513.69,531.24
33.7154,512.35,526.39
33.74,511.68,522.71
33.7604,511.34,521.57
33.781,510.88,520.65
33.8015,510.5,521.92
33.8219,510.4,527.34
33.8464,511.12,533.27
33.867,512.5,539.22
33.8874,512.4,568.17
33.9079,516.52,586.14
33.9284,509.01,621.51
33.9488,518.21,679.81
33.9733,530.37,732.85
33.9939,541.7,749.68
34.0144,553.36,738.34
34.0349,555.68,697.27
34.0554,550.95,649.82
34.0799,545.76,604.66
34.1005,535.81,573.72
34.1209,526.05,560.78
34.1413,536.04,590.62
34.1619,522.03,634.1
34.1825,527.42,677.08
34.2069,529.74,713.06
34.2274,518.39,720.85
34.248,510.31,722.68
34.2685,501.65,688.34
34.2888,496.52,638.88
34.3134,495.62,571.5
34.3339,501.29,495.8
34.3543,506.83,422.24
34.3748,513.07,367.19
34.3953,517.25,335.35
34.4159,516.8,321.88
34.4403,514.64,322.51
34.4609,510.51,329.21
34.4814,508.01,338.56
34.5019,506.61,352.85
34.5223,505.29,371.28
34.5428,505.03,390.22
34.5672,503.42,410.98
34.5878,501.94,429.98
34.6083,499.75,450.19
34.6287,498.4,465.55
34.6493,499.12,480.24
34.6737,498.5,490.19
34.6945,498.4,498.15
34.7149,499.72,501.32
34.7354,499.57,502.66
34.7558,499.66,504.33
34.7763,500.33,504.46
34.8008,499.66,503.57
34.8213,498.13,504.26
34.8418,498.1,505.6
34.8623,499.08,507.88
34.8828,500.07,511.51
34.9072,501.65,513.81
34.9277,505.12,521.64
34.9483,506.3,527.72
34.9687,506.64,533.17
34.9892,507.11,539.74
35.0097,507.29,543.99
35.0342,507.43,545.19
35.0548,506.74,546.75
35.0752,506.2,545.4
35.0957,505.76,541.32
35.1162,505.41,538.66
35.1407,503.92,533.73
35.1619,503.74,529.98
35.1818,503.79,525.58
35.2022,505.63,519.67
35.2227,507.11,516.93
35.2431,506.29,517.55
35.2679,508.43,520.44
35.2881,507.54,523.75
35.3086,509.43,529.4
35.3291,508.95,534.32
35.3496,508.96,539.26
35.3741,509.97,544.01
35.3947,508.97,546.8
35.4153,508.78,546.84
35.4356,509.02,545.27
35.4561,508.22,542.02
35.4766,508.97,538.42
35.5012,509.38,534.53
35.5218,510.1,531.03
35.5422,510.08,527.22
35.5627,511.07,522.98
35.5831,511.45,521.78
35.6036,511.56,523.03
35.6281,511.65,525.82
35.6486,510.52,530.46
35.6691,510.02,534.96
35.6896,509.61,539.97
35.7102,509.49,544.58
35.7346,508.59,547.26
35.7551,508.07,550.41
35.7756,507.46,549.33
35.7961,508.17,549.06
35.8166,507.13,545.65
35.8371,506.31,543.72
35.8617,504.45,543.58
35.882,504.16,541.46
35.9026,503.33,538.17
35.9232,503.46,535.33
35.9437,504.57,535.67
35.9681,505.25,535.53
35.9886,505.4,537.83
36.0093,505.92,541.06
36.0295,507.14,543.65
36.0501,506.51,545.72
36.0705,506.01,550.98
36.0951,509.41,555.18
36.1155,511.13,556.74
36.1361,512.7,558
36.1565,514.16,555.4
36.1772,513.93,551.72
36.2015,514.34,546.57
36.222,512.87,541.66
36.2426,512.9,535.13
36.2631,512.52,528.9
36.2836,512.22,525.72
36.3042,511.17,524.38
36.3284,511.34,524.7
36.3491,511.07,524.56
36.3696,509.86,528.25
36.3901,510.49,533
36.4104,509.59,540.6
36.4349,510.87,545.08
36.4555,510.9,548.46
36.4761,509.32,546.97
36.4965,508.65,547.98
36.5169,510.72,548.78
36.5375,509.78,545.63
36.5621,511.02,542.1
36.5826,510.62,537.68
36.6032,510.49,534.54
36.6236,510.8,533.44
36.644,510.84,531.35
36.6645,510.67,530.88
36.6889,509.74,530.1
36.7095,510.19,531.88
36.7299,510.75,534.91
36.7505,511,537.72
36.7709,511.8,544.98
36.7953,514.44,550.18
36.816,515.35,551.75
36.8365,515.08,553.2
36.8569,515.87,552.16
36.8775,516.09,550.13
36.8978,515.07,549.1
36.9225,512.26,545.48
36.9429,510.61,541.38
36.9634,510.09,535.51
36.9841,510.67,530.81
37.0045,507.34,527.05
37.0289,506.67,525.64
37.0495,508.53,525.51
37.07,507.63,528.01
37.0904,507.5,531.21
37.1109,506.4,534.96
37.1315,505.72,539.37
37.1559,506.58,543.1
37.1765,507.86,546.88
37.1969,508.29,549.7
37.2173,508.23,550.16
37.2379,505.59,548.13
37.2623,507.07,544.5
37.2829,509.05,541.8
37.3033,509.04,536.84
37.3239,509.43,532.87
37.3443,509.35,528.5
37.3648,512.28,524.4
37.3894,513.02,518.92
37.4099,512.22,520.14
37.4307,511.77,520.91
37.4508,514.02,523.53
37.4713,515.42,528.22
37.4958,514.73,532.78
37.5163,512.99,538.42
37.537,510.99,542.14
37.5575,511.79,545.91
37.5778,509.03,547.93
37.5983,509.03,547.54
37.623,507.62,544.03
37.6435,505.7,540.83
37.6638,508.16,537.26
37.6842,507.13,532.21
37.7048,505.5,527.97
37.7292,505,524.37
37.7499,505.2,522.7
37.7705,504.96,522.56
37.7908,506.77,523.65
37.8114,508.21,526.92
37.8318,509.97,532.13
37.8562,510.18,536.51
37.8767,511.14,541.41
37.8972,512.31,546.12
37.9178,513.25,549.3
37.9381,512.4,551.24
37.9588,511.72,550.79
37.9833,510.78,548.43
38.0037,510.82,545.15
38.0242,511.26,541.32
38.0447,510.61,537.85
38.0651,509.68,532.08
38.0897,509.55,528.27
38.1102,509.44,527.21
38.1308,509.55,526.97
38.1512,509.24,537.18
38.1717,507.19,567.34
38.1922,507.15,636.27
38.2167,514.52,684.82
38.2372,524.02,750.05
38.2576,529.01,801.84
38.2781,535.81,821.28
38.2986,538.65,803.62
38.3232,536.92,759.3
38.3437,529.94,700.04
38.3642,521.95,642.43
38.3847,513.36,612.94
38.4051,511.09,586.55
38.4257,494.67,595.84
38.4503,500.54,612.88
38.4707,510.03,644.1
38.4911,512.02,665.28
38.5116,516.22,659.02
38.5321,514.37,623.02
38.5566,515.3,571.02
38.5771,519.24,510.21
38.5977,522.19,450.77
38.6181,524.75,403.22
38.6389,525.4,377.57
38.6593,523.72,366.86
38.6836,519.78,366.69
38.7041,514.62,372.95
38.7246,509.5,380.76
38.7453,507,389.01
38.7656,504.2,397.21
38.7901,503.56,405.76
38.8108,503.85,415.21
38.8311,504.08,426.37
38.8516,503.86,438.9
38.8723,503.29,450.72
38.8926,504.03,463.97
38.9171,503.43,477.98
38.9376,502.14,491.58
38.9581,501.31,504.87
38.9787,501.05,514.69
38.9991,501.64,522.75
39.0195,500.11,530
39.0441,500.69,534.6
39.0646,501.15,536.48
39.0851,501.12,535.19
39.1056,501.5,533.95
39.126,501.2,531.36
39.1505,501.76,527.69
39.1711,503.01,524.95
39.1915,502.61,523.16
39.212,503.68,522.13
39.2325,504.15,522.9
39.2531,504.72,526.12
39.2777,504.97,530.9
39.2981,505.78,536.72
39.3186,506.22,543.17
39.3391,506.18,547.34
39.3596,505.74,551.47
39.384,506.39,553.58
39.4045,506.12,553.86
39.4251,507.29,554.49
39.4455,507.43,552.59
39.466,506.75,547.87
39.4865,506.8,545.3
39.5109,506.64,541.24
39.5316,507.51,536.59
39.552,506.61,530.47
39.5728,506.49,524.38
39.5932,505.99,520.7
39.6175,507.39,521.36
39.6381,508.51,525.69
39.6585,508.21,529.95
39.6791,508.77,535.16
39.6995,509.81,540.93
39.7199,509.05,546.14
39.7445,507.84,549.11
39.7649,506.27,549.49
39.7854,506.42,549.39
39.8061,506.53,547.91
39.8264,505.63,545.33
39.8508,505.5,542.27
39.8714,505.2,539.81
39.892,504.36,536.25
39.9124,503.49,532.6
39.933,504.39,530.48
39.9534,505.11,530.98
39.9778,506.69,533.79
39.9984,508.35,538.83
40.019,509.08,547.46
40.0393,510.27,557.57
40.0599,511.81,565.26
40.0844,512.05,569.21
40.1049,512.24,570.56
40.1254,512.59,569.45
40.146,511.87,568.16
40.1664,510.3,565.33
40.1868,511.04,560.66
40.2113,509.83,554.53
40.2319,509.67,549.42
40.2523,507.93,542.94
40.2729,508.15,538.55
40.2934,507.72,534.24
40.3137,509.17,532.99
40.3383,509.74,535.59
40.3589,511.59,537.48
40.3793,511.67,540.98
40.3998,511.74,545.78
40.4204,510.99,550.83
40.4447,510.59,553.46
40.4654,511.27,554.97
40.486,511.42,554.58
40.5063,509.74,555.26
40.5268,510.79,553.21
40.5472,509.23,549.57
40.5718,509.18,544.25
40.5924,509.15,539.2
40.6128,508.92,534.96
40.6332,510.73,531.37
40.654,510.79,529.1
40.6782,510.83,530.28
40.6988,509.46,530.02
40.7193,509.57,533.42
40.7398,510.46,538.53
40.7603,510.37,542.83
40.7808,509.49,548.26
40.8054,510.79,550.41
40.8259,510.44,554.13
40.8462,509.15,553.5
40.8668,508.52,552.4
40.8872,507.41,550.72
40.9117,507.33,548.58
40.9323,507.27,543.86
40.9528,507.01,540.09
40.9733,507.61,536.27
40.9937,508.09,532.02
41.0142,508.47,529.21
41.0386,508.58,527.37
41.0592,510.06,528.5
41.0798,510.25,532.2
41.1003,510.4,536.56
41.1207,511.32,541.25
41.1452,509.86,546.6
41.1657,509.68,551.28
41.1863,509.35,553.62
41.2067,509.28,553.9
41.2272,509.82,553.32
41.2477,508.06,552.05
41.2721,506.05,547.84
41.2927,505.84,543.87
41.3132,505.87,539.7
41.3338,506.9,536.36
41.3541,509.12,531.69
41.3747,511.29,528.55
41.3991,512.23,528.44
41.4199,510.99,530.95
41.4401,510.39,531.16
41.4606,510.71,536.13
41.4812,511.97,540.1
41.5057,512.18,545.08
41.5263,512.14,550.07
41.5466,510.91,553.25
41.5671,512.13,555.8
41.5877,512.3,556.04
41.6083,511.64,552.83
41.6326,512.51,549.67
41.6531,514.01,545.33
41.6736,514.41,539.27
41.6941,513.73,534.21
41.7145,512.98,530.17
41.7394,513.99,527.14
41.7596,513.39,525.71
41.7802,512.51,525.17
41.8005,513.01,528.13
41.8211,512.41,536.31
41.8416,512.13,575.45
41.8661,516.3,605.56
41.8865,519.44,655.05
41.9071,523.55,700.84
41.9276,529.64,741.67
41.9481,538.31,746.14
41.9726,548.45,718.31
41.9931,547.76,670.45
42.0137,546.61,620.16
42.0342,541.69,580.73
42.0547,532.15,573.98
42.0752,526.92,582.18
42.0996,525.14,562.95
42.1202,536.91,589.36
42.1406,540.93,615.49
42.161,543.94,620.79
42.1816,547.55,594.83
42.206,549.64,550.27
42.2265,550.51,502.61
42.247,542.61,467.09
42.2675,530.49,443.87
42.2879,518.59,431.5
42.3085,508.47,427.4
42.333,499.98,428.92
42.3537,494.18,433.53
42.3741,488.35,439.43
42.3945,485.28,445.94
42.4151,483.22,450.35
42.4395,483.58,454.48
42.46,484.86,461.59
42.4805,485.49,469.07
42.5012,487.19,476.26
42.5215,487.75,485
42.5419,489.2,495.2
42.5664,490.96,504.96
42.5869,492.17,513.37
42.6074,492.34,522.1
42.6279,493.07,525.28
42.6484,495.45,524.82
42.6689,496.36,524.26
42.6934,496.89,526.21
42.7141,497.91,526.76
42.7345,496.33,524.61
42.7549,496.86,521.09
42.7754,497.69,519.27
42.7999,498.75,516.62
42.8204,500.2,515.29
42.8409,501.56,513.84
42.8614,501.65,513.67
42.8819,501.92,515.53
42.9025,502.74,520.83
42.9269,502.59,526.86
42.9474,502.87,532.49
42.9678,502.3,539.59
42.9885,504.04,544.67
43.0089,503.63,546.74
43.0335,503.5,549.79
43.054,505,548.23
43.0745,504.2,546.79
43.095,503.96,542.83
43.1154,502.77,538.46
43.1358,502.42,532.97
43.1604,502.53,529.98
43.1809,503.03,527.18
43.2013,503.22,526.54
43.2219,505.38,527.04
43.2424,506.3,529.23
43.267,507.04,532.38
43.2873,508.63,537.31
43.3079,509.31,541.65
43.3284,509.85,545.52
43.3489,510.88,547.01
43.3692,509.9,549.21
43.3938,510.72,549.57
43.4143,509.18,548.65
43.4349,509.14,546.92
43.4553,507.91,543.54
43.4758,508.53,540.03
43.5003,501.62,535.42
43.5208,491.7,530.34
43.5414,482.96,527.07
43.5619,478.37,525.46
43.5824,478.29,525.57
43.6028,477.84,528.25
43.6272,478.87,530.6
43.6478,479.69,534.88
43.6683,482.36,540.71
43.6888,484.68,544.56
43.7092,486.95,548.65
43.7337,488.96,550.12
43.7542,491.37,550.3
43.7747,491.89,549.84
43.7952,495.11,549.27
43.8157,507.69,546.82
43.8362,516.75,544.25
43.8608,523.6,540
43.8814,528.08,534.8
43.9018,532.07,530.64
43.9223,532.45,528.91
43.9428,531.36,527.53
43.9631,530.09,528.62
43.9878,528.67,531.1
44.0082,525.54,535.08
44.0287,523.63,538.86
44.0492,523.3,543.29
44.0696,522.84,546.43
44.0941,519.87,549.35
44.1147,517.3,549.48
44.1352,516.44,547.98
44.1556,514.35,545.99
44.1762,512.08,542.59
44.1966,510.47,537.87
44.2212,509.97,533.7
44.2417,509.38,530.16
44.2622,512.3,527.93
44.2827,516.44,526.94
44.3032,518.35,525.95
44.3276,520.68,526.36
44.3482,521.75,529.09
44.3686,521.2,534.27
44.3892,519.56,539.82
44.4097,520.45,546.05
44.4302,521.56,552.64
44.4546,522.05,557.51
44.4753,521.04,560.61
44.4957,519.03,560.49
44.5161,518.02,557.99
44.5366,515.42,552.79
44.5611,514.53,548.43
44.5817,512.23,542.15
44.6022,511.98,534.92
44.6226,510.99,529.53
44.6431,509.99,526.23
44.6636,508.99,524.38
44.6881,509.19,525.11
44.7086,508.55,528.88
44.7291,508.64,532.31
44.7496,508.51,537.05
44.7702,510.21,541.24
44.7945,509.77,544.79
44.8151,510.82,544.03
44.8356,509.45,540.63
44.8561,509.56,537.9
44.8765,509.05,535.92
44.8971,509.24,532.14
44.9215,509.39,526.71
44.9421,508.31,523.37
44.9626,507.05,519.89
44.983,507.04,517.11
45.0035,507.03,516.09
45.0279,507.23,514.67
45.0485,506.98,515.94
45.0691,508.58,519.35
45.0896,508.07,524.48
45.1101,508.25,528.58
45.1307,508,533.87
45.155,508,537.29
45.1756,508.4,539.04
45.196,507.52,540.83
45.2165,506.02,546.06
45.237,507.61,550.85
45.2574,509.09,550.68
45.282,508.27,548.74
45.3025,509.22,544.8
45.323,508.97,539.84
45.3434,509.38,534.07
45.364,508.7,532.26
45.3885,509.36,531.8
45.4091,509.49,531.04
45.4296,510.19,533.63
45.4501,510.55,537.11
45.4705,509.64,539.69
45.4909,512.31,542.55
45.5155,513.05,545.84
45.536,513.44,548.67
45.5565,513.35,549.14
45.577,511.28,546.71
45.5974,511.03,545.17
45.6219,510.22,540.33
45.6424,509.58,535.67
45.6629,507.46,531.53
45.6835,506.97,527.63
45.7039,507.98,522.5
45.7244,508.58,520.2
45.749,508.66,519.16
45.7695,508.33,520.13
45.79,510.47,524.1
45.8104,509.77,528.28
45.8309,511.22,533.63
45.8554,510.37,538.5
45.8759,510.5,543
45.8964,511,545.6
45.9169,512.2,547.28
45.9376,511.36,549.82
45.9578,511.69,557.46
45.9823,512.15,596.77
46.003,505.32,609.01
46.0234,513.66,654.61
46.044,522.12,726.89
46.0644,525.1,778.51
46.0888,519.88,815.01
46.1093,514.7,815.21
46.1299,509.36,774.57
46.1504,509.49,710.05
46.1708,510.39,639.84
46.1913,511.91,576.67
46.2158,517.13,552.14
46.2363,518.3,563.51
46.257,529.24,587.41
46.2774,530,622.13
46.298,540.4,639.3
46.3184,544.92,649.04
46.3429,549.33,604.43
46.3633,550.27,531.15
46.3838,551.01,457.12
46.4043,545.61,399.29
46.4248,537.69,358.84
46.4492,527.55,336.67
46.4699,517.44,331.73
46.4903,509.35,337.19
46.5108,503.68,350.55
46.5313,499.15,369.44
46.5518,496.32,387.75
46.5764,494.65,407.4
46.5969,492.72,425.52
46.6172,493.38,443.02
46.6379,494.3,456.41
46.6582,495.64,469.33
46.6827,494.91,479.46
46.7034,494.73,488.17
46.7238,496.18,493.34
46.7443,497.15,497.07
46.7648,496.52,498.66
46.7853,496.01,500.32
46.8097,497.21,502.86
46.8302,498.57,502.69
46.8508,497.66,502.55
46.8713,497.52,503.64
46.8917,498.42,508.51
46.9163,499.34,514.61
46.9367,501.07,521.09
46.9572,501.85,526.87
46.9778,501.28,532.3
46.9982,500.83,540.84
47.0187,503.06,550.47
47.0432,504.25,556.18
47.0637,505.6,558.14
47.0842,506.08,556.91
47.1047,506.46,554.73
47.1252,506.17,549.58
47.1496,505.94,543.87
47.1702,505.95,539.09
47.1907,505.76,535.08
47.2112,506.01,532.86
47.2316,506.81,532.49
47.2522,508.64,533.79
47.2767,508.92,536.83
47.2973,509.33,539.47
47.3177,508.67,543.17
47.3383,508.53,544.54
47.3586,507.43,545.63
47.3791,507.54,545.1
47.4036,508.83,542.68
47.4241,509.07,538.55
47.4446,511.05,535.04
47.4652,511.64,530.43
47.4856,509.71,524.94
47.51,509.77,520.76
47.5306,511.42,517.8
47.5512,510.93,517.24
47.5717,510.75,517.19
47.5921,511,520.36
47.6125,510.6,520.88
47.637,509.08,523.31
47.6576,506.66,527.85
47.6781,505.73,532.28
47.6986,506.18,537.42
47.7191,506.75,540.34
47.7435,506,542.07
47.764,505,542.66
47.7846,504.4,541.92
47.8051,504.92,545.34
47.8255,507.14,545.07
47.846,509.71,543.06
47.8705,510.37,539.45
47.8912,510.89,536.56
47.9115,510.71,534.05
47.9321,510.97,533.24
47.9525,511.18,531.79
47.977,511.74,533.23
47.9975,512.59,535.99
48.0181,511.87,540.39
48.0385,511.1,543.71
48.059,512.88,547.37
48.0794,513.5,550.29
48.1041,513.6,552.04
48.1245,514.28,553.23
48.145,514.63,550.58
48.1655,514.5,547.47
48.1859,514.2,542.57
48.2104,513.76,538.06
48.2309,513.41,533.05
48.2515,513.33,528.44
48.2719,513.06,525.35
48.2925,511.85,524.88
48.3129,511.88,524.9
48.3374,512.3,528.52
48.3579,512.44,531.62
48.3786,512.55,537.09
48.399,511.84,540.48
48.4194,512.07,542.38
48.4401,512.46,543.9
48.4645,514.37,546.12
48.485,514.09,545.5
48.5055,514.48,545.2
48.526,514.98,541.76
48.5465,513.38,540.01
48.5709,513.11,536.01
48.5914,511.89,532
48.6121,511.31,527.6
48.6325,510.05,525.68
48.6529,509.44,524.55
48.6734,509.15,526.44
48.6979,509.12,528.55
48.7185,507.9,532.24
48.739,508.32,536.99
48.7594,509.05,541.39
48.7799,509.24,545.51
48.8044,507.99,547.61
48.8249,509.8,548.49
48.8455,509.84,547.39
48.866,509.67,544.91
48.8864,509.34,541.33
48.9069,507.47,537.06
48.9313,506.77,531.85
48.952,505.82,527.28
48.9724,506.46,522.83
48.9929,506.76,521.66
49.0134,508.01,519.33
49.0379,508.41,518.46
49.0583,507.93,520.97
49.0789,509.14,523.18
49.0994,510.71,562.94
49.1198,511.17,602.35
49.1403,530.94,632.48
49.165,534.35,685.19
49.1853,533.28,725.35
49.2059,544.22,741.48
49.2263,556.78,715.98
49.2469,561.42,661.39
49.2712,562.94,594.91
49.2918,558.15,539.33
49.3125,547.52,499.86
49.3329,533.02,479.09
49.3534,519.41,511.87
49.374,508.33,516.1
49.3985,511.86,516.88
49.4189,511.29,577.9
49.4394,524.23,596.12
49.4598,535.79,589.9
49.4803,543.63,560.32
49.5008,547.7,521.65
49.5253,544.56,495.72
49.5459,533.25,477.98
49.5663,519.2,467.38
49.5867,505.16,461.91
49.6073,493.73,461.13
49.6318,486.58,459.5
49.6523,480.07,462.2
49.6728,477.05,464.76
49.6933,473.44,467.61
49.7138,475.35,470.69
49.7343,476.68,475.35
49.7588,478.15,481.48
49.7793,479.32,489.98
49.7998,481.85,497.99
49.8202,483.68,508.79
49.8408,485.35,519.43
49.8652,488.68,527.75
49.8857,490.34,533.2
49.9062,491.27,537.36
49.9268,492.62,540.89
49.9472,492.69,540.51
49.9677,494.56,537.41
49.9922,495.64,535.53
50.0128,498.52,533.82
50.0333,497.21,529.46
50.0537,496.57,525.77
50.0741,499.46,524.21
50.0986,503.76,523.57
50.1192,505.41,524.66
50.1397,502.93,525.92
50.1602,504.14,529.14
50.1807,507.71,534.51
50.2012,507.57,539.81
50.2256,506.46,545.65
50.2462,505.37,548.52
50.2667,505.09,550.21
50.2871,506.07,550.97
50.3077,505.06,548.98
50.3323,504.05,547.18
50.3528,504.04,543.35
50.3733,504.23,538.28
50.3936,505.38,532.22
50.4142,504.31,527.98
50.4345,501.65,524.78
50.459,502.52,523.63
50.4796,504.61,523.1
50.5001,502.49,524.48
50.5206,495.99,527.98
50.5411,492.59,532.59
50.5615,490.08,536.47
50.5861,490.86,541.18
50.6065,491.29,544.94
50.6271,491.63,547.55
50.6475,489.9,547.84
50.6682,490.72,547.27
50.6925,490.18,543.82
50.7131,491.94,539.46
50.7336,495.75,535.56
50.7542,498.2,530.05
50.7746,499.96,525.84
50.795,500.97,522.67
50.8195,504.58,520.94
50.8401,515.66,521.15
50.8607,521.93,523.32
50.881,527.14,527.06
50.9016,529.71,531.25
50.926,529.97,536.6
50.9465,530.38,541.48
50.967,529.5,544.58
50.9875,527.2,546.67
51.008,524.96,545.93
51.0284,520.97,546.35
51.053,516.98,543.48
51.0735,515.38,540.18
51.094,515.1,532.95
51.1145,514.08,528.56
51.135,511.47,524.24
51.1595,510.57,520.2
51.18,509.46,519.16
51.2005,509.37,518.93
51.2211,508.69,520.94
51.2415,507.95,524.95
51.262,508.96,529.96
51.2865,510.17,534.57
51.3071,509.34,539.66
51.3275,509.47,543.52
51.3479,508.78,546.62
51.3684,507.62,547.5
51.3929,507.3,546.8
51.4135,505.84,544.84
51.434,503.87,541.47
51.4545,503.1,538.18
51.4749,503.28,532.94
51.4955,503.22,527.55
51.52,504.18,524.04
51.5405,503.74,522.63
51.5611,508.39,523.71
51.5815,513.31,524.97
51.6019,517.05,529.17
51.6223,518.64,533.14
51.6469,519.91,538.91
51.6675,519.33,542.33
51.6879,518.66,547.06
51.7085,518.13,549.65
51.7289,515.91,550.32
51.7535,514.52,549.06
51.7739,513.22,542.04
51.7944,511.98,536.24
51.8149,510.98,530.99
51.8354,510.38,525.19
51.8559,509.11,520.55
51.8804,508.09,516.84
51.9009,508.27,514.07
51.9214,509.02,514.26
51.9418,508.41,516.41
51.9624,508.53,519.93
51.9868,508.02,524.34
52.0074,508.42,530.07
52.0279,508.34,535.06
52.0483,507.67,540.05
52.069,507.53,548.64
52.0894,508.83,559.51
52.1138,510.66,563.81
52.1344,511.73,564.25
52.1549,512.38,561.8
52.1754,511.71,557.24
52.1958,511.17,552.19
52.2203,511.13,545.55
52.2408,511.11,539.44
52.2613,510.28,536.55
52.2819,511.83,534.04
52.3023,511.06,533.03
52.3228,510.65,534.23
52.3474,510.12,537.38
52.3679,510.9,540.71
52.3884,511.52,543.36
52.4089,511.41,545.49
52.4293,510.93,548.59
52.4537,510.34,550.07
52.4743,511.08,573.26
52.4948,513.46,616.81
52.5153,523.97,653.45
52.5357,529.77,680.36
52.5563,530.42,717.49
52.5808,530.74,725.39
52.6013,525.19,704.51
52.6217,522.75,660.81
52.6422,522.4,609.65
52.6627,519.72,569.32
52.6872,516.38,548.45
52.7077,514.7,553.16
52.7283,499.96,529.73
52.7487,502.97,582.78
52.7693,522.58,620.63
52.7897,531.46,664.1
52.8142,528.17,684.48
52.8348,511.13,682.19
52.8553,502.91,654.95
52.8757,499.93,604.96
52.8961,504.14,543.97
52.9207,511.91,480.37
52.9413,520.13,423.1
52.9617,526.3,378.08
52.9823,533.84,352.06
53.0027,536.47,343.85
53.0232,534.58,348.28
53.0478,532.06,359.82
53.0682,527.25,374.66
53.0887,523.8,392.33
53.1091,520.64,411.46
53.1296,518.51,429.77
53.1503,514.41,447.02
53.1746,510.53,462.61
53.1953,508.62,476.09
53.2156,507.3,487.07
53.2362,505.04,496.06
53.2566,501.63,501.65
53.2811,500.1,504.12
53.3016,500.28,505.09
53.3221,499.63,506.47
53.3428,498.5,507.38
53.3631,497.4,509.1
53.3836,496.32,511.68
53.4081,497.66,517.75
53.4287,500.13,524.2
53.4492,499.7,530.16
53.4695,500.16,535.73
53.4901,500.53,541.78
53.5145,500.42,546.02
53.5351,500.94,548.22
53.5559,501.35,547.78
53.5762,501.28,549.22
53.5965,500.02,545.18
53.6171,501.62,540.54
53.6417,504.1,535.03
53.6622,506.68,530.23
53.6826,508.54,526.98
53.7032,508.83,522.78
53.7235,507.47,520.63
53.748,508.57,521.7
53.7685,509.66,523.36
53.789,509.73,527.29
53.8095,511.98,531.03
53.83,513.59,535.43
53.8504,514.27,539.54
53.875,513.61,542.83
53.8955,513.89,544.47
53.9161,514.51,544.97
53.9365,513.41,542.78
53.957,513.33,540.22
53.9814,514.46,537.78
54.0019,515.37,537.02
54.0225,510.5,537.42
54.043,500,537.73
54.0635,481.6,536.99
54.084,466.68,535.79
54.1084,457.94,534.23
54.129,457.15,534.39
54.1494,459.32,535.51
54.1699,463.26,536.41
54.1904,465.81,538.33
54.2109,471.05,541.46
54.2355,475.04,543.17
54.256,479.43,543.33
54.2764,482.94,542.47
54.2969,487.55,540.77
54.3174,491.84,536.62
54.342,495.08,531.5
54.3624,497.86,527
54.3829,498.49,522.6
54.4034,500.19,517.08
54.4239,502.15,513.86
54.4444,502.52,513.49
54.4689,502.62,512.59
54.4894,503.49,515.27
54.5099,505.6,518.62
54.5304,508.28,522.9
54.5509,508.42,527.92
54.5754,507.14,532.93
54.5959,506.71,537.15
54.6165,509.17,540.52
54.6369,509.13,540.81
54.6573,507.71,541.25
54.678,505.37,537.8
54.7024,511.09,531.24
54.7229,530.07,524.79
54.7434,546.86,518.83
54.7639,556.09,515.27
54.7845,560.07,512.61
54.8088,563.46,511.29
54.8294,563.16,511.23
54.8499,559.13,514.19
54.8704,553.31,518.95
54.8909,549.44,524.16
54.9113,546.96,530.93
54.9359,542.96,536.54
54.9564,537.97,541.43
54.9769,534.18,545.35
54.9974,531.54,547.88
55.0178,529.63,548.7
55.0423,526.71,546.76
55.0628,523.37,544.01
55.0835,520.69,541.01
55.104,518.55,536.61
55.1243,516.64,532.08
55.1448,514.71,527.27
55.1692,513.57,525.01
55.1898,514.86,528.01
55.2104,508.69,534.81
55.2309,492.75,537.65
55.2514,481.2,540.32
55.2758,473.36,542.85
55.2962,471.49,546.48
55.3169,471.59,548.19
55.3373,471.87,548.55
55.3577,474.5,547.64
55.3782,477,545.91
55.4027,476.8,543.13
55.4233,479.04,538.9
55.4438,481.03,533.52
55.4643,483.82,529.22
55.4849,485.26,523.37
55.5052,486.21,517.9
55.5297,489.37,514.72
55.5502,492.69,513.38
55.5707,493.15,513.9
55.5912,495.12,516.92
55.6116,497.7,521.14
55.6362,499.96,525.91
55.6567,500.57,530.33
55.6773,502.65,534.46
55.6977,506.12,537.77
55.7182,505.1,538.62
55.7387,504.48,538.09
55.7632,504.58,538.07
55.7837,506.07,538.06
55.8042,505.45,535.65
55.8246,504.36,531.92
55.8453,504.89,527.73
55.8697,505.71,522.19
55.8901,507.97,517.75
55.9108,506.98,515.2
55.9312,506.78,514.56
55.9517,508.22,516.25
55.9723,509.38,520
55.9968,508.9,523.8
56.0172,509.52,529.24
56.0377,509.82,534.19
56.0582,508.65,537.55
56.0787,507.32,539.84
56.1031,507.06,540.67
56.1237,507.85,540.74
56.1444,508.48,538.79
56.1648,507.18,536.23
56.1853,507.95,533.79
56.2057,507.96,529.63
56.2301,508.97,526.3
56.2507,507.57,524.24
56.2711,506.86,523.39
56.2916,506.89,523.12
56.3121,507.51,525.29
56.3327,509.01,529.43
56.357,509.21,534.35
56.3776,508.96,538.28
56.3981,509.97,543.22
56.4186,509.38,545.78
56.4391,508.9,3.77446e-29
