Program Time [s],data 0,data 1
5.62323,509.3,525.5
5.62325,511.04,529.2
5.62328,513.03,533.56
5.62331,513.43,536.85
5.62334,514.94,540.28
5.62337,515.55,542.82
5.6234,515.24,544.66
5.62343,514.39,544.33
5.62344,523.62,525.5
5.62347,509.3,529.2
5.6235,511.04,533.56
5.62352,513.03,536.85
5.62355,513.43,540.28
5.62358,514.94,542.82
5.62361,515.55,544.66
5.62364,515.24,544.33
5.62367,514.39,515
7.13744,511.6,518.2
7.15791,510.88,522.16
7.18247,512.7,526.53
7.20297,514.36,530.62
7.22358,516.09,534.7
7.24396,517.47,538.56
7.26443,519.18,540.45
7.28885,519.74,540.16
7.30939,519.59,538.13
7.32991,519.08,536.9
7.35051,516.46,532.92
7.37088,516.97,528.74
7.39144,516.37,524.59
7.41591,515.3,521.27
7.43651,513.84,517.82
7.45686,513.27,516.45
7.47744,512.62,517.16
7.49784,512.29,519.93
7.52241,512.24,524.94
7.54289,510.19,527.56
7.56345,518.55,528.44
7.58553,530.04,530.76
7.60444,536.43,533.8
7.62481,539.95,535.04
7.64939,540.36,537.03
7.66991,540.09,537.23
7.69044,536.07,536.98
7.71088,533.05,535.19
7.73138,529.44,532.35
7.7558,526.55,529.48
7.77635,523.04,526.58
7.79684,520.24,524.27
7.81732,517.99,523.21
7.83783,515.79,522.17
7.85829,514.63,523.14
7.88278,514.11,526.91
7.90333,514.28,530.13
7.92382,514.03,534.5
7.94442,515.62,538
7.96486,515.9,541.4
7.98925,517.32,543.12
8.00982,516.25,543.9
8.03033,516.4,542.72
8.05085,515.72,540.97
8.07131,513.78,537.98
8.09178,512.82,534.98
8.11629,510.46,532.19
8.13686,511.37,529.35
8.15729,511.09,526.68
8.17774,510.47,523.14
8.19823,511.78,523.11
8.21872,512.62,524.49
8.24324,512.9,527.59
8.26384,513.52,531.27
8.28426,513.82,535.02
8.30474,513.05,539.22
8.3252,513.24,541.77
8.3497,514.19,543.42
8.37028,513.75,544.53
8.39077,513.4,543.83
8.41123,512.72,541.86
8.43168,512.38,538.89
8.4522,512.1,534.91
8.47674,510.88,533.53
8.49732,508.51,564.42
8.51783,513.2,548.94
8.53823,508.76,616.15
8.55872,491.81,695.12
8.58321,509.65,741.1
8.60371,522.52,757.08
8.62421,551.62,752.86
8.64472,525.69,744.89
8.66522,521.15,730.51
8.68568,514.92,724.41
8.71021,516.74,705.93
8.73079,514.19,663.34
8.75123,521.35,610.87
8.77176,538.08,542.3
8.79215,545.47,474.04
8.81674,527.57,432.23
8.83719,538.26,419.19
8.8577,523.61,403.15
8.87821,520.89,442.52
8.89867,529.91,449.01
8.91917,545.93,492.41
8.94372,534.14,522.73
8.96418,500.91,539.98
8.98475,471.93,546.59
9.00515,481.54,553.27
9.02559,478.64,542.22
9.05012,476.51,513.17
9.07071,479.41,482.94
9.09112,482.53,439.75
9.11165,488.82,389
9.1321,496.46,337.4
9.15256,500.97,299.12
9.17718,505.17,278.9
9.19761,505.74,274.52
9.2182,504.59,281.61
9.23863,501.87,299.69
9.25913,500.1,318.95
9.28351,498.88,341.76
9.30408,497.7,367.01
9.32459,496.36,391.61
9.3451,495.49,417.49
9.36554,494.79,441.79
9.38607,496.03,465.63
9.41061,496.23,486.5
9.43114,499.38,502
9.45157,499.71,513.8
9.47204,501.16,522.04
9.49251,502.53,529.03
9.51299,501.83,533.63
9.53753,502.06,537.7
9.55814,500.85,538.56
9.57854,501.48,539.85
9.59906,499.78,539.08
9.61966,499.43,539.26
9.64401,500.34,541.21
9.66453,501.67,543.17
9.68501,502.74,545.73
9.70549,503.39,550.59
9.72603,505.11,553.87
9.7465,505.89,558.1
9.77098,507.51,561.08
9.79151,508.61,564.06
9.81216,509.29,564.25
9.83248,509.63,563.6
9.85295,509.3,561.88
9.87749,509.24,558.1
9.89805,510.59,557.88
9.9185,513.68,557.11
9.93896,514.74,554.29
9.95948,515.19,551.43
9.97997,515.55,549.34
10.0046,516.44,547.87
10.025,516.75,546.9
10.0456,516.8,548.72
10.0661,517.04,550.38
10.0865,517.43,553.3
10.1109,517.35,556.24
10.1315,517.88,559.19
10.152,517.5,560.15
10.1725,517.6,559.92
10.193,515.48,559.94
10.2136,515.79,557.35
10.2379,514.83,553.88
10.2585,516.26,549.7
10.279,513.81,544.16
10.2994,512.05,539.53
10.32,509.84,535.42
10.3445,508.67,532.34
10.3649,508.74,530.87
10.3855,509.79,530.5
10.4061,510.23,531
10.4265,510.59,533.8
10.4469,511.87,537.24
10.4715,512.29,541.99
10.4919,513.84,546.19
10.5125,513.67,548.75
10.5329,513.93,549.6
10.5534,513.75,549.28
10.5738,513,547.63
10.5984,512.4,545.1
10.6189,511.52,541.28
10.6394,511.62,538.62
10.6598,510.69,535.5
10.6804,509.75,531.8
10.7049,510.6,528.84
10.7255,509.08,527.27
10.7458,509.27,526.82
10.7664,509.41,527.05
10.7868,510.33,529.44
10.8073,509.86,532.55
10.8318,510.89,536.24
10.8524,511.91,541.19
10.8729,512.73,543.96
10.8933,512.98,544.76
10.9138,513.79,544.01
10.9382,514.23,542.81
10.9588,514.58,539.65
10.9793,514.27,535.92
10.9998,513.41,531.93
11.0203,511.93,528.35
11.0408,511.74,524.28
11.0654,511.6,521.82
11.0859,511.28,519.86
11.1063,510.82,520.89
11.1268,511.06,522.71
11.1474,510.05,525.77
11.1718,511.04,529.61
11.1923,511.23,534.09
11.2128,512.38,538.87
11.2333,511.71,542.7
11.2538,511.17,544.16
11.2743,511.33,545.53
11.2987,511.07,544.42
11.3194,511.25,542.94
11.3398,510,540.75
11.3603,509.6,536.2
11.3807,511.48,531.76
11.4053,510.99,527.61
11.4257,510.59,524.69
11.4464,510.47,522.35
11.4668,508.98,522.08
11.4872,508.78,523.66
11.5077,509.42,527.53
11.5322,510.74,530.82
11.5527,509.99,534.66
11.5732,510.59,538.73
11.5938,511.47,542.18
11.6142,513.58,543.35
11.6387,514.06,543.68
11.6593,512.25,543.34
11.6797,511.2,541.07
11.7002,510.16,538.66
11.7206,509.73,535.33
11.7411,508.38,531.66
11.7657,508.51,527.73
11.7862,507.41,524.98
11.8068,507.32,524.39
11.8272,508.46,522.91
11.8476,507.77,523.73
11.8682,509.41,526.58
11.8926,510.73,530.67
11.9133,510.18,534.93
11.9337,511.95,539.55
11.9543,512.36,542.64
11.9746,514.09,544.71
11.9991,511.27,544.97
12.0197,516.22,545.37
12.0402,522.37,543.5
12.0607,526.7,540.2
12.0812,528.76,535.76
12.1016,528.41,531.41
12.1261,528.53,526.13
12.1468,527.42,523.5
12.1671,525.54,522.8
12.1876,525.03,522.44
12.2082,523.42,523.75
12.2327,523.74,527.4
12.2531,522.79,535.32
12.2737,522.03,574.06
12.2941,515.03,553.05
12.3146,526.02,585.24
12.3351,531.62,643.19
12.3595,547.49,717.95
12.3802,561.79,773.56
12.4007,568.44,765.65
12.4211,562.35,766.72
12.4415,555.68,759.58
12.466,545.94,756.46
12.4866,539.75,741.57
12.5071,531.2,696.45
12.5277,519.56,637.96
12.5481,518.25,572.37
12.5685,509.8,496.1
12.593,524.24,438.08
12.6136,517.19,413.26
12.6341,510.35,419.01
12.6545,518.28,445.41
12.675,497.43,484.73
12.6995,488.14,546.78
12.7202,501.91,589.62
12.7405,506.93,627.9
12.761,506.74,647.92
12.7815,498.6,657.94
12.8021,486.08,659.35
12.8265,475.66,642.28
12.8471,477.73,613.42
12.8676,475.98,566.54
12.8881,479.99,501.03
12.9085,489.99,430.42
12.929,502.59,369.74
12.9535,513.47,329.39
12.974,520.98,315.71
12.9944,523.38,316.97
13.0149,523.71,327.38
13.0355,522.77,343.3
13.0599,521.21,363.24
13.0805,520.97,381.59
13.1009,519.18,399.07
13.1216,517.94,414.66
13.1419,514.55,429.53
13.1628,513.44,442.02
13.1869,512.35,452.82
13.2074,510.48,460.65
13.2279,508.79,465.92
13.2485,509.03,472.14
13.2689,509.02,479.71
13.2935,507.42,487.37
13.314,506.33,495.5
13.3344,506.47,504.6
13.3549,508.57,511.88
13.3755,509.26,519.1
13.3959,509.61,526.48
13.4204,510.69,530.58
13.441,509.15,532.67
13.4614,508.52,536.13
13.4819,509.22,535.71
13.5024,508.77,533.97
13.5268,510.42,531.57
13.5474,507.73,529.26
13.5679,506.39,525.41
13.5884,506.11,522.53
13.6088,506.29,520.62
13.6293,508.03,519.1
13.6538,509.22,518.88
13.6744,511.58,521.7
13.6949,509.66,526.76
13.7153,508.93,531.61
13.7358,510.14,536.49
13.7603,511.12,541.59
13.7808,512.29,545.27
13.8013,511.63,545.82
13.8218,510.51,546.05
13.8424,510.21,545.24
13.8628,511.36,542.79
13.8874,509.09,538.24
13.9078,509.07,534.59
13.9283,508.06,530.67
13.9489,508.25,526.34
13.9692,506.6,524.07
13.9937,506.88,522.66
14.0143,508.1,523.52
14.0348,508.68,526.62
14.0553,510.15,530.5
14.0757,511.32,534.4
14.0962,513.85,539.92
14.1207,524.08,544.73
14.1413,532.67,548.79
14.1618,536.13,550.23
14.1823,537.11,549.58
14.2027,535.69,549.67
14.2232,536.55,546.53
14.2478,533.84,542.23
14.2683,531.27,537.18
14.2887,528.42,533.35
14.3093,526.13,528.08
14.3297,523.71,525.66
14.3542,521.57,523.33
14.3749,519.85,522.86
14.3954,520.88,523.89
14.4157,519.71,526.71
14.4365,518.56,530.17
14.4567,518.25,533.74
14.4812,517,538.19
14.5017,514.6,539.35
14.5222,512.68,540.68
14.5427,511.54,540.74
14.5632,511.04,540.6
14.5877,510.03,537.88
14.6082,509.42,533.7
14.6287,509.54,530.36
14.6492,507.83,526.09
14.6697,509.86,522.07
14.6902,508.09,519.06
14.7146,507.07,516.65
14.7352,507.06,517.52
14.7557,507.05,519.01
14.7762,508.04,522.41
14.7966,508.23,526.73
14.8211,508.58,531.98
14.8416,510.27,536.79
14.8622,510.01,540.63
14.8827,511.21,543.5
14.9031,511.17,543.4
14.9236,509.94,542.52
14.9481,509.15,540.22
14.9686,507.72,537.97
14.9892,506.37,535.58
15.0096,503.7,530.86
15.0301,504.36,526.89
15.0546,504.09,524.11
15.0751,504.47,523.49
15.0957,502.78,523.39
15.1161,504.22,524.51
15.1366,505.78,527.01
15.1571,507.62,530.21
15.1816,507.7,534.37
15.2022,507.76,539.69
15.2226,510.01,539.15
15.2431,514.4,540.92
15.2637,514.72,547.74
15.2882,505.78,551.39
15.3086,502.22,546.31
15.3292,507.18,546.45
15.3496,504.54,543.56
15.3701,506.63,536.65
15.3906,509.31,530.92
15.415,513.25,526.53
15.4357,515.6,525.63
15.4561,517.88,525.9
15.4766,517.7,526.12
15.497,516.96,527.9
15.5175,516.17,529.92
15.542,516.14,531.53
15.5627,513.91,534.43
15.583,512.53,538.34
15.6035,513.22,538.87
15.6241,513.58,538.3
15.6486,512.86,536.84
15.6691,511.49,532.67
15.6896,511.79,528.94
15.7101,511.63,527.35
15.7305,513.51,524.08
15.7511,512.41,520.26
15.7755,511.32,513.21
15.796,512.46,507.77
15.8165,512.97,505.82
15.837,513.37,506.05
15.8575,511.9,507.24
15.8819,512.32,510.19
15.9025,511.66,513.15
15.923,512.32,516.32
15.9435,511.06,519.26
15.964,509.05,521.01
15.9845,509.24,521.81
16.0091,511.59,520.64
16.0295,513.67,519.12
16.05,512.14,516.49
16.0704,509.31,513.19
16.091,507.65,509.16
16.1155,507.92,504.92
16.136,507.93,501.34
16.1567,507.15,499.27
16.177,506.92,498.62
16.1975,504.93,498.89
16.218,507.15,502.32
16.2425,510.32,506.25
16.263,511.05,510.8
16.2835,512.24,515.24
16.3041,513.2,518.79
16.3245,512.96,520.43
16.3491,512.16,520.15
16.3696,510.33,519.72
16.39,511.87,518.37
16.4104,512.89,514.5
16.4309,512.51,509.4
16.4515,514.01,504.72
16.4759,512.21,499.78
16.4965,513.57,494.62
16.517,516.45,491.9
16.5375,518.36,490.52
16.5579,518.89,490.21
16.5825,517.51,492.97
16.6028,517.61,494.38
16.6234,518.69,499.9
16.644,518.55,504.32
16.6644,518.24,509.66
16.6848,517.59,513.33
16.7094,517.27,516.86
16.7298,518.42,517.49
16.7504,515.74,517.39
16.7709,515.39,518.51
16.7914,514.91,548.61
16.8158,520.73,567.69
16.8363,524.98,635.35
16.8569,521.79,709.68
16.8774,527.63,771.74
16.8979,517.9,800.6
16.9183,515.52,789.28
16.9428,471.22,773.62
16.9634,463.77,758.7
16.9839,460.82,736.56
17.0044,461.66,702.85
17.0248,469.92,656.08
17.0453,473.94,604.26
17.0698,483.95,545.61
17.0905,494.56,497.29
17.111,502.25,471.23
17.1313,521.4,524.78
17.1518,482.92,522.43
17.1763,488.14,532.14
17.1968,496.11,543.11
17.2175,479.69,553.09
17.2379,471.55,567.27
17.2582,454.84,574.02
17.2787,451.87,587.01
17.3033,450.1,587.61
17.324,463.48,564.69
17.3444,467.98,526.55
17.3648,474.59,465.44
17.3853,487.27,401.15
17.4098,503.01,346.92
17.4304,513.41,314.94
17.4507,521.13,301.75
17.4713,525.1,302
17.4918,525.88,308.6
17.5123,524.11,319.08
17.5367,522.09,333.26
17.5573,520.07,347.01
17.5779,518.25,360.81
17.5983,516.4,374.65
17.6186,515.92,389.32
17.6432,513.74,405.45
17.6638,512.99,421.16
17.6843,510.19,437.93
17.7048,508.55,455.54
17.7254,510.44,471.24
17.7459,510.35,482.59
17.7702,512.28,491.87
17.7908,514.63,498.9
17.8113,514.9,504.52
17.8317,515.32,507.41
17.8522,515.46,508.73
17.8727,514.77,507.98
17.8971,513.61,504.39
17.9177,512.89,502.71
17.9381,510.91,498.97
17.9586,509.13,495.97
17.9791,509.3,495.58
18.0036,509.84,494.46
18.0242,509.07,497.17
18.0446,507.46,500.54
18.0651,508.77,504.83
18.0856,509.61,507.06
18.1061,508.69,510.45
18.1306,506.55,512.56
18.1512,506.84,515.45
18.1716,506.67,519.16
18.1921,505.34,520.53
18.2126,504.87,520.42
18.2371,502.1,520.74
18.2576,498.88,518.59
18.2781,498.7,516.47
18.2986,499.96,514.58
18.3191,499.97,512.86
18.3396,500.18,512.89
18.3641,501.14,513.11
18.3846,501.51,512.69
18.4051,502.01,514.35
18.4256,502.81,516.28
18.4461,501.45,517.82
18.4706,501.56,519.66
18.4911,500.45,521.53
18.5116,499.96,522.42
18.5322,499.57,521.54
18.5525,500.85,521.63
18.573,502.88,520.5
18.5975,503.51,519.8
18.6183,503,519.24
18.6386,503.4,517.99
18.659,505.32,515.2
18.6796,507.66,512.16
18.704,509.33,511.73
18.7245,509.66,511.38
18.7451,507.53,512.3
18.7655,508.42,513.84
18.786,506.34,517.67
18.8065,506.87,520.54
18.8309,507.1,522.83
18.8516,507.08,524.27
18.872,509.46,524.01
18.8926,510.37,522.61
18.9132,511.3,523.49
18.9337,512.04,522.99
18.9579,512.23,520.59
18.9785,513.58,519.47
18.9991,513.67,518.38
19.0195,511.53,518.7
19.0399,511.03,518.76
19.0645,509.62,516.81
19.085,509.3,517.65
19.1054,507.64,521.72
19.1259,506.31,522.77
19.1464,506.45,525.02
19.1669,506.56,529.02
19.1915,503.65,530.61
19.2121,503.52,529.69
19.2326,504.01,528.95
19.2529,505.81,526.76
19.2735,505.65,523.81
19.2981,507.32,520.25
19.3185,509.86,517.8
19.339,511.68,514.84
19.3595,512.55,512.67
19.3799,513.04,510.74
19.4003,513.43,510.19
19.4249,513.94,508.75
19.4456,513.96,509.4
19.4659,514.36,510.32
19.4864,516.49,512.26
19.5069,517.39,515.41
19.5314,517.71,519.52
19.5519,516.97,522.82
19.5724,515.98,525.66
19.5929,515.98,527.92
19.6134,515.99,528.54
19.6339,515.19,528.03
19.6586,514.55,528.23
19.679,512.84,527.18
19.6993,512.67,526.14
19.7198,511.34,522.92
19.7405,512.07,524.53
19.7648,509.66,523.03
19.7854,507.73,522.62
19.8059,506.18,519.7
19.8263,508.74,516.76
19.8469,508.8,517.81
19.8674,510.24,519.24
19.8918,512.19,519.8
19.9125,511.95,522.24
19.9328,512.96,526.79
19.9533,516.17,592.23
19.9738,510.34,579.79
19.9983,501.87,609.63
20.0189,510.89,654.3
20.0394,533.32,686.44
20.0599,552.85,701.75
20.0803,541.08,704.4
20.1008,512.27,715.52
20.1252,499.01,718.42
20.1458,495.01,718.13
20.1663,495.21,705.91
20.1868,493.97,675.53
20.2073,506.77,633.02
20.2278,514.62,587.22
20.2523,503.89,544.37
20.2728,505.52,522.5
20.2933,526.41,509.8
20.3137,539.33,516.24
20.3343,528.86,544.99
20.3588,555.49,593.39
20.3793,595.59,584.91
20.3998,582.47,598.73
20.4203,567.58,590.39
20.4407,552.46,589.91
20.4612,551.77,565.73
20.4857,527.42,550.98
20.5063,512.53,545.79
20.5269,512.03,520.83
20.5473,511.62,487.86
20.5677,515.1,452.49
20.5922,518.68,404.79
20.6127,529.34,350.83
20.6332,537.07,300.47
20.6538,542.86,269.17
20.6742,545.89,262.74
20.6946,545.31,271.39
20.7191,543.85,285.91
20.7398,542.48,305.13
20.7603,537.58,326.1
20.7807,533.07,347.48
20.8013,529.25,367.39
20.8256,527.4,386.51
20.8462,522.52,404.41
20.8667,518.42,421.13
20.8872,515.33,435.1
20.9076,515.47,448.08
20.9281,515.57,460.06
20.9526,516.26,469.85
20.9731,516.21,478.08
20.9937,515.37,485.87
21.0141,513.89,493.49
21.0346,512.71,500.79
21.0591,512.17,503.63
21.0796,511.14,506.51
21.1001,509.51,508.21
21.1206,512.01,509.57
21.1412,511.41,508.45
21.1616,511.92,507.96
21.1862,511.34,506.97
21.2067,509.87,506.38
21.2272,510.1,506.1
21.2476,510.28,506.48
21.2682,510.22,508.58
21.2925,510.98,511.27
21.313,511.58,514.01
21.3336,509.07,517.01
21.3541,509.25,521.81
21.3746,509.6,523.25
21.395,511.48,525.6
21.4195,511.79,526.48
21.4401,511.43,526.58
21.4606,512.14,524.87
21.4811,512.11,523.09
21.5015,510.09,520.87
21.522,509.67,519.3
21.5465,510.14,518.64
21.5671,509.51,517.91
21.5876,509.01,517.13
21.608,510.01,513.5
21.6286,510.21,510.8
21.6531,508.96,509.44
21.6736,509.37,511.35
21.6941,506.9,512.48
21.7145,507.12,514.39
21.7351,506.69,516.51
21.7556,507.56,519.21
21.78,509.44,520.77
21.8006,507.76,521.01
21.8211,507.2,521.41
21.8416,508.56,521.93
21.862,508.25,520.74
21.8864,509.4,523.59
21.9071,508.52,528.28
21.9275,509.62,530.82
21.948,511.09,530.86
21.9685,513.87,530.88
21.989,515.7,530.71
22.0134,514.96,529.97
22.034,515.77,529.77
22.0545,515.61,530.22
22.075,514.69,531.17
22.0955,513.95,530.54
22.1199,516.16,530.03
22.1405,515.53,528.83
22.161,515.62,527.26
22.1815,515.9,525.81
22.2019,515.52,523.05
22.2224,513.02,520.24
22.2469,511.41,517.79
22.2675,511.53,515.23
22.288,511.42,516.59
22.3085,507.94,519.67
22.329,504.95,521.33
22.3534,503.36,522.87
22.374,503.29,522.49
22.3945,505.63,520.6
22.4151,505.9,518.48
22.4355,507.12,516.38
22.4559,505.9,515.9
22.4804,505.52,515.32
22.5009,505.42,514.66
22.5214,505.53,515.73
22.5419,504.83,514.18
22.5625,504.66,518.15
22.5869,499.13,517.12
22.6073,500.3,516.29
22.6279,503.64,516.23
22.6483,505.71,517.59
22.6688,507.37,519.47
22.6893,506.7,520.18
22.7139,508.16,520.74
22.7344,509.93,521.39
22.7549,509.94,522.91
22.7754,508.95,524.13
22.796,506.76,525.31
22.8164,507.21,526.84
22.8408,507.37,528.08
22.8613,508.69,529.66
22.8818,510.96,530.33
22.9023,515.56,530.06
22.9229,517.25,528.25
22.9472,519.4,528.2
22.9678,520.52,527.36
22.9883,519.02,526.09
23.0088,519.01,525.87
23.0293,518.61,524.5
23.0499,517.89,525
23.0742,515.71,526.4
23.0949,513.37,528.32
23.1155,515.3,529.65
23.1357,515.64,530.32
23.1562,515.11,530.86
23.1807,516.49,531.89
23.2013,516.99,531.91
23.2218,516.99,532.33
23.2424,514.79,536.26
23.2627,513.43,572.61
23.2833,529.35,569.29
23.3078,531.68,618.43
23.3283,524.34,655.14
23.3489,526.87,701.12
23.3694,519.5,721.89
23.3897,510.8,713.91
23.4142,512.44,679.33
23.4348,520.55,626.06
23.4552,528.44,569.85
23.4758,533.35,527.48
23.4963,533.28,500.79
23.5167,518.43,496.63
23.5411,510.34,510.9
23.5618,532.07,556.32
23.5822,531.66,617.66
23.6027,583.33,634.73
23.6231,545.46,641.18
23.6477,519.17,644.54
23.6682,522.94,632.44
23.6888,494.15,626.15
23.7093,492.72,612.12
23.7298,485.97,596.1
23.7502,479.58,564.08
23.7747,482.26,524.26
23.7953,489.61,474.21
23.8158,501.49,416.97
23.8362,515.59,361.37
23.8568,528.07,321.5
23.8772,534.66,305.8
23.9016,538.53,308.44
23.9222,541.02,318.95
23.9427,538.62,334.16
23.9631,537.49,351.73
23.9837,535.79,370.98
24.0081,532.04,390.79
24.0286,529.03,410.43
24.0491,524.62,428.54
24.0696,520.1,444.43
24.0901,518.48,458.35
24.1105,516.78,470.28
24.1351,516.03,482.22
24.1557,514.22,492.38
24.1761,511.18,500.5
24.1965,509.74,506.8
24.217,510.99,513.04
24.2415,510.79,517.03
24.2621,507.84,519.83
24.2826,508.27,524.46
24.3032,508.01,529.17
24.3236,506.41,532.14
24.3441,503.53,534.71
24.3685,504.02,537.57
24.3892,502.42,539.25
24.4096,501.34,540.4
24.4302,499.47,541.32
24.4505,499.17,542.06
24.475,499.74,542.05
24.4957,498.99,542.44
24.5161,496.59,542.35
24.5366,496.47,543.08
24.557,496.98,542.46
24.5775,497.78,541.37
24.602,498.83,541.3
24.6225,501.66,540.84
24.6432,500.73,541.67
24.6636,501.98,542.94
24.6841,503.19,544.35
24.7085,503.55,545.88
24.7292,501.64,546.1
24.7496,505.91,546.68
24.7701,508.53,554.75
24.7905,509.82,549.8
24.811,510.86,547.44
24.8356,513.69,543.15
24.8561,514.35,540.12
24.8765,516.48,537.7
24.897,517.58,533.16
24.9175,519.87,531.13
24.9379,522.49,529.9
24.9626,522.99,527.32
24.983,522.8,524.26
25.0035,520.64,523.41
25.024,517.71,523.52
25.0445,515.97,522.62
25.0689,513.77,521.7
25.0894,512.02,519.96
25.11,509.82,518.77
25.1305,509.65,518.81
25.151,508.92,518.05
25.1714,508.74,518.04
25.1959,510.19,519.83
25.2165,511.95,519.47
25.2369,512.16,519.97
25.2575,513.53,521.18
25.2779,515.22,521.94
25.3024,515.78,522.55
25.3229,517.42,524.24
25.3435,517.94,524.99
25.364,518.15,525.2
25.3845,516.92,525.56
25.4049,516.54,525.65
25.4294,516.23,525.12
25.45,515.58,524.29
25.4704,513.07,523.43
25.4908,511.85,523.15
25.5115,512.28,522.52
25.5359,513.03,522.81
25.5564,514.42,522.25
25.577,510.74,522.8
25.5973,511.99,522.64
25.6179,513.19,523.91
25.6383,512.75,525.13
25.6629,512.6,526.7
25.6835,509.68,528.56
25.7039,510.15,528.85
25.7245,510.92,529.88
25.7448,507.73,529.9
25.7694,506.99,529.72
25.7899,506.39,529.18
25.8104,506.11,528.54
25.8309,505.89,526.23
25.8514,505.11,523.59
25.8719,505.09,521.87
25.8963,505.87,521.1
25.9168,507.1,521.48
25.9373,505.88,520.58
25.9577,505.7,521.07
25.9783,505.16,521.85
26.0027,504.53,524.68
26.0233,507.82,526.95
26.0438,511.86,529.36
26.0643,515.29,532.29
26.0847,517.43,534.43
26.1052,519.34,535.14
26.1297,519.67,535.71
26.1503,519.34,535.37
26.1708,519.47,534.7
26.1915,518.38,533.76
26.2117,516.9,533.61
26.2322,517.12,532.68
26.2567,515.9,530.95
26.2772,512.52,529.36
26.2977,510.21,528.69
26.3182,512.17,528.35
26.3387,511.54,528.68
26.3632,512.43,529.34
26.3837,513.74,530.67
26.4042,515,532.14
26.4247,515.8,531.91
26.4452,516.04,531.93
26.4656,516.23,531.74
26.4902,515.38,531.79
26.5109,514.31,532.24
26.5312,515.05,531.99
26.5517,513.84,531.99
26.5722,513.67,529.79
26.5967,511.34,526.03
26.6172,510.07,523.83
26.6377,510.05,522.26
26.6583,509.64,520.81
26.6787,512.11,520.45
26.6992,513.09,519.76
26.7237,513.67,521.21
26.7443,512.14,522.97
26.7647,512.31,524.37
26.7853,513.05,526.1
26.8056,511.84,527.68
26.8303,512.47,526.74
26.8508,513.18,525.99
26.8711,512.54,526.8
26.8917,511.43,525.24
26.9123,512.75,523.99
26.9326,512,521.99
26.9571,513,521.19
26.9777,512.2,525.15
26.9981,511.96,545.72
27.0186,517.57,577.58
27.0391,532.45,622.26
27.0636,530.16,701.01
27.0841,522.93,738.81
27.1047,524.14,751.05
27.1251,519.32,745.84
27.1457,516.25,729.47
27.1661,514.2,683.78
27.1906,512.96,626.82
27.2112,516.57,570.66
27.2317,526.86,521.73
27.2522,534.08,487.18
27.2726,530.67,467.94
27.2971,534.33,456.36
27.3175,517.07,472.28
27.3381,501.45,493.43
27.3587,509.96,540.74
27.379,520.77,575.39
27.3997,504.42,577.71
27.424,477.33,593.57
27.4447,462.07,592.06
27.465,460.65,590.25
27.4856,462.52,577.4
27.5061,471.02,552.32
27.5266,481.21,524.25
27.551,495.57,484.8
27.5716,506.26,431.24
27.592,517.61,376.19
27.6126,528.48,330.96
27.633,535.59,309.76
27.6574,535.47,307.81
27.6781,533.78,318.05
27.6985,532.42,331.04
27.7191,529.74,347.43
27.7395,526.19,364.55
27.76,524.15,382.44
27.7845,520.52,399.55
27.805,518.42,415.24
27.8255,519.13,429.79
27.8459,517.91,442.43
27.8664,516.93,455.75
27.891,515.54,466.8
27.9115,514.63,475.64
27.9323,512.51,484.31
27.9524,511.6,493.05
27.973,509.08,498.44
27.9935,507.67,502.95
28.0179,503.53,506.96
28.0385,503.43,507.97
28.059,504.54,510.77
28.0795,506.43,512.62
28.0999,505.95,513.5
28.1244,505.36,514.2
28.1449,506.09,515.36
28.1655,507.27,517.49
28.1859,508.01,519.79
28.2065,507.01,522.83
28.2269,506.81,524.46
28.2515,507.05,524.17
28.272,506.64,525.94
28.2924,505.91,525.55
28.3129,505.73,524.24
28.3333,504.98,525.59
28.3578,505.59,524.87
28.3784,505.47,524.9
28.399,504.58,524.32
28.4194,505.46,522.46
28.4399,503.77,521.36
28.4603,504.21,520.69
28.4848,506.97,520.75
28.5054,508.58,520.4
28.5259,507.26,520.92
28.5464,506.21,522.34
28.567,508.97,524.87
28.5873,510.97,527.3
28.6119,511.98,528.64
28.6324,511.18,529.11
28.6529,508.55,529.09
28.6735,508.64,529.47
28.6938,508.51,529.98
28.7184,506.61,528.98
28.7388,504.09,527.58
28.7595,503.27,526.47
28.7799,503.22,525.17
28.8003,504.57,523.54
28.8208,504.66,521.83
28.8454,503.73,520.07
28.8659,505.38,521.05
28.8864,506.5,522.24
28.9068,505.2,523.99
28.9274,506.96,526.39
28.9518,509.17,529.32
28.9723,511.94,531.05
28.9929,515.35,533.04
29.0134,514.88,533.23
29.0338,512.7,532.39
29.0543,510.96,532.11
29.0787,510.77,529.89
29.0993,512.42,526.91
29.1197,511.13,522.53
29.1402,506.51,520.62
29.1607,503.61,518.9
29.1852,502.28,517.52
29.2058,502.23,516.01
29.2263,500.58,516.61
29.2468,498.87,518.09
29.2673,499.29,519.67
29.2878,504.23,521.34
29.3122,507.19,523.47
29.3327,508.75,525.78
29.3533,509,528.42
29.3738,511.2,530.34
29.3942,511.96,531.27
29.4187,512.37,530.22
29.4393,510.69,531.17
29.4597,509.76,530.54
29.4802,510,531.03
29.5007,509.2,529.82
29.5213,509.36,528.46
29.5457,508.49,527.17
29.5664,506.79,525.53
29.5868,506.43,524.63
29.6073,507.75,525.1
29.6277,509.6,525.28
29.6481,509.08,526.03
29.6726,508.06,527.22
29.6931,508.05,528.78
29.7137,509.04,530.02
29.7341,508.43,530.22
29.7546,511.15,529.37
29.7791,511.52,529.5
29.7996,509.61,528.8
29.8201,508.69,526.84
29.8407,508.95,524.67
29.8612,508.16,522.74
29.8816,506.73,521.19
29.9062,506.38,520.15
29.9268,507.31,519.92
29.9471,507.05,519.34
29.9676,505.84,520.47
29.9884,503.67,521.38
30.0127,503.14,523.1
30.0331,504.71,524.68
30.0537,507.17,525.74
30.0741,508.53,527.4
30.0947,509.83,528.12
30.115,510.66,528.29
30.1397,511.53,529.23
30.1602,511.22,528.99
30.1807,506.98,526.99
30.2011,507.38,525.79
30.2215,506.91,523.83
30.2461,508.33,523.07
30.2666,508.86,521.65
30.287,508.49,520.32
30.3075,511.19,520.26
30.328,510.95,520.01
30.3485,513.76,521.61
30.373,521.01,523.68
30.3936,526.01,524.95
30.4141,529.61,526.76
30.4346,530.28,527.01
30.455,530.43,528.01
30.4795,528.34,528
30.5,526.67,528.2
30.5205,525.54,526.16
30.5411,523.83,525.13
30.5616,523.07,524.3
30.5821,517.25,523.24
30.6066,514.8,521.79
30.6271,511.24,520.24
30.6475,510.39,519.59
30.6679,508.11,518.87
30.6885,507.29,518.9
30.7129,508.03,519.52
30.7335,509.43,521.01
30.7541,507.14,522.81
30.7745,507.31,524.65
30.795,507.45,526.72
30.8155,509.36,528.38
30.84,510.29,528.9
30.8605,513.23,529.92
30.881,515.18,528.54
30.9014,515.95,527.83
30.9219,515.16,527.26
30.9425,514.33,526.61
30.967,515.46,523.89
30.9875,515.57,521.51
31.008,513.86,520.01
31.0285,512.88,519.01
31.0489,513.11,518.41
31.0735,513.09,519.52
31.0941,513.07,530.42
31.1145,513.05,564.74
31.1352,503.64,618.59
31.1556,484.12,662.67
31.176,488.09,704.54
31.2005,487.87,744.03
31.221,483.3,756.62
31.2415,484.44,751.9
31.2619,484.75,744.32
31.2823,483.6,720.46
31.3069,486.68,675.16
31.3275,491.14,618.93
31.348,500.92,561.15
31.3684,508.33,508.92
31.3889,514.07,477.53
31.4095,526.65,472.83
31.4339,542.32,479.86
31.4546,548.06,501.69
31.4749,534.85,540.75
31.4954,532.48,588.8
31.5159,523.18,619.44
31.5404,515.75,631.75
31.5609,513,635.2
31.5814,503.2,632.76
31.6019,499.36,616.01
31.6224,500.49,584.61
31.6428,501.59,537.89
31.6673,506.47,474.91
31.6879,512.18,406.93
31.7083,519.94,350.74
31.7288,526.35,318.99
31.7494,525.68,309.99
31.7739,529.35,312.8
31.7944,528.68,322.24
31.8149,527.14,338.19
31.8353,524.51,357.95
31.8558,525.01,376.16
31.8763,524.41,395.33
31.9007,521.53,412.26
31.9213,519.42,428.41
31.9418,517.94,442.93
31.9623,515.75,454.34
31.9828,514.8,466.47
32.0033,515.64,474.18
32.0279,512.91,481.54
32.0483,511.13,488.83
32.0688,508.1,493.07
32.0892,506.48,495.85
32.1097,503.59,499.28
32.1343,504.47,502.43
32.1548,506.38,506.54
32.1753,508.5,510.03
32.1958,508.8,514.63
32.2162,507.24,518.7
32.2366,508.79,521.76
32.2612,511.83,525.41
32.2818,510.47,527.13
32.3024,509.57,527.9
32.3228,508.46,529.52
32.3434,506.77,530.02
32.3677,506.41,530.41
32.3882,504.93,528.93
32.4088,505.74,526.74
32.4293,505.2,525.2
32.4498,503.56,523.96
32.4702,503.45,522.57
32.4949,504.56,522.25
32.5152,504.65,522.4
32.5359,506.12,523.32
32.5562,506.09,524.26
32.5767,509.67,525.21
32.6011,514.14,527.56
32.6217,514.91,529.45
32.6423,513.73,530.56
32.6627,513.78,530.65
32.6833,512.03,529.52
32.7037,511.02,528.02
32.7281,511.42,527.01
32.7487,511.93,524.21
32.7692,509.95,523.37
32.7897,508.76,521.29
32.8101,508.21,519.64
32.8346,507.16,519.31
32.8551,506.73,518.45
32.8757,507.99,519.56
32.8962,510.79,520.45
32.9166,513.23,522.56
32.9371,515.18,524.85
32.9618,514.55,526.68
32.9823,514.04,528.94
33.0027,514.83,530.35
33.0231,515.46,531.68
33.0437,514.77,532.55
33.0682,515.22,531.64
33.0886,512.97,529.31
33.1091,511.38,526.45
33.1296,509.9,524.36
33.1501,511.12,522.49
33.1705,510.3,526.59
33.1951,508.64,531.47
33.2157,510.11,534.38
33.2363,508.29,535.5
33.2565,509.83,536.6
33.277,509.46,537.48
33.2976,509.37,537.98
33.3221,510.9,539.19
33.3426,507.92,540.35
33.3631,508.33,540.28
33.3835,508.27,540.02
33.4041,509.81,539.82
33.4285,509.45,539.06
33.4491,509.16,539.04
33.4696,506.13,537.24
33.4902,505.5,528.39
33.5107,506.8,519.91
33.5311,507.24,514.13
33.5556,506.99,511.9
33.576,505.39,509.32
33.5965,506.52,510.26
33.617,506.81,510.61
33.6375,508.65,513.49
33.6621,508.32,515.79
33.6825,509.26,518.63
33.7032,510.6,519.9
33.7236,512.08,520.32
33.7439,512.27,521.26
33.7647,514.61,522.01
33.789,517.09,521.21
33.8095,513.67,519.56
33.83,511.94,518.65
33.8505,513.35,517.32
33.8709,513.08,516.26
33.8955,512.26,516.21
33.916,511.21,521.96
33.9365,512.17,526.97
33.957,511.74,529.98
33.9775,510.79,532.18
33.998,511.23,534.75
34.0224,511.58,536.2
34.0429,510.67,537.76
34.0636,510.53,538.01
34.0839,510.43,537.6
34.1044,511.94,536.88
34.1289,512.15,536.51
34.1494,512.32,535.61
34.17,511.86,534.68
34.1905,508.69,532.55
34.2109,507.95,529.04
34.2313,508.16,526.43
34.2559,509.53,523.54
34.2765,510.02,521.84
34.297,511.82,520.07
34.3174,512.45,518.25
34.3379,514.16,517.4
34.3623,514.13,518.52
34.3829,513.9,519.82
34.4034,515.32,521.45
34.4239,513.46,524.16
34.4445,513.37,526.33
34.4648,510.89,527.66
34.4893,508.91,527.53
34.5098,509.53,527.03
34.5304,507.83,525.82
34.5509,508.46,524.46
34.5714,508.57,521.77
34.5919,509.45,520.61
34.6165,511.56,519.49
34.637,512.45,519.19
34.6573,513.36,518.15
34.6778,514.89,517.92
34.6984,515.31,518.74
34.7227,515.65,519.59
34.7434,516.72,520.47
34.7639,517.78,522.38
34.7844,518.42,525.5
34.8048,517.54,527
34.8253,516.23,527.6
34.8498,514.58,529.08
34.8704,514.27,528.67
34.8908,513.01,528.13
34.9112,510.61,526.51
34.9319,508.69,524.4
34.9562,507.55,521.32
34.9768,507.84,519.06
34.9973,506.67,516.65
35.0178,507.54,515.32
35.0383,506.83,513.65
35.0589,506.26,513.12
35.0833,506.61,513.9
35.1038,507.69,517.12
35.1242,508.95,520.7
35.1449,508.96,538.76
35.1653,507.77,568
35.1899,497.82,632
35.2103,497.25,681.6
35.2308,515.4,728.48
35.2513,522.92,753.59
35.2717,534.14,750.87
35.2922,531.91,748.5
35.3167,531.53,735.6
35.3373,531.02,709.68
35.3578,532.42,663.74
35.3782,536.53,603.79
35.3988,538.03,543.83
35.4232,533.82,486.27
35.4438,527.26,446.61
35.4642,521.01,445.69
35.4848,513.6,430.95
35.5052,510.08,434.16
35.5256,522.07,531.53
35.5501,530.85,569.02
35.5708,534.08,599.62
35.5912,534.07,623.9
35.6116,538.65,649.92
35.6321,546.52,666.73
35.6526,552.62,673.79
35.6771,554.29,662.83
35.6976,547.84,638.66
35.7182,535.47,606.13
35.7386,523.97,556.5
35.7592,512.98,488.2
35.7837,504.98,417.56
35.8042,495.79,359.45
35.8247,486.83,328.96
35.8451,484.46,318.57
35.8657,482.77,320.45
35.8861,482.42,331.16
35.9106,482.33,346.73
35.9312,483.47,362.18
35.9516,484.17,377.35
35.9722,484.34,393.88
35.9926,487.67,406.3
36.0172,490.94,416.24
36.0377,493.75,427.39
36.0583,495.4,438.51
36.0787,494.52,449.81
36.0991,493.22,461.65
36.1197,493.77,472.92
36.1441,493.62,481.94
36.1647,494.69,491.75
36.1851,497.36,499.4
36.2056,498.08,506.72
36.2261,497.67,511.38
36.2505,498.33,515.3
36.2711,498.87,518.84
36.2916,500.49,522.67
36.312,500.8,522.94
36.3328,502.84,523.95
36.3531,506.07,523.96
36.3776,506.66,524.37
36.3982,505.92,525.49
36.4185,508.14,527.2
36.439,504.51,528.36
36.4595,505.41,530.69
36.484,506.73,533.35
36.5045,508.18,534.68
36.525,507.55,537.74
36.5455,508.44,540.99
36.566,510.75,544.8
36.5866,510.6,547.04
36.611,508.28,549.43
36.6315,507.82,551.94
36.6521,508.46,550.95
36.6726,508.17,549.36
36.693,508.13,545.09
36.7135,506.71,540.47
36.738,506.37,536.58
36.7585,507.89,531.86
36.7791,505.71,525.89
36.7995,503.97,525.31
36.8199,503.98,522.25
36.8445,504.58,521.6
36.865,505.87,520.48
36.8854,507.69,519.38
36.906,510.75,519.11
36.9265,513.4,519.29
36.9469,513.32,519.23
36.9715,511.66,519.38
36.992,512.13,518.51
37.0125,513.1,518.6
37.033,511.08,518.28
37.0534,507.06,516.83
37.0781,506.25,516.06
37.0986,505.6,514.45
37.119,505.28,514.36
37.1395,504.82,514.69
37.1602,506.06,513.35
37.1805,506.85,512.48
37.2049,506.08,512.38
37.2255,507.46,512.51
37.2459,508.37,513.41
37.2664,507.9,514.92
37.2869,511.32,517.14
37.3114,513.85,519.51
37.3319,516.88,521.41
37.3525,517.31,522.13
37.3728,518.65,521.7
37.3934,518.72,522.36
37.4138,519.17,521.69
37.4383,519.34,520.75
37.4589,517.07,518.4
37.4794,515.66,516.92
37.4999,514.13,514.74
37.5205,515.5,513.39
37.545,514.8,513.31
37.5654,513.64,513.25
37.5859,512.71,512.8
37.6064,511.97,513.64
37.6268,511.98,513.91
37.6473,512.38,514.33
37.6718,514.7,515.26
37.6923,515.16,517.21
37.7129,514.73,517.57
37.7333,515.78,518.85
37.754,518.43,519.48
37.7785,521.34,519.59
37.7988,521.27,520.67
37.8193,518.82,520.34
37.8399,518.06,520.67
37.8603,518.24,519.53
37.8808,516.6,518.43
37.9053,514.08,518.14
37.9258,513.06,518.11
37.9463,513.65,518.09
37.9668,514.52,518.87
37.9873,514.02,519.7
38.0077,513.01,520.96
38.0322,512.61,522.57
38.0528,508.49,524.45
38.0734,507.79,526.36
38.0938,505.83,529.69
38.1142,503.07,531.15
38.1387,501.85,531.92
38.1595,500.88,531.54
38.1798,501.31,531.43
38.2003,501.44,529.74
38.2207,499.96,528.6
38.2412,502.36,526.08
38.2658,503.09,524.86
38.2863,505.27,524.49
38.3069,505.42,525.39
38.3273,505.53,526.31
38.3476,506.83,526.05
38.3722,506.66,526.64
38.3928,507.33,529.71
38.4132,507.66,530.77
38.4337,506.53,532.62
38.4543,507.42,533.09
38.4746,510.94,533.87
38.4991,519.55,532.9
38.5197,524.44,531.72
38.5403,526.75,530.98
38.5608,526,529.58
38.5811,526.4,528.86
38.6056,525.12,527.49
38.6261,522.7,525.19
38.6466,520.36,523.75
38.6671,519.49,523.4
38.6877,518.39,524.92
38.7082,518.91,525.14
38.7326,518.53,526.31
38.7531,518.62,527.65
38.7736,518.1,529.12
38.7941,516.88,529.9
38.8146,514.5,529.92
38.8391,514.2,529.33
38.8597,514.96,529.07
38.8802,513.77,528.25
38.9006,512.02,529.2
38.9212,510.61,544.96
38.9416,514.89,557.97
38.9661,509.91,609.98
38.9866,526.93,691.18
39.0072,531.54,750.54
39.0277,542.64,768.84
39.0481,551.11,776.47
39.0685,551.49,770.77
39.0931,554.39,749.22
39.1136,553.31,700.78
39.134,551.05,644.62
39.1545,549.24,595.5
39.175,541.79,553.6
39.1995,531.63,516.88
39.2201,521.31,488.5
39.2406,513.45,482.8
39.2611,506.76,488.44
39.2815,514.6,513.75
39.302,516.08,516
39.3265,520.47,573.4
39.3471,531.17,591.52
39.3676,517.34,616.42
39.388,507.07,628.93
39.4086,501.26,629.75
39.433,501.41,613.6
39.4535,503.32,585.08
39.474,496.66,538.46
39.4945,496.93,476.57
39.515,497.74,415.46
39.5354,500.79,362.96
39.56,505.04,331.37
39.5806,509.23,321.3
39.601,509.38,325.64
39.6215,510.71,334.31
39.642,509.76,348.65
39.6665,507.41,361.12
39.687,507.53,376.29
39.7075,505.02,392.24
39.728,503.02,408.79
39.7484,501.82,423.23
39.7689,502.25,434.98
39.7934,506,446.99
39.814,505.4,459.19
39.8345,505.72,469.35
39.8549,503.78,477.88
39.8754,505.62,484.51
39.8999,506.5,492.6
39.9206,502,492.28
39.9411,504.2,492.43
39.9615,501.96,494.14
39.9819,503.17,494.71
40.0024,503.13,494.77
40.0269,504.91,497.82
40.0475,508.53,499.85
40.068,510.02,501.68
40.0885,511.42,502.55
40.1089,510.73,505.64
40.1294,513.19,505.71
40.1538,511.75,510.77
40.1745,510.6,518.01
40.1948,514.48,519.61
40.2153,514.78,521.49
40.2358,513.83,523.79
40.2603,514.46,527.43
40.2809,514.37,528.55
40.3014,511.3,532.84
40.3219,513.24,541.07
40.3423,517.39,547.66
40.3628,532.51,555.12
40.3873,530.81,549.7
40.4079,537.45,553.16
40.4283,539.76,547.73
40.4488,557.01,534.98
40.4693,538.4,533.39
40.4938,536.92,535.31
40.5143,548.14,534.85
40.5348,549.31,526.88
40.5554,547.65,529.3
40.5758,538.92,531.44
40.5964,526.94,536.95
40.6209,517.35,536.36
40.6413,509.28,535.09
40.6618,514.82,535.07
40.6823,509.86,533.66
40.7027,509.29,535.53
40.7272,508.23,533.62
40.7478,508.18,531.1
40.7684,510.15,528.48
40.7888,509.12,526.58
40.8093,509.29,524.07
40.8298,513.44,523.05
40.8543,511.95,522.24
40.8748,509.36,522.19
40.8953,511.69,522.15
40.9158,506.55,523.32
40.9363,508.84,525.46
40.9608,507.47,528.17
40.9813,507.98,528.33
41.0018,507.38,528.27
41.0223,512.31,527.61
41.0427,512.04,526.69
41.0633,512.04,524.35
41.0878,509.83,523.68
41.1082,509.26,523.35
41.1288,510.41,521.28
41.1493,508.93,520.22
41.1697,507.94,518.78
41.1902,508.95,518.42
41.2148,506.96,519.14
41.2353,506.37,519.51
41.2557,506.1,520.61
41.2762,505.88,521.09
41.2967,508.7,523.87
41.3212,510.16,525.9
41.3417,510.53,527.32
41.3622,512.62,530.05
41.3827,514.5,531.24
41.4032,517,533.19
41.4237,517.2,533.96
41.4482,517.76,532.56
41.4687,516.41,532.65
41.4891,517.73,531.72
41.5096,514.98,531.58
41.5302,513.98,530.26
41.5547,513.39,528.01
41.5751,511.11,526.81
41.5956,510.49,524.65
41.6162,509.59,523.72
41.6367,512.47,523.97
41.6572,512.98,524.18
41.6816,511.18,525.54
41.7023,513.55,526.63
41.7227,514.84,526.91
41.7434,516.47,527.53
41.7636,517.98,528.02
41.7881,517.78,527.82
41.8086,515.22,526.45
41.8292,514.38,525.36
41.8497,515.9,523.69
41.8702,516.92,521.35
41.8906,516.74,520.88
41.9151,514.59,518.51
41.9357,512.47,517
41.9561,513.58,517.6
41.9766,512.26,519.48
41.9971,513.01,532.39
42.0215,511.61,559.51
42.0422,506.09,610.01
42.0627,510.27,674.21
42.0831,518.42,709.96
42.1036,515.93,753.77
42.1241,491.75,788.82
42.1486,501.4,781.85
42.1692,503.92,763.08
42.1897,505.33,744.27
42.2101,505.67,718.81
42.2306,501.33,672.25
42.2549,499.67,615
42.2755,499.93,557.6
42.2961,499.55,498.88
42.3167,500.84,448.9
42.337,503.27,477.72
42.3576,502.42,490.38
42.382,502.53,479.9
42.4027,504.23,520.92
42.4231,522.98,589.74
42.4436,538.98,603.19
42.4641,552.59,606.15
42.4845,549.87,616.52
42.5091,550.9,630.82
42.5297,548.52,614.85
42.55,546.41,614.48
42.5705,550.13,609.39
42.591,552.9,612.91
42.6155,562.32,620.53
42.636,571.86,632.42
42.6565,576.49,630.54
42.677,575.99,607.43
42.6976,565.59,570.34
42.7179,555.47,514.48
42.7424,543.78,443.18
42.763,529.42,370.54
42.7834,515.94,310.64
42.8039,499.15,275.71
42.8244,485.72,264.57
42.8489,479.58,267.65
42.8695,473.86,279.52
42.8899,471.89,297.02
42.9104,470.71,315.21
42.9309,470.57,335.17
42.9515,472.26,354.54
42.976,474.2,371.23
42.9965,470.36,387.18
43.0169,470.49,402.75
43.0375,473.59,418
43.058,476.47,432.6
43.0824,480.78,445.88
43.1029,483.42,458.5
43.1235,487.14,470.2
43.1439,490.31,480.16
43.1643,492.05,488.53
43.1848,493.84,495.02
43.2093,495.67,502.02
43.2298,499.34,506.42
43.2504,498.87,509.33
43.271,498.1,512.07
43.2913,498.68,513.05
43.3159,499.54,513.44
43.3364,498.03,513.15
43.3569,499.03,513.32
43.3774,500.02,512.86
43.3979,501.22,515.49
43.4184,504.17,516.59
43.4429,502.94,517.47
43.4634,503.75,518.78
43.4841,502.6,519.82
43.5043,503.48,521.26
43.5248,503.18,523.21
43.5453,503.75,526.76
43.5698,501.4,527.61
43.5903,505.12,529.09
43.6108,507.29,529.67
43.6313,506.44,529.54
43.6518,505.35,528.03
43.6763,506.48,526.22
43.6969,508.58,523.78
43.7174,512.07,521.42
43.7379,510.25,519.94
43.7583,509.6,519.55
43.7787,509.68,519.44
43.8033,511.95,521.15
43.8238,513.76,522.52
43.8442,513.21,524.02
43.8647,511.36,526.21
43.8852,510.49,528.37
43.9097,511.79,532.1
43.9304,511.43,533.88
43.9507,511.55,534.1
43.9713,511.04,533.88
43.9919,509.83,533.71
44.0123,509.46,534.36
44.0368,508.77,535.29
44.0574,507.82,538.03
44.0777,503.25,541.23
44.0982,505,548.18
44.1187,508.4,550.54
44.1432,511.32,552.04
44.1638,513.46,552.43
44.1842,515.77,552.14
44.205,514.61,550.31
44.2252,519.49,548.05
44.2457,520.99,545.84
44.2702,519.59,542.27
44.2908,522.88,538.82
44.3113,522.1,536.25
44.3317,521.28,533.4
44.3522,520.02,529.52
44.3767,519.02,527.02
44.3972,516.42,525.41
44.4177,509.93,522.53
44.4381,511.95,519.83
44.4586,510.56,518.66
44.4791,513.25,518.73
44.5037,511.2,518.78
44.5242,509.76,519.63
44.5447,508.41,520.9
44.5651,509.92,521.92
44.5857,513.34,523.74
44.6061,513.07,524.79
44.6307,512.26,526.83
44.6512,510.81,528.27
44.6716,509.64,523.21
44.6922,513.72,519.37
44.7126,514.17,516.5
44.7371,512.14,514
44.7576,512.31,512.8
44.7781,509.65,511.64
44.7986,509.72,509.71
44.8191,511.58,509.37
44.8397,511.46,510.69
44.8641,511.97,511.56
44.8847,510.57,513.44
44.9051,510.66,516.16
44.9255,510.73,518.52
44.946,511.18,522.02
44.9706,511.15,530.22
44.9911,512.12,540.77
45.0116,511.69,544.82
45.0321,512.95,546.85
45.0526,512.96,546.28
45.0731,512.97,544.43
45.0976,511.18,540.54
45.1181,511.14,535.83
45.1386,510.91,530.47
45.1591,511.13,526.57
45.1796,509.3,524.66
45.2041,508.44,528.33
45.2246,508.35,550.06
45.2451,507.88,565.65
45.2656,511.11,589.32
45.286,520.09,618.46
45.3065,516.87,666.16
45.3311,536.69,699.13
45.3516,557.56,738.31
45.372,569.44,740.44
45.3926,578.36,706.56
45.4131,586.08,646.84
45.4375,587.47,574.88
45.458,584.17,508.9
45.4786,575.34,461.92
45.499,557.47,439.14
45.5195,539.18,449.91
45.54,527.54,432.33
45.5644,510.83,471.46
45.5851,527.27,520.97
45.6058,546.41,574.98
45.626,556.13,611.98
45.6466,570.3,621.58
45.6709,577.64,586.07
45.6915,576.11,528.85
45.712,566.29,474.28
45.7324,548.63,431.23
45.7529,525.91,403.38
45.7735,505.73,387.31
45.798,493.18,380.84
45.8185,481.54,384.28
45.8389,475.44,393.02
45.8595,467.55,404.42
45.8799,466.64,415.13
45.9044,468.31,426.31
45.925,469.65,437.65
45.9455,472.12,447.72
45.9659,474.9,457.37
45.9865,478.12,467.5
46.0068,481.29,477.4
46.0314,485.03,488.52
46.052,486.43,497.42
46.0726,488.74,504.93
46.093,490.59,511.35
46.1135,492.27,515.68
46.1339,494.82,518.34
46.1584,494.46,519.67
46.179,495.76,520.14
46.1994,496.81,518.51
46.2198,497.05,517.61
46.2404,499.84,517.09
46.2648,500.07,516.27
46.2854,500.06,515.82
46.3059,499.85,516.25
46.3263,501.48,516.6
46.3468,503.18,517.48
46.3674,503.15,519.39
46.3918,503.92,521.71
46.4124,504.13,524.17
46.4328,506.71,525.33
46.4533,507.17,526.27
46.4738,507.93,528.01
46.4982,507.95,529.01
46.5188,504.56,529.81
46.5394,503.85,528.25
46.5598,502.88,526.4
46.5803,503.1,524.32
46.6008,504.48,523.25
46.6254,503.98,521
46.6459,502.99,521
46.6663,505.19,521
46.687,505.75,522
46.7073,504.4,521.8
46.7318,505.12,522.64
46.7523,505.1,523.71
46.7728,507.08,525.57
46.7932,508.46,527.46
46.8138,510.57,528.57
46.8342,512.26,529.05
46.8587,511,529.24
46.8793,511,529.39
46.8998,509.2,528.51
46.9204,509.16,527.01
46.9408,509.53,526.21
46.9652,509.42,525.57
46.9857,507.54,523.65
47.0063,507.43,522.32
47.0268,507.35,521.26
47.0473,507.88,521.81
47.0677,509.3,520.85
47.0922,511.04,521.68
47.1127,512.03,523.74
47.1333,512.23,526.59
47.1537,513.38,528.47
47.1742,513.7,530.78
47.1946,514.16,531.42
47.2193,512.93,532.14
47.2398,511.94,532.71
47.2603,510.76,531.57
47.2807,508.2,526.86
47.3011,508.76,520.08
47.3257,509.61,517.27
47.3461,510.29,514.21
47.3668,510.83,512.77
47.3872,509.26,511.62
47.4077,509.81,511.09
47.4282,511.65,512.47
47.4527,513.12,514.58
47.4732,514.1,516.06
47.4938,512.28,517.65
47.5142,513.22,519.32
47.5347,513.98,521.66
47.5591,514.98,523.13
47.5799,513.99,525.1
47.6001,512.99,526.88
47.6208,510.59,532.9
47.6412,514.67,537.92
47.6617,517.14,538.74
47.6864,517.71,537.99
47.7067,516.77,536.59
47.7273,516.41,534.87
47.7478,516.33,533.7
47.7682,515.67,533.36
47.7925,516.53,531.69
47.8131,517.83,531.55
47.8336,518.66,532.24
47.8541,518.13,532.79
47.8747,517.3,533.03
47.8952,516.44,534.83
47.9196,514.35,558.26
47.9401,518.88,593.41
47.9607,513.91,614.73
47.981,528.93,694.58
48.0017,535.94,730.07
48.026,545.55,742.25
48.0465,559.84,721.4
48.0671,572.47,668.92
48.0876,582.18,603.54
48.1081,575.94,543.63
48.1285,560.55,501.1
48.1532,544.24,475.08
48.1736,530.79,454.27
48.1947,520.84,461.61
48.2147,512.47,483.29
48.2351,515.77,529.83
48.2595,514.42,596.07
48.2801,524.94,639.05
48.3006,538.95,682.84
48.3212,536.16,691.47
48.3415,537.93,675.98
48.3621,542.34,628.58
48.3867,547.87,565.87
48.407,549.5,505.69
48.4275,539.2,461.35
48.448,525.76,434.88
48.4685,513.01,415.11
48.4929,504.81,406.29
48.5135,498.64,405.43
48.5339,490.72,411.94
48.5545,485.17,422.35
48.5749,485.34,432.48
48.5955,487.07,441.39
48.62,489.66,451.91
48.6404,491.53,462.33
48.6611,492.82,470.86
48.6815,494.66,477.89
48.7019,496.32,485.11
48.7224,499.06,490.89
48.7471,501.85,494.71
48.7675,503.08,496.77
48.788,504.46,497.42
48.8086,505.17,497.73
48.8289,505.74,497.79
48.8534,506.79,499.23
48.8739,507.23,500.58
48.8945,508.78,501.47
48.9149,512.83,502.97
48.9353,516.46,507.38
48.9559,519.17,512.5
48.9804,512.54,518.2
49.0009,495.63,521.16
49.0215,484.7,521.33
49.0419,479.16,521.66
49.0624,476.53,521.53
49.0868,475.82,520.82
49.1074,477.86,519.26
49.1279,480.69,518.21
49.1483,484.15,516.97
49.1689,485.32,516.17
49.1893,489.26,516.94
49.2139,492.4,517.15
49.2345,492.92,518.32
49.2549,492.94,519.26
49.2753,492.95,520.61
49.2958,495.36,523.48
49.3203,498.29,525.39
49.3408,502.83,527.91
49.3614,504.26,529.53
49.3819,506.21,531.42
49.4023,507.17,530.54
49.4229,509.14,530.83
49.4474,507.71,530.06
49.4679,507.77,529.25
49.4884,507.01,528.2
49.509,507.41,527.76
49.5294,504.93,525.61
49.5538,506.34,523.89
49.5743,504.67,523.31
49.5948,503.94,522.85
49.6152,503.55,523.28
49.6357,501.44,525.22
49.6563,504.75,527.78
49.6807,507.2,529.82
49.7013,508.96,532.46
49.7218,507.97,533.37
49.7423,510.18,533.69
49.7627,509.74,534.95
49.7834,509.79,534.56
49.8078,509.03,534.85
49.8283,509.83,533.88
49.8488,508.46,532.3
49.8694,508.57,530.64
49.8898,507.86,528.91
49.9143,505.88,527.13
49.9348,505.31,525.11
49.9552,506.25,523.88
49.9758,509.4,523.91
49.9963,511.12,525.53
50.0169,513.09,525.62
50.0414,512.08,527.1
50.0619,513.26,528.28
50.0823,514.01,530.42
50.1028,516.41,530.74
50.1232,515.53,531.39
50.1476,517.22,530.91
50.1682,515.98,530.93
50.1887,515.18,529.14
50.2091,513.94,528.11
50.2296,512.56,525.49
50.2502,511.44,524.59
50.2746,511.16,523.07
50.2954,509.92,522.06
50.3157,510.74,522.45
50.3362,510.59,521.76
50.3567,511.27,522.41
50.3812,512.22,524.73
50.4018,512.97,525.18
50.4223,511.18,525.74
50.4426,511.54,526.8
50.4631,511.64,527.84
50.4837,512.51,528.87
50.5082,512.21,529.3
50.5287,511.57,528.84
50.5492,510.45,525.67
50.5697,514.16,521.54
50.5901,527.33,515.83
50.6146,546.26,5.42303e-43
