Program Time [s],data 0,data 1
5.96614,443.31,446.88
5.98625,440.54,448.37
6.00700,442.62,451.72
6.02673,444.19,450.62
6.04692,443.82,448.75
6.06651,443.35,450.09
6.08572,443.97,451.64
6.10654,443.81,452.52
6.12702,443.97,458.02
6.14719,444.46,455.40
6.16546,441.52,454.72
6.18706,440.64,456.49
6.20566,441.43,456.95
6.22533,442.27,453.60
6.24687,443.19,456.88
6.26551,446.04,454.80
6.28677,446.50,453.66
6.30642,446.96,453.54
6.32651,445.97,455.92
6.34672,447.80,452.49
6.36739,444.64,451.76
6.38773,442.86,449.46
6.40712,442.99,447.22
6.42681,444.56,449.07
6.44705,443.05,448.00
6.46794,440.58,447.11
6.48682,440.17,445.98
6.50687,441.65,445.98
6.52695,438.48,446.22
6.54613,442.40,445.36
6.56785,439.36,446.37
6.58798,439.27,447.36
6.60644,440.95,445.05
6.62720,440.10,444.62
6.64667,440.38,446.82
6.66627,437.80,449.51
6.68784,439.94,466.60
6.70763,440.10,479.94
6.72786,440.28,502.22
6.74782,444.77,519.56
6.76773,445.65,530.91
6.78716,445.72,531.09
6.80688,442.93,526.00
6.82807,442.47,526.37
6.84615,443.91,524.60
6.86712,443.97,516.32
6.88685,442.23,513.03
6.90725,442.64,506.82
6.92706,442.10,504.74
6.94652,440.90,495.85
6.96744,441.72,494.27
6.98611,443.49,486.36
7.00624,441.60,482.09
7.02750,443.31,480.73
7.04713,439.49,478.56
7.06708,440.48,471.80
7.08689,440.75,468.54
7.10829,439.66,466.34
7.12991,437.70,466.78
7.14935,438.58,460.75
7.16916,436.73,462.17
7.18803,440.07,458.64
7.20974,438.97,455.71
7.22862,437.06,450.70
7.25109,439.07,447.88
7.27000,437.83,447.34
7.29096,439.62,446.43
7.31129,439.21,448.09
7.33082,439.02,447.10
7.35069,437.85,450.04
7.37177,437.70,447.83
7.39207,437.12,446.79
7.41029,436.36,447.04
7.43037,435.70,448.65
7.45091,436.19,447.90
7.47214,435.04,446.67
7.49253,436.90,445.58
7.51102,436.59,445.61
7.53208,438.80,446.82
7.55262,438.77,444.00
7.57198,438.22,445.08
7.59248,438.20,446.52
7.61296,436.07,443.37
7.63185,436.95,447.50
7.65304,437.49,445.26
7.67231,438.47,433.52
7.69249,437.82,411.32
7.71159,437.40,387.18
7.73243,435.26,364.24
7.75227,434.62,355.34
7.77255,434.66,351.20
7.79358,431.79,352.62
7.81318,432.80,353.83
7.83252,433.66,358.23
7.85236,431.36,364.05
7.87328,433.35,368.46
7.89262,432.59,375.64
7.91386,434.55,381.56
7.93405,438.10,389.50
7.95459,437.73,394.95
7.97332,436.58,400.25
7.99368,439.85,406.33
8.01353,442.84,412.85
8.03379,442.52,417.97
8.05329,444.18,422.86
8.07474,444.80,429.15
8.09439,443.68,430.98
8.11475,443.65,430.78
8.13498,443.12,434.40
8.15422,444.24,437.01
8.17519,442.56,438.79
8.19375,442.61,438.08
8.21416,442.34,439.61
8.23428,442.49,436.93
8.25504,444.95,442.39
8.27454,445.69,441.48
8.29316,444.34,440.57
8.31414,444.32,444.80
8.33480,445.05,445.10
8.35323,446.02,444.17
8.37392,444.68,443.20
8.39448,445.18,446.63
8.41439,443.98,444.38
8.43332,444.68,444.64
8.45463,447.67,446.24
8.47322,446.64,444.62
8.49437,445.42,442.84
8.51344,447.75,443.63
8.53453,443.73,444.08
8.55505,444.89,443.56
8.57396,446.03,443.91
8.59345,445.10,445.19
8.61514,443.38,446.69
8.63499,445.32,443.75
8.65451,445.34,442.36
8.67513,447.71,444.16
8.69433,447.31,444.96
8.71470,444.20,444.48
8.73506,445.87,446.14
8.75491,446.68,446.84
8.77461,443.55,447.57
8.79300,443.94,447.19
8.81322,445.21,445.92
8.83328,444.94,448.85
8.85464,445.88,444.79
8.87438,447.84,445.43
8.89431,447.38,446.61
8.91437,447.41,447.87
8.93500,447.20,445.33
8.95454,446.05,448.27
8.97472,445.79,447.50
8.99457,444.49,446.21
9.01466,447.78,446.52
9.03308,448.62,447.72
9.05329,448.51,449.01
9.07352,448.06,446.06
9.09457,448.89,449.02
9.11315,446.35,446.09
9.13398,445.91,446.38
9.15413,447.22,447.39
9.17414,444.53,447.61
9.19427,446.47,445.05
9.21401,444.74,449.02
9.23332,445.48,447.78
9.25337,446.46,448.01
9.27425,442.62,445.26
9.29348,440.88,447.55
9.31580,445.07,446.47
9.33692,446.90,448.12
9.35671,447.22,448.77
9.37586,447.50,450.48
9.39573,450.92,449.09
9.41517,448.99,452.28
9.43538,452.38,451.45
9.45523,451.79,452.94
9.47687,451.94,454.14
9.49719,452.84,454.10
9.51646,451.07,452.74
9.53568,452.63,450.94
9.55600,453.26,454.60
9.57565,452.94,452.81
9.59673,453.56,454.64
9.61589,451.37,451.34
9.63642,453.87,452.76
9.65509,453.35,453.21
9.67535,451.91,449.91
9.69656,452.11,448.71
9.71534,452.60,449.99
9.73537,454.29,449.41
9.75563,453.30,449.31
9.77525,453.37,448.09
9.79548,450.95,447.18
9.81698,452.82,447.53
9.83603,450.61,446.46
9.85668,451.83,449.00
9.87621,449.00,450.08
9.89614,451.23,447.75
9.91679,452.43,451.87
9.93583,448.50,448.43
9.95586,451.76,447.85
9.97532,450.78,447.48
9.99666,452.15,448.14
10.01643,448.91,450.33
10.03549,450.47,446.91
10.05659,451.09,445.51
10.07564,449.41,447.38
10.09615,450.55,444.01
10.11622,453.70,446.46
10.13706,451.68,451.08
10.15623,455.62,475.93
10.17524,459.52,503.37
10.19571,463.44,525.13
10.21665,462.88,549.45
10.23622,466.26,558.16
10.25672,467.89,563.41
10.27618,466.33,560.46
10.29503,464.57,547.18
10.31668,464.67,541.51
10.33652,463.94,535.79
10.35658,462.50,525.13
10.37582,460.61,510.79
10.39655,459.46,504.78
10.41608,456.64,494.76
10.43531,458.07,491.25
10.45606,457.39,482.31
10.47612,455.48,477.79
10.49519,457.24,476.08
10.51559,458.07,476.00
10.53503,459.99,473.29
10.55534,457.89,473.16
10.57629,459.32,472.00
10.59614,458.83,469.67
10.61720,455.58,465.26
10.63669,455.22,463.58
10.65658,455.96,461.74
10.67781,454.07,465.02
10.69650,454.13,460.81
10.71703,456.38,458.81
10.73622,455.70,459.43
10.75671,453.54,454.08
10.77651,453.27,454.09
10.79701,456.23,451.68
10.81673,453.29,456.15
10.83730,456.22,456.62
10.85739,456.59,455.98
10.87718,456.71,456.13
10.89741,455.69,455.63
10.91708,455.14,451.90
10.93664,455.24,455.11
10.95817,453.64,452.81
10.97612,453.74,453.45
10.99718,454.46,454.62
11.01601,454.78,454.70
11.03671,454.04,451.53
11.05758,451.64,448.59
11.07625,456.76,452.25
11.09792,454.36,449.53
11.11734,454.71,452.21
11.13749,453.84,450.25
11.15763,454.97,453.92
11.17672,456.49,464.93
11.19639,459.41,483.24
11.21658,463.03,506.67
11.23678,465.13,514.50
11.25617,464.81,515.61
11.27752,463.88,499.71
11.29809,463.11,467.50
11.31781,458.20,426.45
11.33801,454.75,391.38
11.35765,453.07,367.60
11.37629,451.22,349.57
11.39626,450.14,338.31
11.41759,449.26,334.73
11.43789,446.48,333.94
11.45619,446.48,334.27
11.47690,447.53,341.79
11.49743,450.02,351.80
11.51809,448.91,356.98
11.53808,447.30,364.27
11.55807,448.17,374.09
11.57801,449.87,382.07
11.59785,450.44,388.31
11.61716,452.53,397.75
11.63675,452.58,403.77
11.65806,452.80,409.85
11.67773,452.74,416.56
11.69728,452.36,416.64
11.71631,454.07,422.73
11.73773,456.31,428.40
11.75622,455.96,430.80
11.77651,457.93,433.82
11.79770,457.86,436.86
11.81650,458.80,436.48
11.83693,456.09,442.81
11.85754,455.91,444.29
11.87727,453.31,442.19
11.89713,455.81,445.95
11.91784,455.74,445.25
11.93724,457.32,444.62
11.95642,457.45,445.30
11.97612,455.91,447.55
11.99752,455.59,450.05
12.01681,457.89,448.76
12.03682,456.09,446.30
12.05755,456.04,448.43
12.07722,456.00,451.22
12.09752,457.25,452.63
12.11660,455.62,452.64
12.13839,456.63,453.36
12.15870,456.86,453.23
12.17875,454.99,452.98
12.19892,453.95,451.65
12.21876,454.95,450.87
12.23857,455.60,451.63
12.25769,453.71,451.54
12.27771,452.83,451.00
12.29899,454.09,454.04
12.31856,455.63,454.57
12.33864,454.03,451.82
12.35741,456.23,451.36
12.37822,455.15,449.93
12.39723,453.33,452.62
12.41771,453.94,454.38
12.43858,456.54,449.74
12.45779,453.81,450.50
12.47793,453.51,451.87
12.49843,456.88,451.05
12.51735,458.79,450.16
12.53810,455.73,451.49
12.55759,456.02,450.48
12.57880,455.62,450.36
12.59687,455.34,451.09
12.61742,454.64,449.65
12.63836,453.86,450.24
12.65852,454.07,451.32
12.67836,456.63,450.79
12.69857,454.88,451.56
12.71814,456.29,450.77
12.73833,457.13,453.98
12.75749,455.21,453.42
12.77741,455.04,450.35
12.79826,454.82,452.61
12.81809,457.05,452.07
12.83775,455.17,451.35
12.85886,455.42,451.75
12.87820,454.83,453.14
12.89791,455.83,450.73
12.91768,454.72,452.09
12.93815,455.91,448.64
12.95849,456.77,451.36
12.97687,454.11,451.64
12.99789,458.28,452.27
13.01802,455.37,450.72
13.03692,457.60,452.16
13.05729,457.47,448.81
13.07716,454.63,451.19
13.09751,455.27,451.70
13.11849,453.97,453.30
13.13757,456.58,455.30
13.15824,457.52,450.75
13.17756,454.02,453.68
13.19889,454.59,453.33
13.21796,456.30,453.30
13.23720,454.88,451.94
13.25761,453.33,453.40
13.27735,453.24,450.20
13.29866,455.85,452.39
13.31701,453.21,452.19
13.33724,455.18,450.57
13.35899,452.70,450.35
13.37802,455.30,451.55
13.39793,456.72,451.16
13.41729,454.94,451.60
13.43908,456.20,450.81
13.45881,454.32,452.00
13.47737,455.54,451.73
13.49823,453.72,454.06
13.51797,452.73,453.25
13.53751,456.17,455.19
13.55721,456.15,454.20
13.57834,457.51,451.28
13.59888,458.24,453.06
13.61840,457.50,453.36
13.63826,458.30,451.47
13.65905,458.78,449.88
13.67729,456.30,453.16
13.69898,457.95,452.46
13.71777,456.42,451.87
13.73722,454.09,450.86
13.75742,454.28,451.09
13.77874,455.13,452.70
13.79865,455.56,452.03
13.81829,455.60,454.29
13.83751,454.85,451.87
13.85716,454.62,453.56
13.87862,453.02,453.37
13.89754,454.64,453.07
13.91842,457.09,451.45
13.93769,457.16,452.37
13.95710,458.63,451.62
13.97708,457.47,452.11
13.99824,459.27,450.52
14.01817,457.98,451.02
14.03862,457.03,452.06
14.05773,458.08,450.61
14.07875,456.53,450.11
14.09897,454.32,445.84
14.11798,457.27,450.39
14.13858,453.20,457.38
14.15871,455.43,469.81
14.17770,456.15,487.42
14.19865,456.77,512.04
14.21739,459.35,532.69
14.23759,462.27,549.28
14.25857,462.44,553.66
14.27758,461.89,552.00
14.29867,463.15,548.41
14.31734,463.79,537.45
14.33714,465.88,530.40
14.35881,462.35,522.20
14.37704,461.82,506.92
14.39803,463.38,499.88
14.41758,463.42,489.43
14.43833,458.64,481.76
14.45727,458.43,479.71
14.47772,459.34,474.41
14.49872,457.43,466.30
14.51778,457.70,467.23
14.53799,456.44,467.34
14.55717,455.96,463.78
14.57757,455.91,460.72
14.59779,456.18,458.17
14.61761,453.94,458.06
14.63730,456.89,457.51
14.65872,453.96,457.08
14.67871,453.17,456.64
14.69847,456.39,457.75
14.71825,453.09,458.01
14.73779,453.45,457.80
14.75807,451.71,456.80
14.77796,451.66,456.43
14.79791,453.13,456.42
14.81857,455.01,455.92
14.83855,452.00,453.85
14.85852,453.10,454.32
14.87753,454.07,449.92
14.89888,450.95,452.20
14.91701,454.71,451.89
14.93862,452.24,453.34
14.95814,454.81,454.98
14.97834,453.74,455.99
14.99899,455.54,455.53
15.01829,455.14,453.93
15.03821,455.70,454.23
15.05893,455.45,455.14
15.07716,453.96,452.74
15.09843,452.43,455.94
15.11697,453.87,452.87
15.13677,453.87,453.55
15.15890,452.69,455.29
15.17752,454.79,451.54
15.19848,453.03,436.29
15.21723,449.43,413.35
15.23739,447.55,392.54
15.25835,447.32,377.78
15.27841,445.71,368.68
15.29731,444.76,365.26
15.31837,442.66,367.22
15.33757,442.84,370.10
15.35744,443.01,374.34
15.37734,443.53,381.85
15.39750,444.67,388.14
15.41889,446.62,393.04
15.43769,449.31,399.96
15.45723,448.09,406.65
15.47840,449.52,409.59
15.49762,448.45,415.08
15.51835,452.02,419.36
15.53868,450.06,424.59
15.55817,451.52,428.68
15.57701,452.69,431.28
15.59815,453.08,435.45
15.61795,454.89,437.72
15.63886,453.04,439.18
15.65735,451.80,444.63
15.67907,456.10,446.28
15.69754,453.37,447.63
15.71836,453.95,450.25
15.73854,455.89,450.14
15.75775,456.24,449.87
15.77875,453.51,453.96
15.79900,455.33,454.10
15.81935,455.74,454.64
15.83912,456.28,452.86
15.85958,454.40,453.96
15.87994,452.22,451.59
15.89922,453.35,452.20
15.91828,452.96,450.05
15.93935,449.31,451.22
15.95985,448.52,451.20
15.97975,448.65,450.42
15.99911,450.17,449.11
16.01935,448.70,451.04
16.03841,449.25,451.00
16.05969,451.17,450.43
16.07815,450.65,450.36
16.09882,449.07,449.03
16.11927,451.92,451.13
16.13908,449.33,450.66
16.15984,451.76,450.98
16.17835,450.59,451.82
16.19903,448.57,449.95
16.21881,450.26,449.74
16.23843,451.92,452.15
16.25866,451.36,449.75
16.27943,453.11,451.09
16.29870,449.60,449.96
16.31927,448.89,449.54
16.33944,449.88,451.30
16.35801,451.87,452.30
16.37890,450.50,452.61
16.39904,450.86,453.29
16.41838,449.19,449.77
16.43862,451.33,448.50
16.45910,452.46,449.07
16.47810,450.05,450.59
16.49867,449.09,446.47
16.51917,447.68,449.16
16.53869,450.00,450.84
16.55943,447.97,451.71
16.57776,446.09,449.89
16.59785,448.40,454.09
16.61980,446.54,453.62
16.63914,449.83,455.62
16.65903,451.43,454.50
16.68016,452.12,454.39
16.70052,451.02,451.77
16.72077,448.15,455.40
16.74016,448.74,452.26
16.75974,449.49,452.94
16.77988,450.05,451.81
16.79979,445.96,447.98
16.82000,446.53,447.98
16.84076,445.68,451.46
16.85991,446.44,451.05
16.88090,447.17,449.47
16.89963,445.87,449.22
16.91931,447.33,447.77
16.94081,446.24,449.32
16.96066,446.03,450.66
16.98061,445.71,448.78
16.99931,444.95,450.91
17.01986,445.90,448.38
17.03916,446.93,448.99
17.06055,447.71,449.73
17.07974,446.15,449.95
17.10019,444.30,448.15
17.11962,447.53,451.02
17.14042,448.55,450.97
17.15899,446.73,451.26
17.17937,449.20,450.23
17.20036,448.73,451.90
17.22044,445.93,454.25
17.24020,446.55,451.03
17.26007,446.76,450.10
17.28029,444.91,451.80
17.30071,446.05,450.49
17.31944,446.15,451.02
17.34043,444.47,450.56
17.36061,443.75,452.31
17.37892,442.95,449.75
17.39998,444.41,449.01
17.41966,446.36,449.46
17.44004,445.39,450.48
17.45983,444.34,451.72
17.47936,443.14,450.10
17.49999,442.65,450.15
17.52003,444.12,450.33
17.54003,446.21,448.97
17.56036,442.97,448.01
17.57998,445.87,449.72
17.60013,446.66,451.33
17.61920,444.68,451.35
17.63967,445.80,450.63
17.66022,444.91,451.43
17.67927,443.96,448.62
17.70078,443.97,447.28
17.71995,444.85,447.56
17.74053,445.14,448.69
17.75988,442.67,450.83
17.78088,443.20,449.27
17.80051,441.27,449.23
17.82075,441.74,452.87
17.84059,440.16,449.74
17.85954,442.80,450.31
17.87916,440.70,452.15
17.89927,441.58,451.55
17.92070,443.15,452.21
17.94048,442.93,450.11
17.95932,442.72,451.01
17.98078,444.33,451.23
17.99930,444.97,450.76
18.01976,444.25,451.85
18.04083,443.99,450.91
18.05981,443.98,449.72
18.08010,444.43,450.53
18.09986,444.31,451.17
18.12002,442.29,449.38
18.14016,445.83,449.06
18.15893,444.46,448.54
18.18024,444.10,451.10
18.19983,444.20,450.24
18.21988,443.11,451.44
18.23941,444.64,448.71
18.25936,444.69,447.79
18.27955,444.31,450.87
18.29912,443.07,450.95
18.31979,441.01,449.27
18.33920,443.45,449.45
18.36010,440.60,449.83
18.37888,441.80,449.35
18.40057,440.51,447.26
18.42010,442.17,448.12
18.43908,439.56,449.02
18.46047,439.70,447.73
18.48064,438.65,450.02
18.49959,441.88,451.20
18.52046,441.30,449.38
18.53926,440.28,448.33
18.56002,442.94,447.00
18.58031,443.74,449.43
18.60010,443.87,448.63
18.62000,442.80,448.82
18.64084,440.51,448.52
18.66002,444.53,446.45
18.68072,444.48,448.65
18.69923,441.68,449.29
18.71928,441.06,445.57
18.73986,442.46,446.27
18.75938,440.51,447.41
18.77960,442.55,447.97
18.79923,444.32,445.22
18.81997,443.26,447.21
18.84070,441.01,445.05
18.85985,445.73,445.69
18.88088,444.55,441.92
18.90034,443.97,439.08
18.92027,439.76,436.67
18.93974,443.50,435.25
18.95995,442.57,438.97
18.98007,443.52,437.45
18.99886,442.03,438.41
19.01951,441.56,443.95
19.04117,442.87,460.93
19.06262,447.08,483.86
19.08244,446.75,505.77
19.10195,451.18,513.89
19.12113,449.61,522.47
19.14205,448.65,527.31
19.16163,448.65,525.06
19.18224,446.79,516.58
19.20095,446.46,510.65
19.22257,444.22,505.95
19.24274,441.79,500.57
19.26183,439.85,492.51
19.28113,439.87,488.48
19.30094,440.11,480.78
19.32341,440.31,472.17
19.34360,438.20,468.38
19.36341,439.63,464.59
19.38235,438.77,464.98
19.40377,439.26,462.40
19.42361,437.50,458.23
19.44265,438.97,455.72
19.46263,435.57,456.59
19.48306,435.78,455.54
19.50304,434.69,453.58
19.52327,435.67,454.19
19.54263,434.37,451.63
19.56258,435.84,450.57
19.58374,434.41,451.20
19.60229,436.20,450.80
19.62362,434.92,449.27
19.64249,436.97,448.84
19.66351,434.35,451.50
19.68232,435.25,450.05
19.70198,436.58,451.27
19.72284,437.65,449.64
19.74251,435.03,449.90
19.76355,435.93,447.34
19.78390,437.87,448.10
19.80254,435.25,445.73
19.82354,437.99,448.07
19.84208,436.40,447.28
19.86303,434.08,447.70
19.88292,434.81,448.31
19.90287,437.36,447.81
19.92197,436.81,445.37
19.94329,436.42,445.74
19.96205,436.64,447.31
19.98234,434.90,449.50
20.00203,435.33,451.74
20.02259,435.56,451.45
20.04283,435.48,449.06
20.06204,438.86,450.62
20.08230,437.66,444.49
20.10362,435.43,429.67
20.12362,433.33,412.97
20.14350,428.52,395.40
20.16295,426.90,382.83
20.18283,425.86,374.49
20.20268,424.00,374.20
20.22206,425.97,374.45
20.24244,425.85,374.80
20.26250,428.81,376.85
20.28296,427.96,382.25
20.30363,429.04,389.29
20.32245,427.76,393.77
20.34382,428.71,399.86
20.36187,427.55,402.54
20.38317,428.95,406.16
20.40294,430.72,412.42
20.42371,432.71,416.36
20.44257,431.22,419.39
20.46265,433.29,422.11
20.48307,435.06,428.32
20.50290,436.48,426.72
20.52240,436.34,431.51
20.54287,436.46,431.13
20.56365,434.32,432.54
20.58364,437.24,434.07
20.60327,433.83,435.65
20.62202,434.31,436.79
20.64360,434.50,440.29
20.66325,434.30,439.46
20.68327,435.97,437.84
20.70240,436.27,439.17
20.72277,438.00,441.16
20.74201,437.27,442.69
20.76217,437.78,440.17
20.78261,437.12,443.38
20.80269,438.54,442.26
20.82278,437.90,444.42
20.84222,438.36,445.04
20.86243,438.33,444.65
20.88315,437.24,443.65
20.90324,436.79,445.65
20.92243,434.86,442.35
20.94306,438.04,443.02
20.96360,438.47,443.60
20.98365,439.53,442.94
21.00385,436.46,441.80
21.02369,435.05,444.60
21.04324,437.50,442.39
21.06356,434.60,446.36
21.08178,437.34,444.77
21.10237,438.05,442.77
21.12387,437.20,443.44
21.14289,435.61,444.96
21.16221,436.94,445.20
21.18252,435.39,445.05
21.20479,435.75,444.66
21.22360,435.65,443.77
21.24290,435.34,444.91
21.26469,438.37,444.70
21.28402,440.32,445.42
21.30487,438.47,445.65
21.32389,441.31,445.73
21.34394,440.35,447.29
21.36587,439.01,446.04
21.38680,442.39,445.36
21.40633,442.84,446.19
21.42590,444.74,445.43
21.44647,445.22,445.58
21.46594,443.94,445.93
21.48659,444.07,445.16
21.50578,446.86,444.98
21.52550,446.68,446.20
21.54586,444.18,448.25
21.56592,446.36,448.39
21.58674,444.23,445.06
21.60655,448.37,444.66
21.62825,448.07,447.59
21.64715,447.25,446.85
21.66867,450.03,447.46
21.68708,449.15,447.46
21.70707,448.11,448.65
21.72775,452.30,447.46
21.74717,452.89,450.66
21.76816,452.01,451.10
21.78879,453.68,449.77
21.80665,451.16,451.69
21.82812,448.91,449.90
21.84822,449.35,450.52
21.86783,449.07,449.13
21.88749,452.75,451.48
21.90868,451.68,448.91
21.92825,452.30,450.56
21.94788,454.55,447.99
21.96741,453.01,450.04
21.98733,451.63,450.76
22.00890,450.91,450.29
22.02743,452.16,448.36
22.04895,453.04,450.18
22.06771,453.61,448.59
22.08859,454.08,447.87
22.10794,454.69,450.48
22.12666,453.12,451.20
22.14830,455.18,452.63
22.16893,454.47,452.92
22.18951,453.88,450.47
22.20787,453.93,450.19
22.22828,456.08,453.26
22.24877,455.65,451.98
22.26938,456.05,453.48
22.28801,452.96,453.08
22.30901,455.39,451.68
22.32836,454.85,454.20
22.34789,453.29,454.86
22.36959,450.90,451.77
22.38860,453.04,451.43
22.40952,453.26,450.93
22.42796,450.01,453.16
22.44987,449.61,452.10
22.46959,449.44,451.03
22.48792,451.31,452.15
22.50855,450.52,452.86
22.52839,453.94,450.53
22.54945,454.88,453.15
22.56842,453.63,449.93
22.58944,453.45,450.50
22.60900,451.99,453.61
22.62946,451.55,452.16
22.64899,452.87,451.48
22.66822,454.06,449.97
22.68908,455.00,452.51
22.70842,453.19,449.53
22.72841,451.78,448.89
22.74931,453.38,452.85
22.76840,453.01,449.40
22.78926,454.66,449.88
22.80964,454.69,451.04
22.82893,453.37,451.46
22.84784,453.11,448.54
22.86955,451.72,449.95
22.88910,454.04,446.90
22.90923,453.67,450.69
22.92781,454.11,448.04
22.94992,453.98,448.48
22.96863,452.94,450.78
22.98918,452.16,450.62
23.00903,452.84,449.74
23.02825,451.77,449.28
23.04782,451.65,449.85
23.06905,454.13,449.48
23.08833,452.02,448.00
23.10957,452.64,449.28
23.12870,453.38,452.73
23.14857,453.84,451.71
23.16854,455.03,450.01
23.18844,453.30,451.22
23.20918,454.60,461.09
23.22779,455.38,472.54
23.24913,458.47,486.74
23.26902,457.67,500.58
23.28892,456.14,504.58
23.30878,459.22,511.31
23.32782,458.68,518.34
23.34883,459.87,517.78
23.36895,461.15,515.53
23.38839,464.17,510.33
23.40975,465.87,513.57
23.42879,465.74,513.21
23.44928,465.72,510.98
23.46968,466.08,506.24
23.48828,466.59,504.75
23.50978,464.20,500.65
23.52890,463.64,497.15
23.54855,463.95,493.22
23.56809,464.93,494.63
23.58882,464.58,489.93
23.60941,466.88,487.82
23.63026,465.57,486.01
23.65004,461.92,484.09
23.67073,463.92,482.25
23.68903,461.55,479.19
23.70879,459.58,476.03
23.72996,459.81,474.56
23.74912,459.89,470.51
23.76966,457.04,473.04
23.78980,459.76,466.89
23.80964,457.12,467.48
23.82931,459.82,462.78
23.84973,459.51,459.05
23.87073,458.93,461.68
23.88903,456.23,461.99
23.91030,455.34,462.76
23.93091,453.80,462.18
23.95072,456.19,459.19
23.97090,456.76,461.05
23.99056,454.41,462.47
24.01030,452.61,460.98
24.03077,454.80,458.71
24.05119,456.35,459.19
24.07009,454.47,455.70
24.09076,453.62,457.10
24.11133,455.61,458.27
24.13081,454.84,454.97
24.15210,455.78,452.41
24.17172,457.10,452.42
24.19255,456.94,452.46
24.21175,455.67,447.54
24.23091,455.10,434.75
24.25149,452.54,419.91
24.27127,448.90,406.23
24.29121,444.05,392.05
24.31229,444.03,380.60
24.33190,439.86,370.93
24.35089,439.07,366.10
24.37207,439.05,358.36
24.39174,440.04,359.31
24.41180,440.78,354.27
24.43214,441.43,359.03
24.45247,441.85,365.62
24.47266,439.86,371.26
24.49229,442.14,377.01
24.51134,443.74,382.72
24.53140,442.62,388.99
24.55120,443.68,393.48
24.57128,446.17,398.07
24.59078,446.44,402.74
24.61069,446.84,408.40
24.63285,449.73,412.75
24.65216,451.06,417.78
24.67212,449.80,418.40
24.69222,448.65,423.56
24.71146,450.08,427.56
24.73249,452.46,433.94
24.75088,451.01,434.43
24.77101,449.65,437.67
24.79151,451.04,441.62
24.81193,454.11,446.09
24.83123,456.59,450.92
24.85153,460.12,453.60
24.87164,460.40,454.25
24.89139,463.11,453.78
24.91206,462.69,453.03
24.93126,460.95,453.79
24.95224,460.64,453.17
24.97262,459.57,455.59
24.99204,459.63,454.94
25.01194,458.78,453.67
25.03198,458.32,451.49
25.05102,459.26,452.08
25.07081,455.96,450.41
25.09071,458.06,449.26
25.11073,456.91,448.55
25.13103,454.34,448.73
25.15187,453.62,447.14
25.17139,454.65,447.08
25.19175,454.24,449.72
25.21110,454.02,449.25
25.23209,457.10,449.80
25.25120,455.26,452.25
25.27136,453.84,451.53
25.29153,453.10,450.31
25.31194,453.16,449.85
25.33204,452.80,452.33
25.35198,454.17,449.32
25.37194,450.35,447.92
25.39185,452.86,451.58
25.41166,454.12,448.59
25.43242,451.56,446.50
25.45106,450.40,448.74
25.47139,450.20,449.36
25.49121,452.81,446.74
25.51140,451.90,448.86
25.53170,453.10,446.79
25.55080,451.62,448.61
25.57111,454.07,447.31
25.59248,451.32,450.60
25.61082,451.59,446.70
25.63238,452.39,447.92
25.65142,452.82,449.36
25.67116,456.00,448.98
25.69218,455.20,447.64
25.71063,453.90,450.49
25.73215,454.40,449.70
25.75165,451.65,449.13
25.77127,455.82,450.98
25.79144,455.86,453.02
25.81228,452.49,450.94
25.83186,451.78,450.49
25.85216,453.40,450.34
25.87216,451.98,452.23
25.89153,451.42,452.19
25.91164,454.15,453.03
25.93130,451.30,451.92
25.95110,453.67,451.89
25.97235,453.69,450.24
25.99234,451.01,449.23
26.01129,453.06,449.45
26.03267,451.34,448.73
26.05106,452.06,446.91
26.07196,455.94,447.89
26.09191,452.97,445.54
26.11250,453.04,447.64
26.13082,454.34,447.99
26.15203,450.84,447.59
26.17130,450.45,450.31
26.19098,451.68,449.01
26.21123,450.47,449.04
26.23185,450.82,449.66
26.25233,449.95,448.37
26.27065,449.29,448.67
26.29072,451.18,452.12
26.31202,452.92,452.26
26.33238,450.01,450.00
26.35090,450.67,450.18
26.37222,451.88,448.51
26.39088,450.80,451.79
26.41239,448.67,449.80
26.43345,450.25,451.19
26.45295,450.78,449.67
26.47214,451.65,451.57
26.49221,449.84,448.71
26.51209,447.15,452.54
26.53369,444.31,452.49
26.55196,446.83,450.13
26.57300,446.45,452.60
26.59225,447.78,451.65
26.61188,448.37,448.90
26.63291,450.56,451.40
26.65345,450.01,453.22
26.67346,450.40,450.99
26.69329,449.10,450.10
26.71324,449.20,449.44
26.73304,451.30,451.05
26.75314,448.60,451.22
26.77267,447.85,450.80
26.79346,452.61,450.48
26.81280,452.61,449.64
26.83365,452.53,450.78
26.85261,448.68,450.42
26.87196,449.55,452.59
26.89337,447.96,451.71
26.91270,449.20,449.68
26.93223,446.73,452.19
26.95349,448.29,451.44
26.97199,449.54,450.40
26.99302,449.34,450.86
27.01293,450.97,447.78
27.03228,446.55,450.40
27.05227,450.30,450.53
27.07326,448.86,450.80
27.09214,449.32,451.18
27.11184,448.44,448.01
27.13358,445.62,449.52
27.15320,445.56,449.49
27.17189,444.62,447.89
27.19313,448.44,448.57
27.21325,448.05,466.42
27.23233,447.50,490.80
27.25212,448.66,521.67
27.27291,450.24,540.54
27.29336,452.64,551.34
27.31270,449.29,552.92
27.33368,452.38,552.68
27.35321,451.86,548.50
27.37334,450.61,541.46
27.39316,452.25,533.57
27.41192,451.15,528.95
27.43288,450.99,522.77
27.45333,450.72,514.38
27.47261,451.90,506.43
27.49289,453.63,505.12
27.51232,458.85,496.66
27.53277,456.34,494.34
27.55292,455.46,489.37
27.57268,455.14,482.65
27.59252,456.72,479.15
27.61198,453.51,477.42
27.63240,452.82,472.48
27.65369,451.85,473.29
27.67174,450.14,467.63
27.69205,449.63,466.70
27.71278,451.20,462.47
27.73225,448.68,460.25
27.75276,447.51,457.88
27.77282,446.78,457.89
27.79196,447.29,457.66
27.81254,447.38,456.05
27.83296,445.02,458.22
27.85352,446.93,456.73
27.87291,446.64,454.40
27.89207,446.14,458.22
27.91173,446.02,452.54
27.93284,446.97,452.62
27.95277,446.34,453.94
27.97180,446.58,449.70
27.99269,444.24,450.27
28.01207,445.36,450.38
28.03206,445.03,451.58
28.05315,447.81,450.50
28.07297,443.74,451.07
28.09355,444.85,450.46
28.11253,444.75,448.40
28.13318,443.90,451.33
28.15192,445.32,450.51
28.17226,443.37,452.47
28.19340,441.87,450.07
28.21207,443.47,451.53
28.23302,443.05,457.70
28.25289,446.25,466.79
28.27281,446.52,467.33
28.29225,443.46,456.70
28.31199,443.01,429.75
28.33305,439.06,398.40
28.35285,435.11,370.23
28.37257,436.11,349.98
28.39332,432.35,339.31
28.41419,434.59,338.42
28.43427,432.86,340.76
28.45379,434.95,345.34
28.47328,435.75,353.58
28.49250,433.77,361.16
28.51305,435.69,367.79
28.53306,434.65,375.44
28.55317,435.23,383.29
28.57419,437.95,391.72
28.59449,437.08,398.67
28.61512,435.01,404.44
28.63534,431.81,412.68
28.65376,425.64,421.75
28.67552,422.25,423.30
28.69379,417.52,427.99
28.71406,419.23,429.69
28.73523,416.35,436.20
28.75547,419.73,438.19
28.77483,416.94,439.00
28.79492,418.70,440.00
28.81502,420.97,441.70
28.83476,421.07,442.26
28.85410,423.67,442.09
28.87388,426.56,440.52
28.89398,427.04,441.98
28.91492,427.53,444.91
28.93498,430.98,443.16
28.95406,431.33,441.45
28.97506,432.53,443.70
28.99498,431.03,443.41
29.01577,434.43,447.41
29.03452,435.60,447.64
29.05514,436.23,446.28
29.07515,435.38,447.93
29.09480,435.34,449.73
29.11408,434.65,446.07
29.13368,437.86,447.33
29.15514,437.01,448.12
29.17494,435.82,448.10
29.19368,437.06,447.62
29.21395,435.25,446.55
29.23427,437.11,447.77
29.25381,435.12,446.98
29.27527,435.43,448.30
29.29498,437.85,450.78
29.31549,437.26,450.50
29.33483,433.82,451.67
29.35508,440.83,448.44
29.37475,449.75,447.62
29.39404,452.77,445.60
29.41574,457.95,446.12
29.43413,459.24,447.21
29.45471,455.70,447.23
29.47527,454.72,445.57
29.49431,454.69,444.93
29.51531,452.45,445.16
29.53463,452.76,445.11
29.55401,450.43,443.68
29.57497,450.50,442.83
29.59519,447.30,444.83
29.61522,449.24,445.47
29.63522,447.96,442.87
29.65471,445.10,445.88
29.67536,443.04,443.75
29.69516,440.16,443.26
29.71495,440.10,444.42
29.73471,439.82,445.80
29.75501,439.74,445.24
29.77391,438.90,445.97
29.79458,439.46,450.10
29.81456,439.07,447.48
29.83449,439.35,449.22
29.85422,436.43,447.06
29.87493,439.65,446.48
29.89394,440.26,444.77
29.91372,441.08,446.16
29.93528,441.39,446.91
29.95368,441.01,446.38
29.97370,439.24,445.25
29.99473,441.42,447.67
30.01456,440.68,444.37
30.03525,438.11,444.58
30.05404,440.64,447.12
30.07503,436.96,444.19
30.09514,437.59,446.08
30.11391,437.54,447.81
30.13454,435.67,444.84
30.15534,437.38,448.04
30.17518,437.93,447.69
30.19434,436.43,445.82
30.21383,434.99,445.41
30.23373,438.28,446.81
30.25354,434.20,445.50
30.27522,435.08,446.30
30.29475,437.41,444.79
30.31380,434.15,445.54
30.33545,435.58,444.92
30.35562,438.41,446.04
30.37470,435.38,446.70
30.39485,436.06,446.52
30.41361,435.24,446.54
30.43429,437.35,445.37
30.45518,436.42,444.96
30.47492,435.18,445.54
30.49526,436.23,446.15
30.51402,438.00,446.61
30.53504,438.88,448.16
30.55364,439.96,444.82
30.57500,438.05,444.89
30.59492,440.03,443.06
30.61391,439.16,444.28
30.63504,435.07,447.22
30.65503,435.68,447.45
30.67542,438.26,444.10
30.69373,439.28,445.06
30.71487,440.64,446.99
30.73466,438.28,446.51
30.75561,439.08,445.37
30.77425,437.23,445.93
30.79367,437.21,446.90
30.81469,438.12,448.79
30.83555,436.90,445.76
30.85374,437.63,446.40
30.87380,435.21,447.75
30.89530,435.28,446.48
30.91483,436.13,445.92
30.93550,435.59,446.42
30.95399,434.81,445.61
30.97489,434.24,447.18
30.99394,434.94,446.87
31.01553,435.05,446.25
31.03479,435.90,445.90
31.05426,435.64,446.91
31.07492,434.39,447.47
31.09408,436.78,447.21
31.11395,435.59,447.63
31.13395,436.17,447.93
31.15376,434.71,445.70
31.17372,436.42,444.73
31.19485,436.33,444.20
31.21568,434.16,443.38
31.23501,435.46,444.57
31.25418,435.09,444.37
31.27438,435.98,444.13
31.29460,437.90,443.49
31.31471,437.26,441.63
31.33506,435.05,441.55
31.35557,436.72,437.74
31.37388,437.01,444.68
31.39472,436.61,455.48
31.41484,439.40,474.63
31.43459,436.39,491.82
31.45383,435.70,511.52
31.47561,439.41,529.33
31.49407,439.53,542.65
31.51536,438.50,549.46
31.53428,439.63,551.36
31.55566,441.11,549.94
31.57376,440.02,544.82
31.59555,440.66,536.65
31.61552,442.63,526.90
31.63422,445.15,517.49
31.65490,444.90,508.66
31.67514,447.16,498.43
31.69485,445.52,490.60
31.71551,447.79,487.71
31.73518,447.84,479.61
31.75587,444.03,472.87
31.77488,445.98,469.18
31.79574,446.94,465.64
31.81690,445.79,463.63
31.83698,442.47,461.48
31.85723,444.11,459.34
31.87877,445.15,457.75
31.89966,447.26,457.41
31.91924,446.96,455.94
31.93957,445.89,451.26
31.96060,448.99,452.20
31.98027,450.50,450.72
32.00048,450.82,450.16
32.01872,450.37,452.12
32.03869,450.47,451.57
32.05978,449.56,451.94
32.07858,451.47,452.24
32.09918,452.24,449.74
32.11970,451.23,450.90
32.14008,451.79,449.15
32.15877,453.93,448.66
32.17994,451.68,448.62
32.19974,452.27,450.16
32.22030,449.83,450.91
32.23969,452.71,451.76
32.26081,453.12,449.77
32.28127,450.56,447.81
32.29985,451.30,449.58
32.32051,453.22,448.18
32.34074,451.71,447.77
32.36024,453.63,449.31
32.38094,453.92,451.68
32.40017,451.41,448.57
32.41992,451.65,449.59
32.44084,454.80,449.64
32.46018,451.68,439.98
32.48104,448.92,423.95
32.50025,447.30,400.64
32.52047,445.08,377.65
32.53964,443.71,357.77
32.56022,440.92,351.07
32.58173,443.36,347.27
32.60077,442.97,347.03
32.62175,443.41,354.26
32.64132,443.85,359.22
32.66217,445.69,365.29
32.68178,447.30,372.29
32.70092,447.87,377.01
32.72102,449.31,385.62
32.74224,450.07,391.07
32.76167,449.01,398.02
32.78092,451.27,403.31
32.80294,453.26,410.40
32.82329,450.62,417.98
32.84445,450.55,422.93
32.86608,453.44,425.47
32.88554,452.27,428.71
32.90623,452.74,431.01
32.92576,452.79,435.59
32.94591,451.61,437.82
32.96675,448.67,439.15
32.98582,447.17,441.00
33.00696,449.77,442.06
33.02743,446.32,442.61
33.04680,446.88,442.22
33.06828,447.12,444.20
33.08840,449.44,444.89
33.10660,450.83,446.10
33.12713,449.02,447.34
33.14836,449.00,445.05
33.16821,450.02,448.15
33.18673,449.12,447.15
33.20886,447.35,445.97
33.22917,447.49,447.97
33.24819,447.16,447.42
33.26923,444.78,447.63
33.28844,445.67,449.54
33.30839,445.37,447.07
33.32838,444.49,448.56
33.34896,446.10,446.29
33.36928,444.36,449.07
33.38895,447.36,448.69
33.40900,444.14,449.91
33.42769,444.59,447.21
33.44825,445.54,448.50
33.46894,445.10,448.39
33.48846,443.87,449.32
33.50861,443.28,448.89
33.52820,446.05,450.84
33.54811,445.45,453.00
33.56861,443.01,453.72
33.58836,442.05,452.39
33.60938,441.29,452.13
33.62838,440.05,451.47
33.64875,443.12,448.83
33.66833,441.90,450.66
33.68890,442.39,451.03
33.71014,442.86,447.62
33.72961,438.84,450.22
33.75090,440.40,448.20
33.77083,440.93,447.62
33.79129,439.76,446.78
33.81063,437.54,446.40
33.83070,437.15,448.09
33.85028,438.53,449.18
33.87087,437.93,449.71
33.89194,434.93,448.13
33.91288,434.52,448.93
33.93291,435.36,449.65
33.95417,436.05,448.99
33.97292,436.26,448.67
33.99404,435.60,446.20
34.01283,436.76,445.57
34.03411,435.93,448.39
34.05284,435.23,448.64
34.07295,435.51,446.34
34.09452,435.57,447.70
34.11457,434.39,447.76
34.13333,434.92,447.90
34.15305,433.10,446.14
34.17267,436.89,443.45
34.19342,436.27,443.18
34.21334,433.21,443.30
34.23414,434.62,443.52
34.25383,434.36,442.29
34.27346,435.56,444.94
34.29317,436.02,441.30
34.31303,437.14,444.53
34.33286,436.00,443.16
34.35390,434.46,442.31
34.37316,437.83,443.07
34.39394,436.55,440.94
34.41227,439.26,441.47
34.43433,436.74,441.75
34.45366,436.84,440.84
34.47333,437.60,439.70
34.49322,436.86,441.66
34.51411,439.45,439.96
34.53248,440.01,441.42
34.55298,438.09,443.36
34.57238,438.55,440.75
34.59435,437.75,438.53
34.61529,442.05,440.24
34.63573,439.30,439.93
34.65654,440.94,440.98
34.67728,444.57,444.57
34.69687,445.43,443.30
34.71664,445.64,444.43
34.73683,448.07,446.71
34.75732,451.05,443.46
34.77661,450.90,444.14
34.79746,449.87,444.89
34.81761,450.15,445.19
34.83807,452.46,447.27
34.85902,450.56,448.46
34.87862,452.86,447.53
34.89869,451.81,449.68
34.91885,453.91,448.15
34.93904,454.33,447.41
34.95875,452.08,449.15
34.97950,453.08,449.89
34.99917,452.53,448.75
35.01793,453.66,450.55
35.03796,456.82,448.85
35.05878,452.60,449.59
35.07875,453.12,447.46
35.09774,453.84,450.25
35.11949,454.40,448.10
35.13771,454.75,449.59
35.15824,452.40,448.76
35.17929,453.92,448.25
35.19772,453.51,446.48
35.21894,453.13,447.35
35.23771,454.72,447.08
35.25891,451.62,447.29
35.27774,452.98,448.27
35.29804,454.57,450.59
35.31909,454.35,450.73
35.33905,453.86,449.24
35.35849,455.61,450.54
35.37748,453.61,449.05
35.39862,454.26,451.77
35.41862,453.85,450.02
35.43947,454.98,448.45
35.45893,455.27,449.85
35.47819,455.19,449.76
35.49951,454.79,451.75
35.51927,456.43,451.98
35.53822,454.42,452.75
35.55850,457.16,448.82
35.57859,456.68,450.78
35.59940,456.74,451.24
35.61916,453.97,448.92
35.63826,456.84,453.42
35.65807,455.49,451.43
35.67779,455.33,451.45
35.69901,457.18,451.90
35.71874,457.42,451.80
35.73821,455.31,450.72
35.75924,455.10,451.84
35.77811,455.80,451.59
35.79746,458.05,451.73
35.81919,455.55,450.93
35.83879,457.58,460.04
35.85777,459.05,476.76
35.87842,457.75,499.65
35.89738,461.07,519.08
35.91915,459.87,539.09
35.93918,462.28,542.44
35.95845,462.28,545.56
35.97880,459.37,547.77
35.99897,461.19,543.57
36.01828,459.25,532.86
36.03765,459.41,523.20
36.05812,462.98,518.00
36.07841,461.61,513.06
36.09886,460.81,503.97
36.11921,459.83,495.79
36.13892,463.01,490.88
36.15842,458.77,486.71
36.17832,462.12,480.24
36.19874,462.26,476.11
36.21777,460.15,472.33
36.23774,457.67,467.04
36.25898,457.65,464.17
36.27811,459.08,464.05
36.29871,457.15,464.92
36.31853,456.24,464.46
36.33795,456.95,460.34
36.35790,456.88,458.34
36.37919,455.41,459.99
36.39849,457.75,457.87
36.41838,456.77,459.41
36.43780,458.68,458.51
36.45861,458.61,458.12
36.47809,458.77,456.78
36.49904,459.42,457.72
36.51872,461.99,455.17
36.53871,459.97,456.57
36.55907,460.14,454.99
36.57844,457.65,458.43
36.59738,458.90,456.60
36.61857,457.00,456.43
36.63786,457.25,453.07
36.65867,456.03,453.78
36.67811,455.96,451.53
36.69771,455.76,451.03
36.71774,457.30,453.57
36.73899,455.65,454.18
36.75802,456.99,451.70
36.77894,459.09,455.68
36.79871,457.94,456.68
36.81901,457.37,456.50
36.83858,458.28,451.44
36.85819,457.26,428.52
36.87777,455.97,405.04
36.90012,453.24,382.29
36.91946,451.68,369.02
36.94048,448.30,359.81
36.95902,449.83,356.50
36.97911,451.02,358.12
37.00032,451.19,361.64
37.02028,449.50,365.42
37.03874,452.36,372.80
37.05856,449.12,380.28
37.07991,451.69,386.18
37.09945,452.00,395.75
37.12021,453.50,401.06
37.13925,453.85,407.88
37.15854,451.88,412.05
37.17905,453.01,417.23
37.19984,453.68,421.94
37.21959,455.76,427.63
37.23863,453.96,429.96
37.25893,454.50,433.51
37.27874,456.52,440.08
37.29898,454.38,439.48
37.32008,457.16,443.36
37.33956,456.91,443.79
37.35962,457.79,447.86
37.37991,454.57,447.35
37.39833,456.66,447.85
37.41875,454.79,449.09
37.44017,452.60,451.78
37.45952,454.86,451.94
37.47940,451.86,452.94
37.50038,452.98,451.10
37.51962,451.64,452.53
37.54041,452.44,453.00
37.55924,452.19,450.81
37.57939,454.23,453.03
37.60018,454.92,451.41
37.61956,455.88,452.57
37.64014,453.00,452.21
37.65970,454.70,452.49
37.67841,454.88,452.90
37.69952,453.72,454.08
37.71867,452.66,450.71
37.73962,453.98,454.69
37.75948,456.64,451.84
37.77937,455.85,451.53
37.80066,455.56,452.26
37.82006,453.55,454.19
37.84000,453.24,454.54
37.85991,455.88,453.91
37.87997,454.76,452.09
37.89979,452.03,451.70
37.91991,454.32,452.51
37.93951,452.51,454.15
37.96010,453.47,450.48
37.97981,448.70,450.49
38.00071,452.22,450.93
38.02073,449.27,447.62
38.04045,452.23,452.29
38.06073,449.29,449.72
38.08060,452.20,448.99
38.10041,448.98,452.76
38.12045,449.15,450.60
38.14069,448.71,453.50
38.16003,449.87,452.38
38.18032,448.39,454.16
38.20142,449.02,452.00
38.22151,450.74,453.97
38.24149,449.73,453.89
38.26188,451.73,454.27
38.28135,447.67,451.21
38.30203,450.98,453.96
38.32240,447.73,451.08
38.34243,450.54,451.06
38.36141,446.54,452.49
38.38149,447.78,451.87
38.40152,449.81,452.67
38.42171,449.88,454.49
38.44059,449.33,452.73
38.46073,448.72,450.58
38.48041,451.02,449.82
38.50189,449.26,452.88
38.52092,450.12,453.13
38.54167,449.49,452.62
38.56192,450.83,452.85
38.58174,450.82,452.82
38.60239,451.08,449.65
38.62046,450.48,450.02
38.64195,450.99,450.75
38.66179,451.27,449.63
38.68197,450.28,450.74
38.70084,450.19,450.77
38.72088,449.04,451.49
38.74142,446.54,451.01
38.76114,448.65,451.81
38.78137,448.21,452.10
38.80211,451.04,450.96
38.82202,448.77,453.51
38.84134,448.34,453.08
38.86193,449.86,451.53
38.88096,448.31,450.48
38.90214,447.02,451.30
38.92141,446.78,452.89
38.94095,448.84,450.87
38.96065,447.01,452.20
38.98190,448.08,452.75
39.00221,449.82,450.11
39.02229,446.82,450.04
39.04110,449.31,450.43
39.06103,448.06,450.53
39.08090,448.93,451.92
39.10153,449.51,452.87
39.12225,448.89,449.21
39.14092,447.87,450.15
39.16136,449.24,451.79
39.18215,448.45,449.44
39.20190,448.65,449.63
39.22071,446.86,450.20
39.24178,449.58,450.32
39.26140,447.62,449.68
39.28176,450.23,448.93
39.30114,448.14,449.59
39.32088,446.83,451.06
39.34179,447.60,449.42
39.36053,447.00,449.24
39.38063,448.58,449.87
39.40192,444.31,451.91
39.42185,446.32,452.04
39.44218,445.02,449.94
39.46159,445.46,452.19
39.48103,447.14,454.00
39.50172,445.91,453.01
39.52101,446.24,453.17
39.54093,448.23,453.27
39.56113,446.75,453.14
39.58175,445.83,452.64
39.60045,445.61,455.00
39.62042,448.04,453.00
39.64110,448.05,453.19
39.66061,446.02,451.77
39.68090,446.83,452.43
39.70138,445.54,452.56
39.72187,446.32,451.06
39.74115,444.99,452.95
39.76150,445.77,451.49
39.78190,446.38,451.25
39.80144,446.79,452.75
39.82093,445.42,449.86
39.84203,445.68,449.92
39.86083,445.91,451.30
39.88077,443.67,455.26
39.90122,446.45,468.51
39.92114,446.87,485.31
39.94053,449.45,506.65
39.96053,448.58,522.59
39.98060,449.52,539.65
40.00114,453.01,548.46
40.02148,452.80,547.42
40.04161,452.27,542.28
40.06160,453.02,538.82
40.08129,454.25,530.45
40.10134,455.28,524.77
40.12144,452.99,516.71
40.14051,454.42,512.70
40.16216,454.60,509.06
40.18118,452.99,498.80
40.20165,454.60,494.20
40.22043,453.53,486.61
40.24198,451.84,480.70
40.26167,453.02,478.45
40.28170,447.73,473.64
40.30157,449.19,469.49
40.32248,444.62,466.77
40.34278,446.03,464.47
40.36134,443.64,463.82
40.38144,445.16,459.92
40.40195,444.07,461.59
40.42154,446.08,459.93
40.44254,444.18,458.56
40.46310,446.26,455.55
40.48292,446.81,456.15
40.50253,443.27,454.06
40.52320,444.90,455.30
40.54185,441.54,455.34
40.56176,443.19,452.96
40.58297,443.36,452.97
40.60203,443.68,451.75
40.62154,443.86,449.44
40.64135,444.75,451.11
40.66302,442.41,451.40
40.68286,443.23,453.22
40.70285,445.05,449.87
40.72336,445.09,451.36
40.74194,442.18,449.74
40.76233,445.17,449.08
40.78251,441.74,447.16
40.80244,443.02,447.38
40.82299,439.94,449.10
40.84255,440.10,449.04
40.86268,440.84,449.54
40.88170,440.48,450.18
40.90305,440.11,452.53
40.92288,437.81,457.04
40.94276,439.01,451.31
40.96206,435.92,441.72
40.98257,434.89,424.14
41.00145,435.26,403.36
41.02300,433.53,381.10
41.04252,432.15,367.13
41.06249,434.37,361.91
41.08288,433.86,356.06
41.10301,430.37,354.91
41.12306,432.91,358.31
41.14265,431.30,362.08
41.16311,433.37,367.38
41.18146,436.06,375.93
41.20211,435.00,383.15
41.22291,435.14,389.07
41.24142,435.46,394.37
41.26186,437.25,400.42
41.28179,436.63,405.10
41.30301,437.18,407.79
41.32257,438.80,413.00
41.34292,438.71,416.78
41.36207,436.39,421.35
41.38155,436.86,423.47
41.40317,436.20,427.05
41.42213,437.27,428.75
41.44155,436.54,431.31
41.46301,438.19,434.60
41.48222,437.41,437.55
41.50313,437.52,437.08
41.52246,437.61,440.55
41.54173,440.17,440.20
41.56280,439.71,442.13
41.58122,438.04,442.31
41.60233,439.10,441.77
41.62192,437.96,442.05
41.64159,436.67,446.35
41.66315,438.29,443.40
41.68304,439.69,444.79
41.70276,438.35,445.75
41.72329,440.62,448.41
41.74225,441.42,446.33
41.76248,438.13,446.76
41.78152,437.35,448.22
41.80133,437.99,446.44
41.82204,438.40,447.51
41.84152,437.25,446.90
41.86135,439.22,444.42
41.88144,437.27,447.93
41.90217,438.18,448.70
41.92187,438.61,448.94
41.94382,435.93,447.81
41.96324,433.68,447.83
41.98233,437.28,447.58
42.00282,433.94,443.46
42.02391,435.30,445.60
42.04388,434.92,446.20
42.06258,434.25,447.30
42.08286,437.37,447.85
42.10324,436.38,448.76
42.12394,436.00,447.17
42.14370,436.08,446.71
42.16287,437.05,448.86
42.18461,435.30,446.46
42.20518,438.76,444.30
42.22602,438.56,446.32
42.24482,435.58,443.80
42.26438,434.56,445.87
42.28480,436.64,442.46
42.30484,436.09,442.03
42.32480,437.50,443.38
42.34564,434.54,443.76
42.36560,437.28,443.66
42.38541,435.74,443.35
42.40564,436.00,445.89
42.42633,438.60,446.14
42.44546,438.63,446.25
42.46500,437.29,442.57
42.48483,436.15,443.60
42.50536,436.66,443.72
42.52549,436.90,446.56
42.54576,435.62,445.21
42.56454,434.82,444.98
42.58476,435.45,443.91
42.60418,437.80,443.27
42.62596,439.65,444.15
42.64572,436.92,443.05
42.66562,438.40,445.88
42.68558,440.37,443.69
42.70499,438.58,442.69
42.72599,438.84,445.65
42.74468,439.29,441.44
42.76610,437.33,441.29
42.78613,438.93,444.87
42.80612,435.74,445.33
42.82589,436.37,449.03
42.84622,439.11,447.60
42.86528,438.97,449.21
42.88435,438.62,452.05
42.90536,440.84,459.63
42.92473,445.16,464.03
42.94455,450.09,473.04
42.96594,452.03,480.17
42.98605,450.41,482.98
43.00589,451.02,478.37
43.02543,447.76,461.96
43.04526,443.72,445.54
43.06448,439.61,421.81
43.08605,437.50,403.52
43.10445,436.25,390.75
43.12538,432.25,379.06
43.14447,429.11,367.94
43.16527,429.64,360.51
43.18495,429.32,357.94
43.20441,429.59,356.74
43.22507,425.27,357.38
43.24456,428.54,363.30
43.26538,428.01,369.22
43.28447,426.78,377.45
43.30504,426.80,383.46
43.32573,430.62,391.77
43.34570,431.73,401.84
43.36530,430.35,406.20
43.38511,434.46,412.12
43.40490,434.70,417.71
43.42414,435.16,423.21
43.44444,434.60,427.59
43.46532,437.14,433.36
43.48460,437.87,440.56
43.50454,440.80,445.00
43.52475,441.70,449.33
43.54491,443.90,453.61
43.56615,447.33,458.25
43.58493,447.63,458.20
43.60544,446.84,462.02
43.62546,447.70,467.56
43.64582,448.36,479.33
43.66485,452.08,506.52
43.68441,454.23,540.86
43.70471,457.30,565.71
43.72439,461.72,575.16
43.74455,458.42,570.34
43.76576,457.71,556.05
43.78460,454.31,540.63
43.80454,450.12,522.21
43.82604,448.96,506.29
43.84586,448.36,488.73
43.86524,444.94,475.93
43.88420,444.77,468.63
43.90619,447.26,471.83
43.92524,451.86,484.01
43.94570,457.25,502.83
43.96537,459.69,520.81
43.98522,459.86,537.67
44.00634,463.68,545.91
44.02626,465.78,552.85
44.04530,469.20,556.46
44.06686,468.97,559.34
44.08656,466.49,561.15
44.10698,466.72,557.61
44.12613,466.51,553.86
44.14626,466.00,548.65
44.16561,464.06,546.88
44.18649,460.83,543.41
44.20627,459.40,537.93
44.22542,460.89,535.79
44.24603,455.31,532.15
44.26623,454.62,530.72
44.28677,453.16,530.07
44.30723,451.94,525.75
44.32672,450.58,521.52
