Program Time [s],data 0,data 1
17.49008,446.18,487.47
17.50906,447.45,489.96
17.53068,445.94,492.23
17.54966,445.34,494.53
17.56925,445.38,494.55
17.59044,446.41,493.78
17.61028,445.72,494.99
17.63000,445.75,496.77
17.64906,444.58,496.88
17.66951,447.17,497.04
17.68905,445.08,497.85
17.70963,447.83,497.37
17.73058,445.35,495.26
17.75067,444.93,495.79
17.76986,445.45,495.93
17.79009,445.96,495.40
17.80992,445.55,494.70
17.82951,445.62,494.89
17.85245,448.01,496.74
17.87047,448.50,495.94
17.89032,447.61,493.94
17.90993,446.93,498.53
17.93034,445.96,498.73
17.94967,445.26,499.27
17.96999,446.15,497.14
17.99000,446.07,499.75
18.00956,443.12,498.30
18.02888,443.21,495.41
18.04948,446.93,498.00
18.07066,443.03,501.04
18.09030,443.45,514.41
18.11025,445.89,540.96
18.12980,450.70,566.68
18.14929,451.62,588.85
18.16973,452.16,600.10
18.18923,455.63,604.83
18.20918,453.36,604.71
18.23022,454.36,592.08
18.24891,451.48,577.21
18.27017,448.10,565.34
18.28983,448.50,555.06
18.30938,448.32,545.64
18.33048,446.59,536.01
18.34870,448.23,532.10
18.36968,448.37,527.95
18.39041,446.26,522.32
18.41030,445.44,521.30
18.42941,447.52,514.00
18.44931,446.67,510.39
18.46876,447.73,506.20
18.48917,448.15,503.73
18.50979,446.07,503.68
18.52955,446.59,504.68
18.54929,445.71,503.16
18.56931,446.23,498.30
18.59064,448.24,498.80
18.60932,446.38,498.26
18.62918,444.34,496.83
18.65042,446.23,495.15
18.67029,445.56,496.53
18.68924,444.41,494.99
18.70960,444.52,497.30
18.72929,447.92,495.21
18.74971,446.46,496.12
18.76893,446.25,496.30
18.78943,446.09,496.18
18.80871,446.75,495.29
18.83042,445.20,497.78
18.85064,446.32,496.01
18.86976,447.68,497.37
18.88991,447.36,491.94
18.90972,445.92,493.67
18.92914,446.81,495.02
18.94963,444.53,495.52
18.97146,446.15,496.10
18.99136,448.67,494.79
19.01161,448.54,497.08
19.02999,451.05,495.52
19.05116,450.60,495.89
19.07021,448.86,497.08
19.09062,448.90,497.35
19.11119,451.87,495.71
19.13057,451.83,498.52
19.14984,450.62,497.29
19.17131,453.90,498.43
19.19058,452.61,495.95
19.21050,453.14,488.76
19.23127,454.86,476.95
19.25025,455.36,450.20
19.27095,452.70,429.35
19.29132,448.62,412.36
19.31182,449.53,404.08
19.33175,445.69,402.19
19.35002,444.89,406.80
19.37174,445.15,410.64
19.39157,447.75,413.40
19.41072,448.77,421.45
19.43136,447.24,428.13
19.45028,452.00,438.57
19.47128,451.88,444.00
19.49033,452.81,451.66
19.51146,450.93,455.17
19.53046,452.44,460.72
19.55125,452.87,463.23
19.57171,451.44,466.32
19.59113,453.08,470.81
19.61038,450.69,475.51
19.63168,450.53,475.69
19.65169,452.73,481.89
19.67220,450.82,481.71
19.69226,453.22,484.44
19.71255,451.37,484.86
19.73144,453.96,490.47
19.75262,452.21,489.67
19.77211,451.80,491.38
19.79095,451.70,491.55
19.81208,452.79,492.64
19.83234,455.26,493.04
19.85100,456.35,496.04
19.87191,452.80,497.70
19.89134,456.07,495.26
19.91229,457.90,495.03
19.93268,455.12,498.85
19.95156,455.49,498.75
19.97266,458.81,499.71
19.99078,458.06,496.28
20.01221,456.67,496.45
20.03072,458.54,496.76
20.05265,457.13,498.44
20.07118,456.77,498.53
20.09129,458.85,498.83
20.11122,456.48,499.09
20.13244,457.39,497.37
20.15108,456.50,497.49
20.17231,458.15,500.34
20.19154,459.19,498.64
20.21270,456.74,497.36
20.23199,456.10,495.66
20.25262,456.01,497.38
20.27238,457.67,497.79
20.29183,457.48,497.90
20.31201,455.83,494.46
20.33158,453.91,497.84
20.35197,453.40,497.10
20.37090,455.27,496.56
20.39070,457.55,495.30
20.41184,454.87,499.08
20.43137,457.41,498.25
20.45256,456.06,497.90
20.47120,458.47,498.64
20.49201,455.14,497.97
20.51208,458.48,497.61
20.53132,459.12,498.25
20.55242,457.24,499.28
20.57183,455.88,500.38
20.59178,453.42,502.62
20.61263,453.98,499.62
20.63173,455.27,500.23
20.65111,454.84,501.38
20.67218,458.40,501.01
20.69144,458.03,499.27
20.71237,458.19,497.08
20.73186,458.49,497.99
20.75158,461.19,501.74
20.77164,461.41,499.93
20.79212,458.02,499.91
20.81151,457.96,502.80
20.83148,462.08,503.11
20.85147,458.37,499.68
20.87117,458.75,500.47
20.89217,461.96,498.69
20.91158,458.20,501.50
20.93128,459.31,499.01
20.95219,459.44,501.93
20.97198,458.51,498.89
20.99142,456.56,499.51
21.01080,459.27,498.06
21.03200,458.97,501.62
21.05110,457.34,500.90
21.07196,455.31,501.97
21.09245,457.27,498.11
21.11107,454.46,499.61
21.13149,456.84,500.66
21.15092,456.39,500.32
21.17198,457.12,498.90
21.19109,456.09,500.48
21.21113,456.35,500.43
21.23275,457.54,498.53
21.25198,459.56,499.86
21.27143,456.57,497.25
21.29156,459.76,497.66
21.31111,458.12,498.72
21.33134,459.97,497.72
21.35203,461.77,499.18
21.37163,461.47,497.78
21.39279,462.68,499.03
21.41172,461.51,503.04
21.43132,460.27,504.73
21.45189,461.60,503.28
21.47194,461.98,506.56
21.49153,461.03,507.44
21.51195,458.61,506.87
21.53199,463.10,505.60
21.55244,460.08,503.27
21.57094,460.72,503.68
21.59107,459.78,502.56
21.61245,460.45,501.26
21.63070,459.71,501.77
21.65101,457.29,503.19
21.67082,458.40,499.40
21.69241,459.03,499.16
21.71175,458.63,498.56
21.73096,460.50,499.27
21.75101,458.69,502.03
21.77120,460.80,500.32
21.79181,461.90,500.12
21.81275,458.86,499.40
21.83134,460.99,500.61
21.85132,461.55,501.46
21.87231,458.33,499.93
21.89116,458.88,501.95
21.91116,458.48,501.09
21.93254,460.58,501.98
21.95183,460.23,502.24
21.97219,460.28,501.98
21.99318,463.08,498.25
22.01333,462.20,499.78
22.03260,461.17,498.72
22.05341,464.31,499.08
22.07307,464.77,510.21
22.09305,466.11,526.65
22.11198,464.97,538.09
22.13226,466.03,548.65
22.15218,465.70,556.04
22.17387,463.96,559.39
22.19540,462.69,559.26
22.21403,462.33,555.05
22.23555,459.60,555.07
22.25527,461.43,551.33
22.27542,462.02,547.87
22.29494,461.65,539.12
22.31408,460.02,538.73
22.33415,462.29,530.50
22.35453,461.31,527.58
22.37375,462.78,525.65
22.39365,461.49,522.44
22.41402,461.44,519.38
22.43426,461.59,517.21
22.45455,459.61,514.18
22.47501,459.02,511.87
22.49446,457.13,507.68
22.51432,457.33,504.74
22.53408,457.24,507.58
22.55476,459.07,509.91
22.57560,456.68,507.97
22.59438,457.43,507.83
22.61548,459.66,506.42
22.63373,461.30,507.99
22.65522,458.14,508.48
22.67438,458.24,505.65
22.69454,458.28,504.63
22.71442,461.05,507.39
22.73474,461.71,506.11
22.75383,459.18,504.88
22.77401,459.69,506.08
22.79407,460.24,506.41
22.81408,459.50,504.90
22.83501,456.39,504.49
22.85569,456.93,503.67
22.87382,459.17,501.31
22.89434,458.65,503.43
22.91453,460.22,506.46
22.93515,459.28,504.15
22.95399,458.61,506.05
22.97489,457.09,504.88
22.99446,460.61,490.73
23.01511,458.08,465.76
23.03517,457.17,436.23
23.05534,455.57,414.74
23.07465,453.08,402.52
23.09432,451.15,395.79
23.11430,451.46,397.14
23.13471,452.58,400.52
23.15419,452.18,408.17
23.17388,453.00,413.95
23.19559,452.39,423.05
23.21366,451.72,429.59
23.23376,452.88,437.28
23.25577,452.31,443.24
23.27443,453.49,449.61
23.29390,455.35,457.94
23.31372,457.66,465.28
23.33438,457.19,471.68
23.35478,457.67,477.83
23.37565,457.56,482.44
23.39452,457.30,485.17
23.41434,459.13,488.34
23.43426,457.33,488.72
23.45517,456.13,490.93
23.47534,457.73,491.25
23.49433,457.44,494.59
23.51430,456.19,491.88
23.53432,456.87,495.27
23.55430,453.88,495.58
23.57467,453.28,495.80
23.59389,455.52,496.10
23.61417,453.56,495.47
23.63577,452.58,496.92
23.65432,451.81,498.78
23.67379,453.76,496.21
23.69537,453.79,499.78
23.71446,452.59,500.38
23.73522,453.55,500.36
23.75471,451.73,501.33
23.77560,451.63,501.73
23.79526,454.46,501.11
23.81401,453.28,499.68
23.83377,455.37,502.47
23.85512,452.13,498.84
23.87553,452.63,500.96
23.89425,452.01,500.95
23.91532,454.56,498.68
23.93444,455.37,500.08
23.95408,452.57,497.27
23.97371,454.93,497.83
23.99379,455.07,496.50
24.01469,453.34,496.43
24.03385,453.86,499.00
24.05495,452.72,500.17
24.07543,451.34,499.07
24.09547,453.67,496.29
24.11528,452.79,498.64
24.13460,453.16,499.72
24.15440,458.78,499.25
24.17375,459.24,501.83
24.19424,464.41,501.80
24.21519,462.43,498.45
24.23593,462.56,502.03
24.25565,460.56,500.07
24.27656,462.51,498.45
24.29646,459.56,499.21
24.31719,459.45,500.84
24.33835,460.15,500.28
24.35703,459.09,498.96
24.37803,454.63,501.14
24.39895,454.88,499.28
24.41788,452.58,500.82
24.43804,452.97,497.49
24.45942,451.09,500.07
24.47908,449.42,498.85
24.49962,448.12,497.63
24.52031,447.55,495.76
24.54024,444.55,496.11
24.56055,445.75,492.88
24.58067,442.91,495.84
24.59889,444.64,492.35
24.61911,445.17,493.79
24.63919,443.39,493.05
24.65914,445.35,493.05
24.68166,444.01,492.30
24.70056,443.67,495.06
24.72092,443.30,494.72
24.74004,442.07,494.79
24.76079,442.74,495.53
24.78083,442.54,495.02
24.80085,442.46,494.14
24.81992,443.59,496.62
24.84068,443.74,494.31
24.86056,440.75,494.58
24.88086,441.95,492.36
24.90022,440.25,494.67
24.91967,441.21,492.83
24.94001,441.95,494.18
24.95989,443.90,492.30
24.98157,442.75,492.98
25.00124,441.86,494.89
25.02155,441.20,492.49
25.04091,441.49,493.04
25.06103,441.36,494.78
25.07995,443.00,493.46
25.10007,442.94,493.65
25.12086,444.23,496.32
25.14031,443.61,496.04
25.16167,446.22,496.08
25.17980,444.65,495.48
25.20138,442.99,494.60
25.22137,442.50,494.86
25.24052,441.99,493.18
25.26005,443.46,497.48
25.28005,445.44,492.51
25.29963,445.14,497.43
25.32096,444.49,495.71
25.34075,446.89,496.86
25.35976,446.35,495.45
25.38043,447.89,497.58
25.40153,447.22,499.01
25.42159,446.62,496.66
25.44095,444.99,497.90
25.46005,446.35,495.48
25.48083,446.71,494.50
25.50042,447.53,495.18
25.52137,443.82,496.47
25.54019,446.47,496.52
25.56149,444.82,497.20
25.58082,446.88,496.43
25.60085,445.36,495.25
25.62151,444.62,494.31
25.64081,446.46,494.47
25.66030,444.76,494.34
25.68025,443.78,495.07
25.70048,443.39,492.04
25.72122,444.14,492.89
25.74109,443.42,492.28
25.76066,441.52,493.29
25.78047,442.96,492.88
25.80002,444.74,490.70
25.82164,444.88,492.68
25.84056,444.47,490.13
25.86151,445.57,491.86
25.88005,445.45,493.23
25.90081,446.16,503.05
25.92043,447.93,523.88
25.94038,445.80,548.67
25.96152,446.25,576.82
25.98111,445.37,595.16
26.00111,446.01,603.48
26.01972,443.39,604.72
26.04007,446.45,598.49
26.06140,445.54,588.22
26.08128,445.32,575.94
26.10007,444.93,567.67
26.12159,440.66,554.94
26.14042,441.52,549.86
26.16220,445.64,539.32
26.18112,444.06,535.87
26.20145,445.81,528.35
26.22242,445.64,526.03
26.24187,443.06,521.64
26.26157,444.29,519.23
26.28196,445.19,517.44
26.30173,448.43,516.09
26.32219,449.77,511.47
26.34105,450.12,511.01
26.36236,448.27,509.30
26.38169,449.67,507.90
26.40121,449.16,508.95
26.42233,448.18,503.04
26.44238,448.92,504.41
26.46114,447.61,503.55
26.48207,447.89,500.52
26.50248,447.83,502.82
26.52099,448.97,500.65
26.54157,448.55,502.24
26.56126,447.68,501.92
26.58115,449.50,501.40
26.60107,447.51,497.58
26.62073,448.89,501.15
26.64215,448.93,496.78
26.66111,445.90,497.08
26.68221,447.13,496.37
26.70226,448.75,497.49
26.72192,449.24,496.54
26.74235,448.22,498.52
26.76224,446.90,497.34
26.78202,448.45,498.20
26.80152,449.31,498.99
26.82151,445.98,498.32
26.84264,446.44,494.92
26.86166,446.61,495.89
26.88185,448.44,495.59
26.90042,448.88,496.96
26.92074,448.97,501.54
26.94100,448.63,496.61
26.96160,450.00,487.51
26.98193,447.26,464.81
27.00193,447.41,437.77
27.02109,441.93,412.05
27.04173,442.37,401.42
27.06251,440.68,393.78
27.08112,439.83,391.84
27.10161,442.66,397.06
27.12207,440.12,401.09
27.14207,443.95,408.99
27.16091,444.20,416.36
27.18130,449.82,429.39
27.20104,449.13,437.41
27.22099,452.06,447.93
27.24126,455.44,456.08
27.26225,455.74,462.79
27.28096,456.63,470.32
27.30139,452.49,471.96
27.32237,455.61,475.34
27.34147,451.77,477.82
27.36163,453.84,481.22
27.38134,453.34,488.01
27.40191,452.31,486.61
27.42062,454.11,488.25
27.44258,452.69,489.60
27.46102,454.01,490.74
27.48159,454.32,491.60
27.50155,451.63,492.24
27.52096,452.58,495.40
27.54076,452.60,494.68
27.56128,454.06,494.13
27.58212,451.63,495.63
27.60323,454.55,494.34
27.62322,453.45,491.22
27.64189,455.29,492.92
27.66259,454.79,490.85
27.68228,452.89,492.01
27.70219,454.58,494.59
27.72257,455.08,492.75
27.74293,454.99,495.77
27.76180,455.18,493.33
27.78316,456.12,495.20
27.80245,452.46,496.91
27.82171,455.00,496.93
27.84207,453.89,497.85
27.86307,453.12,496.58
27.88169,456.72,495.61
27.90360,455.18,498.79
27.92332,454.19,498.35
27.94310,456.45,497.77
27.96321,455.59,495.09
27.98279,456.88,499.07
28.00230,457.12,499.23
28.02257,456.35,499.11
28.04196,456.26,500.82
28.06187,455.83,499.22
28.08336,457.00,500.96
28.10277,457.19,499.22
28.12327,454.55,497.11
28.14313,455.98,498.89
28.16171,455.74,498.88
28.18189,458.52,498.49
28.20313,456.46,498.16
28.22295,457.89,495.20
28.24343,458.87,498.37
28.26326,456.12,498.04
28.28219,456.14,497.10
28.30160,459.10,496.63
28.32343,455.64,498.63
28.34274,458.11,497.02
28.36266,458.19,500.34
28.38315,458.55,499.89
28.40317,460.48,501.38
28.42297,460.90,497.89
28.44217,461.98,498.63
28.46157,459.36,499.79
28.48252,459.37,498.35
28.50264,456.72,498.82
28.52160,456.13,496.91
28.54211,457.17,499.28
28.56311,460.94,498.46
28.58307,458.15,499.02
28.60321,458.10,499.09
28.62147,455.82,495.32
28.64290,457.21,496.60
28.66276,458.03,494.35
28.68146,457.08,496.53
28.70295,456.79,496.66
28.72237,459.87,496.22
28.74265,459.00,497.57
28.76310,454.83,496.68
28.78239,458.00,493.53
28.80313,457.37,497.34
28.82179,456.42,499.24
28.84277,456.49,498.34
28.86265,455.93,496.93
28.88162,458.29,497.89
28.90188,457.79,497.13
28.92252,456.81,500.18
28.94169,457.95,501.45
28.96283,455.60,499.09
28.98219,457.18,498.71
29.00295,460.12,498.18
29.02234,456.83,498.77
29.04175,460.16,499.22
29.06348,457.18,497.92
29.08274,459.91,501.13
29.10248,460.04,499.72
29.12203,461.24,498.61
29.14243,460.47,498.15
29.16291,459.17,500.40
29.18287,457.19,500.86
29.20317,459.61,498.65
29.22225,458.25,499.02
29.24310,458.16,496.52
29.26192,458.65,497.45
29.28215,458.31,495.83
29.30272,458.91,498.21
29.32347,460.65,497.19
29.34186,459.73,500.63
29.36332,460.71,499.86
29.38154,458.73,501.42
29.40198,460.96,500.77
29.42297,462.43,500.24
29.44395,461.98,501.75
29.46429,459.50,499.38
29.48379,461.76,498.49
29.50534,459.01,500.26
29.52452,461.92,500.46
29.54459,459.43,502.35
29.56497,458.93,500.54
29.58589,459.79,502.84
29.60597,458.70,502.07
29.62606,459.74,503.07
29.64474,463.68,504.31
29.66550,462.12,503.77
29.68583,462.92,500.83
29.70489,460.01,504.99
29.72438,462.81,502.19
29.74441,461.70,505.59
29.76648,462.09,505.04
29.78485,463.00,505.93
29.80570,459.70,505.15
29.82595,460.60,503.96
29.84638,460.59,504.80
29.86541,461.45,504.40
29.88650,463.35,503.98
29.90563,460.58,503.49
29.92607,461.95,505.43
29.94521,461.56,501.69
29.96592,460.86,503.73
29.98475,458.60,503.51
30.00607,460.03,501.90
30.02484,460.19,505.75
30.04498,461.05,503.71
30.06528,461.47,504.54
30.08471,460.25,502.61
30.10467,458.29,504.13
30.12553,461.75,505.96
30.14569,458.44,505.18
30.16586,460.56,502.91
30.18509,458.46,512.19
30.20483,459.77,527.84
30.22617,462.36,556.20
30.24467,467.48,586.70
30.26491,468.99,612.80
30.28442,468.19,623.25
30.30560,466.79,623.42
30.32621,464.87,614.38
30.34623,461.73,606.79
30.36507,461.86,594.15
30.38486,461.01,580.33
30.40477,459.57,567.40
30.42532,461.06,562.15
30.44542,461.43,553.84
30.46639,457.10,544.07
30.48622,457.52,538.52
30.50504,458.41,532.47
30.52512,457.13,524.91
30.54602,458.39,522.06
30.56522,457.72,516.90
30.58499,458.04,517.67
30.60648,458.10,513.84
30.62497,457.31,510.46
30.64463,457.18,510.66
30.66564,456.90,509.55
30.68585,459.16,511.57
30.70637,460.07,510.50
30.72526,458.89,509.56
30.74530,459.36,511.10
30.76537,461.00,509.54
30.78550,463.57,509.93
30.80583,460.51,510.14
30.82585,462.05,509.88
30.84499,460.93,508.08
30.86619,462.52,505.66
30.88498,460.70,503.55
30.90541,458.47,503.80
30.92581,460.11,507.14
30.94497,457.15,503.20
30.96514,456.99,502.56
30.98616,458.10,503.84
31.00473,460.80,503.93
31.02569,458.60,504.54
31.04546,458.41,506.50
31.06565,460.56,505.26
31.08534,460.45,505.87
31.10587,456.56,504.97
31.12604,458.61,504.23
31.14629,461.16,498.78
31.16528,463.97,482.40
31.18634,465.84,460.89
31.20488,468.66,435.58
31.22569,465.37,414.59
31.24528,463.47,401.55
31.26517,458.33,398.97
31.28489,460.28,397.62
31.30577,458.96,402.83
31.32616,455.57,410.25
31.34607,457.49,414.08
31.36583,457.36,423.32
31.38603,456.77,431.26
31.40498,457.72,439.85
31.42460,459.65,446.90
31.44553,458.56,452.80
31.46478,460.31,460.60
31.48560,454.78,467.66
31.50545,456.20,471.22
31.52550,455.09,478.67
31.54487,457.90,481.90
31.56548,459.31,485.44
31.58558,458.44,488.41
31.60613,457.48,492.40
31.62636,458.65,496.05
31.64501,455.82,498.63
31.66517,455.65,496.87
31.68660,458.53,500.00
31.70591,455.44,499.83
31.72610,455.81,499.54
31.74535,455.77,498.13
31.76491,459.56,499.46
31.78655,456.62,499.53
31.80530,458.72,499.07
31.82633,458.70,498.35
31.84645,456.18,496.55
31.86527,457.02,500.24
31.88504,454.24,497.84
31.90485,453.65,500.09
31.92642,455.39,495.84
31.94510,456.90,499.62
31.96492,455.65,498.66
31.98626,454.65,501.24
32.00561,458.35,497.92
32.02585,458.61,499.22
32.04488,457.49,501.22
32.06576,458.86,501.31
32.08560,458.92,502.98
32.10609,455.96,502.21
32.12630,455.32,502.70
32.14525,458.21,503.35
32.16535,456.13,501.46
32.18595,456.03,500.72
32.20496,455.04,504.44
32.22521,458.00,504.04
32.24610,454.65,504.33
32.26478,454.26,503.02
32.28560,454.83,504.72
32.30541,453.83,501.15
32.32554,454.13,501.58
32.34591,455.83,501.31
32.36484,452.71,504.13
32.38497,455.02,504.48
32.40579,455.08,502.05
32.42592,458.04,500.35
32.44544,456.29,501.76
32.46495,457.94,499.02
32.48499,457.78,499.48
32.50452,454.58,500.48
32.52620,457.06,498.41
32.54594,457.00,497.68
32.56556,458.55,500.91
32.58605,457.86,501.30
32.60506,459.65,500.89
32.62621,456.64,501.27
32.64488,459.38,501.40
32.66554,458.34,503.50
32.68618,456.11,501.20
32.70623,456.28,503.55
32.72623,453.60,501.49
32.74644,452.80,504.02
32.76527,452.71,501.36
32.78487,456.31,502.45
32.80505,456.45,502.69
32.82528,454.67,504.23
32.84528,452.94,503.98
32.86620,455.10,503.24
32.88568,450.89,504.71
32.90441,449.78,504.63
32.92463,453.75,504.52
32.94595,453.48,502.63
32.96625,452.68,502.74
32.98521,451.91,500.08
33.00645,450.14,502.79
33.02512,450.86,502.80
33.04629,449.11,500.66
33.06625,450.39,501.39
33.08490,449.81,501.43
33.10583,451.50,503.06
33.12509,452.19,503.40
33.14550,452.36,499.76
33.16446,452.84,502.68
33.18438,452.72,502.53
33.20558,453.72,502.85
33.22600,455.27,502.69
33.24505,456.18,499.83
33.26581,455.62,500.61
33.28554,455.35,500.68
33.30619,456.44,501.09
33.32620,456.17,500.76
33.34581,457.28,502.21
33.36589,456.59,502.97
33.38482,456.50,498.92
33.40462,455.63,500.23
33.42600,454.71,501.15
33.44501,452.52,500.47
33.46520,454.99,500.94
33.48475,452.43,499.86
33.50471,450.13,501.23
33.52580,452.16,499.97
33.54572,453.30,498.49
33.56496,448.45,500.54
33.58509,450.21,499.05
33.60574,450.70,499.96
33.62541,453.25,498.97
33.64549,453.52,500.13
33.66501,450.85,499.04
33.68594,452.78,499.67
33.70543,454.56,501.12
33.72563,451.47,500.25
33.74490,451.89,497.72
33.76460,449.94,502.07
33.78615,449.96,498.96
33.80539,451.10,498.41
33.82549,451.22,498.95
33.84512,451.75,499.91
33.86575,453.55,499.05
33.88488,449.78,496.18
33.90533,449.80,497.73
33.92465,451.24,501.28
33.94631,450.03,501.25
33.96604,450.31,499.01
33.98535,449.69,500.00
34.00607,453.39,500.89
34.02578,450.80,503.23
34.04464,453.90,502.69
34.06629,452.19,501.87
34.08550,450.74,499.33
34.10523,453.71,500.78
34.12505,453.44,498.87
34.14480,451.56,499.25
34.16436,451.52,499.89
34.18645,449.11,495.02
34.20460,449.84,495.16
34.22480,451.69,500.62
34.24621,451.93,522.82
34.26512,452.63,548.11
34.28592,454.38,576.87
34.30550,452.41,601.50
34.32568,452.71,612.83
34.34597,451.67,619.35
34.36633,447.69,614.44
34.38538,450.01,606.57
34.40581,445.99,596.81
34.42586,446.55,583.06
34.44480,446.54,572.28
34.46542,444.38,558.98
34.48475,444.14,549.88
34.50522,447.30,543.46
34.52558,446.30,536.57
34.54621,444.33,531.19
34.56487,446.04,529.65
34.58625,448.92,523.14
34.60489,449.61,520.01
34.62545,449.57,517.03
34.64452,450.22,515.37
34.66599,448.39,514.38
34.68600,448.09,511.08
34.70533,450.68,507.88
34.72463,449.23,506.11
34.74664,449.34,507.89
34.76636,449.19,505.38
34.78603,448.67,505.50
34.80611,447.08,507.44
34.82548,447.47,505.52
34.84659,447.82,504.11
34.86613,451.69,505.18
34.88709,451.14,504.25
34.90624,448.60,505.06
34.92630,447.43,502.15
34.94705,447.72,503.19
34.96585,447.23,502.71
34.98721,445.15,505.49
35.00704,443.79,503.71
35.02672,444.43,501.79
35.04740,444.73,500.78
35.06717,445.41,503.14
35.08540,446.41,502.39
35.10565,444.62,502.74
35.12609,445.66,504.88
35.14598,443.01,508.02
35.16528,445.56,507.99
35.18719,444.28,506.59
35.20655,446.58,496.08
35.22583,446.92,472.10
35.24656,446.10,443.69
35.26559,444.68,421.67
35.28572,440.84,406.44
35.30568,438.90,400.20
35.32649,441.85,398.16
35.34668,439.30,399.36
35.36632,438.87,400.83
35.38652,439.39,409.15
35.40686,439.08,417.79
35.42715,439.99,425.33
35.44684,438.34,427.54
35.46699,440.30,435.83
35.48628,436.57,441.54
35.50584,440.70,444.51
35.52590,441.50,449.46
35.54599,440.47,454.98
35.56739,441.08,460.31
35.58602,441.75,463.40
35.60611,443.15,470.14
35.62717,444.33,476.14
35.64557,440.89,479.20
35.66600,442.43,480.64
35.68651,445.15,484.40
35.70724,444.52,486.28
35.72693,444.55,489.65
35.74682,446.19,490.27
35.76748,447.35,489.01
35.78763,445.69,489.99
35.80783,446.81,492.12
35.82810,447.44,493.41
35.84813,446.01,495.63
35.86794,446.29,494.31
35.88843,445.25,492.66
35.90828,446.70,494.86
35.92903,447.55,494.31
35.94830,446.63,496.74
35.96859,447.97,496.07
35.98902,445.65,497.76
36.00871,443.52,497.11
36.02807,446.57,496.18
36.04878,445.96,494.55
36.06772,446.64,495.55
36.08808,444.10,494.60
36.10768,443.58,496.73
36.12865,444.72,494.20
36.14991,442.69,497.26
36.16845,445.34,496.27
36.18864,443.62,497.26
36.20939,445.81,498.13
36.22907,445.56,496.32
36.24834,446.67,498.64
36.26858,445.04,499.16
36.28977,447.21,498.21
36.30972,446.96,497.16
36.32955,448.47,496.18
36.34926,445.39,496.61
36.36892,446.11,493.42
36.38981,445.98,496.04
36.40986,445.20,497.76
36.43035,448.15,495.65
36.45031,445.42,497.36
36.47311,449.15,496.51
36.49292,448.26,496.99
36.51246,448.87,496.58
36.53304,446.56,498.25
36.55325,451.13,498.03
36.57341,452.80,499.06
36.59449,453.65,497.25
36.61376,453.67,499.94
36.63434,453.73,499.06
36.65501,457.31,498.85
36.67624,456.58,500.76
36.69444,460.20,500.83
36.71540,458.41,500.78
36.73589,459.49,501.92
36.75445,460.83,500.78
36.77536,462.25,500.43
36.79454,462.09,500.43
36.81553,461.72,497.74
36.83605,461.26,499.05
36.85639,462.20,498.37
36.87465,463.75,499.19
36.89445,463.67,498.96
36.91482,462.46,501.57
36.93546,461.47,500.69
36.95437,462.85,502.50
36.97626,460.81,502.14
36.99442,461.09,502.60
37.01625,460.44,502.81
37.03616,463.21,503.70
37.05462,460.52,503.84
37.07571,463.77,501.45
37.09493,460.63,500.75
37.11582,464.01,501.25
37.13502,461.40,503.04
37.15420,461.00,499.98
37.17523,460.53,502.93
37.19558,458.16,502.74
37.21441,459.25,499.48
37.23513,458.57,502.39
37.25465,461.32,502.58
37.27465,460.47,500.68
37.29523,460.96,503.17
37.31620,458.23,503.01
37.33567,461.82,502.24
37.35655,461.69,501.93
37.37459,459.43,500.93
37.39514,463.49,498.38
37.41637,462.85,499.26
37.43481,460.50,496.61
37.45446,461.41,499.60
37.47576,461.88,499.16
37.49452,463.37,498.54
37.51621,462.92,498.11
37.53604,460.28,495.95
37.55556,460.84,496.76
37.57549,461.99,498.53
37.59509,460.69,498.37
37.61550,463.90,499.29
37.63462,463.87,497.43
37.65482,462.84,499.82
37.67559,463.53,497.59
37.69507,462.25,498.85
37.71489,462.40,497.36
37.73555,466.05,500.91
37.75489,465.10,501.47
37.77635,462.45,501.81
37.79523,463.72,501.30
37.81575,461.62,500.60
37.83704,460.78,502.06
37.85690,461.59,499.28
37.87655,462.68,500.35
37.89663,459.75,499.18
37.91587,458.56,498.46
37.93720,460.27,499.92
37.95627,459.64,499.54
37.97708,457.92,501.47
37.99575,460.38,500.08
38.01719,458.56,502.69
38.03678,458.52,498.46
38.05598,459.98,499.38
38.07702,460.72,498.00
38.09596,458.09,510.56
38.11580,458.68,534.00
38.13576,459.79,562.74
38.15556,458.09,584.09
38.17570,460.65,604.57
38.19620,458.56,611.03
38.21774,458.70,610.26
38.23713,462.53,606.02
38.25789,462.93,597.75
38.27837,461.22,588.75
38.29812,460.90,579.71
38.31665,463.29,569.63
38.33764,462.08,563.60
38.35768,461.11,554.36
38.37717,462.59,545.15
38.39663,459.34,539.73
38.41710,459.90,536.54
38.43746,458.79,531.82
38.45816,458.47,525.73
38.47838,459.12,521.32
38.49804,458.62,521.46
38.51708,458.76,517.61
38.53747,460.90,516.26
38.55750,458.48,515.21
38.57734,460.21,513.65
38.59780,459.11,511.44
38.61714,459.68,510.85
38.63732,461.56,512.80
38.65828,460.50,512.31
38.67773,461.10,508.80
38.69647,460.30,511.00
38.71650,460.31,508.83
38.73825,458.58,507.49
38.75655,460.46,505.48
38.77743,460.16,506.59
38.79747,459.47,506.06
38.81818,458.10,505.46
38.83804,458.42,504.23
38.85796,460.53,503.45
38.87705,460.11,503.17
38.89651,459.77,503.57
38.91611,460.51,506.38
38.93727,459.99,503.47
38.95827,457.40,502.25
38.97690,458.36,501.98
38.99683,458.37,498.71
39.01753,460.76,477.01
39.03657,456.67,452.06
39.05712,454.73,425.71
39.07647,455.42,404.59
39.09642,455.33,396.22
39.11662,452.86,394.21
39.13790,451.75,394.62
39.15667,452.19,401.26
39.17677,452.31,407.83
39.19653,452.41,415.74
39.21704,452.99,423.72
39.23705,452.89,432.49
39.25746,455.06,439.11
39.27716,455.98,450.10
39.29811,457.76,457.63
39.31801,459.35,461.99
39.33683,455.41,466.95
39.35669,456.83,472.74
39.37797,456.88,477.34
39.39795,457.62,481.99
39.41664,454.63,484.76
39.43682,455.14,484.93
39.45770,455.05,486.18
39.47643,457.69,490.19
39.49811,456.90,490.50
39.51811,455.95,490.23
39.53658,458.88,491.26
39.55722,458.60,493.60
39.57794,454.58,494.23
39.59662,457.74,496.96
39.61729,457.83,498.59
39.63698,454.86,497.93
39.65694,458.06,500.35
39.67790,455.62,498.48
39.69711,459.09,498.39
39.71641,456.29,498.33
39.73638,456.25,500.37
39.75710,456.39,499.52
39.77728,457.19,497.21
39.79686,456.35,495.69
39.81693,458.84,496.75
39.83652,457.77,496.35
39.85761,457.01,498.99
39.87767,456.62,500.46
39.89726,455.43,498.23
39.91805,455.61,498.27
39.93772,454.03,498.66
39.95741,453.82,501.19
39.97719,454.39,499.23
39.99685,453.63,500.52
40.01641,452.95,499.48
40.03731,453.25,500.37
40.05820,451.99,498.10
40.07802,451.86,501.07
40.09951,451.55,498.73
40.11772,453.41,497.16
40.13974,452.03,500.34
40.15921,450.91,501.44
40.17955,449.48,499.86
40.19907,451.01,497.92
40.22139,448.77,498.47
40.23960,447.23,496.80
40.26029,446.70,496.81
40.27989,449.15,499.29
40.30052,445.62,498.07
40.32057,447.32,499.59
40.34159,445.79,497.82
40.36066,445.67,499.12
40.38075,444.06,498.43
40.39921,444.06,497.36
40.42033,445.35,499.25
40.44003,446.20,500.42
40.45941,445.00,497.38
40.48065,444.63,499.73
40.49942,447.04,497.55
40.51991,444.65,496.98
40.53937,445.68,499.66
40.55969,446.06,496.10
40.57991,444.58,496.97
40.60060,443.87,498.46
40.62113,443.76,496.60
40.64112,445.39,498.80
40.66129,446.75,499.64
40.67981,443.63,499.39
40.69992,443.28,498.03
40.71988,443.24,496.89
40.74073,443.74,499.34
40.76004,444.43,499.29
40.78018,442.34,498.42
40.80038,442.59,499.40
40.81944,444.59,498.91
40.83989,444.49,499.90
40.86104,445.67,498.58
40.88126,444.97,498.28
40.90068,446.20,496.52
40.92065,448.01,499.42
40.94169,447.64,496.94
40.96194,448.81,494.96
40.98145,445.21,496.74
41.00228,448.20,494.79
41.02150,444.30,496.47
41.04141,444.62,496.72
41.06175,446.24,496.00
41.08158,442.83,496.68
41.10073,442.55,494.34
41.12112,443.24,495.29
41.14164,443.46,496.55
41.16143,443.86,494.89
41.18250,445.10,495.13
41.20337,444.56,496.75
41.22337,441.34,494.48
41.24319,442.77,493.48
41.26380,442.51,494.58
41.28319,442.03,493.84
41.30288,445.37,494.73
41.32327,444.05,495.54
41.34430,443.28,493.98
41.36395,440.17,495.43
41.38316,441.63,496.67
41.40348,443.41,494.90
41.42374,442.82,496.86
41.44408,441.54,496.97
41.46245,441.68,496.32
41.48242,441.88,494.88
41.50366,442.74,496.31
41.52287,443.77,494.63
41.54277,443.51,492.51
41.56348,445.12,494.86
41.58397,443.81,494.89
41.60275,445.86,495.75
41.62301,443.35,495.52
41.64272,444.17,496.11
41.66397,447.65,496.39
41.68315,446.78,495.24
41.70375,444.49,495.60
41.72354,443.76,494.58
41.74339,446.39,495.39
41.76404,444.76,497.20
41.78272,443.28,495.47
41.80361,444.68,496.64
41.82474,444.10,497.63
41.84339,444.06,497.25
41.86338,446.58,496.93
41.88442,447.55,493.39
41.90392,448.21,494.31
41.92419,445.52,492.54
41.94539,445.83,493.91
41.96335,448.30,494.14
41.98462,448.33,494.43
42.00526,448.12,496.71
42.02400,448.02,497.29
42.04437,448.04,496.20
42.06402,447.38,497.96
42.08402,445.99,497.74
42.10377,448.89,498.25
42.12450,446.08,496.86
42.14358,446.90,497.15
42.16349,447.92,495.92
42.18364,447.27,494.88
42.20505,448.33,494.89
42.22376,448.96,497.18
42.24343,448.77,495.79
42.26461,450.62,492.14
42.28451,447.57,494.06
42.30406,446.35,495.09
42.32550,448.82,506.66
42.34400,446.88,520.46
42.36498,446.37,543.01
42.38360,447.47,563.32
42.40503,449.50,575.81
42.42560,449.73,587.87
42.44559,450.04,589.56
42.46390,451.44,587.12
42.48473,449.91,578.88
42.50354,449.79,569.65
42.52374,450.27,559.51
42.54425,451.09,548.00
42.56448,452.44,544.29
42.58413,452.58,532.78
42.60398,451.51,527.77
42.62416,451.72,521.26
42.64437,454.21,523.04
42.66386,454.11,525.33
42.68458,452.08,532.00
42.70536,449.99,532.08
42.72377,451.29,532.67
42.74367,450.66,526.54
42.76445,449.35,525.82
42.78448,448.59,522.59
42.80473,448.35,521.12
42.82392,446.00,516.48
42.84404,449.31,516.41
42.86514,449.71,510.24
42.88337,446.90,511.79
42.97849,450.23,507.80
42.97759,450.43,507.44
42.97717,450.74,504.59
42.97788,449.91,507.90
42.98352,451.55,505.22
43.00401,450.49,504.85
43.02456,451.28,503.66
43.04485,454.30,503.08
43.06456,453.52,500.02
43.08433,453.96,502.81
43.10448,453.08,501.03
43.12419,450.85,502.60
43.14468,452.37,501.79
43.16385,448.18,499.12
43.18335,449.48,499.59
43.20541,448.83,498.36
43.22425,450.10,497.57
43.24357,451.87,496.40
43.26444,452.46,498.83
43.28323,454.49,501.33
43.30473,452.92,501.20
43.32492,453.19,500.07
43.34352,451.66,498.45
43.36532,448.96,498.84
43.38558,452.30,499.38
43.40487,451.31,498.94
43.42370,451.28,497.45
43.44374,449.77,498.23
43.46428,451.96,501.44
43.48310,450.03,493.48
43.50363,453.24,478.96
43.52447,454.43,463.15
43.54383,453.47,444.02
43.56485,451.47,426.13
43.58317,452.24,409.29
43.60588,452.92,396.78
43.62526,449.15,393.18
43.64532,451.47,393.90
43.66510,449.91,396.47
43.68503,450.82,404.32
43.70615,450.76,411.22
43.72597,451.00,417.70
43.74612,453.41,428.25
43.76579,454.48,436.89
43.78624,457.96,440.88
43.80490,457.11,449.44
43.82624,457.14,454.49
43.84448,455.30,460.94
43.86583,457.64,466.66
43.88503,453.99,472.91
43.90626,455.49,475.76
43.92589,455.05,479.78
43.94559,454.66,480.19
43.96429,453.54,483.35
43.98586,455.37,484.33
44.00562,452.28,485.92
44.02478,453.00,488.27
44.04509,453.78,488.28
44.06583,456.64,489.40
44.08602,457.66,491.75
44.10503,457.14,493.95
44.12602,462.06,498.87
44.14602,463.18,503.66
44.16494,464.74,503.90
44.18566,464.05,504.02
44.20454,463.95,505.12
44.22569,462.62,505.46
44.24606,460.90,504.60
44.26529,462.72,500.85
44.28591,459.16,501.42
44.30461,459.92,501.05
44.32440,461.02,498.23
44.34444,460.03,498.20
44.36472,461.10,496.70
44.38589,460.53,495.06
44.40498,458.31,494.11
44.42544,459.83,494.92
44.44576,459.03,495.72
44.46553,461.39,498.09
44.48576,462.09,502.67
44.50630,462.70,513.70
44.52518,464.30,526.31
44.54468,463.95,547.61
44.56530,467.54,561.26
44.58552,463.80,564.76
44.60530,466.05,553.17
44.62440,461.59,541.08
44.64431,457.73,523.79
44.66477,458.86,506.81
44.68442,458.88,496.47
44.70621,456.41,485.73
44.72436,453.54,477.56
44.74494,455.55,470.15
44.76496,453.39,470.05
44.78512,454.91,468.18
44.80543,456.65,464.84
44.82475,457.29,467.00
44.84587,457.52,468.56
44.86660,455.70,470.70
44.88656,454.98,473.08
44.90782,457.76,477.37
44.92699,455.32,479.56
44.94688,455.65,482.22
44.96615,458.00,482.60
44.98706,460.65,484.79
45.00818,461.07,486.85
45.02759,460.14,489.27
45.04693,461.72,489.74
45.06755,463.49,491.25
45.08698,464.03,494.90
45.10726,463.86,495.16
45.12660,461.99,497.35
45.14763,461.58,498.71
45.16785,462.38,498.86
45.18679,460.44,501.92
45.20721,458.96,502.61
45.22807,462.38,503.19
45.24616,459.93,503.16
45.26621,461.60,499.39
45.28816,462.82,501.45
45.30639,460.02,501.02
45.32744,458.89,500.60
45.34763,460.69,502.84
45.36802,461.51,500.55
45.38740,460.28,501.61
45.40653,461.42,501.52
45.42713,461.90,506.03
45.44803,459.23,502.93
45.46647,462.82,502.49
45.48673,460.42,504.93
45.50716,461.77,502.60
45.52719,462.36,505.42
45.54780,460.56,505.44
45.56711,459.50,504.04
45.58626,458.39,500.87
45.60772,458.89,501.74
45.62764,458.88,500.72
45.64693,460.17,499.68
45.66711,460.86,503.09
45.68710,460.32,502.36
45.70766,461.53,502.48
45.72712,459.26,502.20
45.74732,460.19,501.22
45.76867,459.71,501.64
45.78913,460.49,503.37
45.80743,459.14,504.87
45.82823,461.60,502.14
45.84868,461.22,503.95
45.86875,461.90,503.56
45.88721,460.45,503.56
45.90780,458.87,505.83
45.92790,460.44,506.23
45.94775,460.32,502.43
45.96804,457.84,504.74
45.99237,459.35,500.85
46.00906,460.66,500.16
46.02932,459.78,500.12
46.04859,459.22,501.30
46.06862,460.46,499.71
46.08976,459.07,501.77
46.10966,457.22,500.03
46.12852,458.76,501.19
46.14911,458.45,501.67
46.17103,457.76,501.06
46.18945,456.26,500.83
46.21155,454.80,501.65
46.23117,455.68,504.11
46.25181,454.77,503.78
46.27050,455.25,502.98
46.29090,454.23,501.26
46.31182,455.66,503.35
46.33163,454.44,499.74
46.35333,451.31,503.62
46.37275,452.88,502.36
46.39343,450.27,501.45
46.41211,450.82,501.61
46.43259,449.03,502.84
46.45339,447.57,501.21
46.47271,446.66,499.01
46.49272,448.52,500.26
46.51233,445.81,497.45
46.53215,445.56,496.73
46.55386,445.59,496.45
46.57259,446.91,495.25
46.59364,444.90,491.57
46.61316,443.67,492.46
46.63300,447.55,492.66
46.65317,446.41,490.13
46.67240,444.41,495.79
46.69373,447.00,512.41
46.71386,447.35,534.20
46.73347,449.76,554.07
46.75269,449.03,572.99
46.77381,448.19,579.36
46.79222,446.65,584.95
46.81368,447.89,586.60
46.83319,447.07,579.75
46.85271,444.19,575.95
46.87355,442.53,571.51
46.89205,443.31,565.12
46.91286,443.82,559.82
46.93379,444.38,552.97
46.95251,444.62,551.02
46.97259,442.71,546.37
46.99222,446.17,543.65
47.01381,445.63,538.01
47.03475,447.55,532.43
47.05323,447.67,527.31
47.07335,444.00,525.35
47.09442,443.95,522.48
47.11477,443.38,517.29
47.13408,446.10,514.52
47.15320,446.68,511.04
47.17353,443.80,513.43
47.19394,446.49,512.55
47.21452,444.08,510.77
47.23356,446.22,506.19
47.25504,445.72,505.58
47.27359,447.77,502.12
47.29426,449.01,502.55
47.31374,448.19,506.03
47.33489,446.13,504.05
47.35476,446.97,502.40
47.37442,446.82,501.66
47.39403,444.68,501.60
47.41480,443.94,501.49
47.43452,441.94,501.95
47.45389,444.14,500.50
47.47384,443.00,498.97
47.49343,443.53,499.31
47.51409,442.55,501.37
47.53399,446.11,501.74
47.55438,445.94,500.98
47.57344,444.05,500.28
47.59371,444.43,497.95
47.61456,443.88,500.56
47.63488,443.22,499.92
47.65580,443.44,500.47
47.67523,443.86,497.96
47.69431,443.27,495.04
47.71536,443.05,497.63
47.73483,445.04,495.60
47.75456,443.57,499.22
47.77550,444.79,500.13
47.79441,445.33,499.31
47.81530,443.19,501.52
47.83743,444.70,498.13
47.85763,447.14,501.20
47.87773,446.52,501.56
47.89798,447.70,499.50
47.91675,447.15,503.86
47.93733,447.67,502.59
47.95682,447.32,488.66
47.97783,445.80,469.98
47.99640,444.76,445.28
48.01723,442.89,422.61
48.03739,442.96,404.57
48.05750,445.16,393.23
48.07749,444.74,393.59
48.09723,447.14,394.12
48.11799,446.67,399.16
48.13878,448.82,405.92
48.15831,447.64,413.71
48.17859,448.05,421.33
48.19842,449.76,426.07
48.21833,449.57,429.43
48.23801,451.69,436.64
48.25864,452.73,444.96
48.27769,452.34,447.76
48.29860,451.38,453.22
48.31748,453.72,458.72
48.33758,451.29,463.78
48.35733,451.24,466.52
48.37805,453.34,469.89
48.39864,452.34,476.42
48.41816,450.97,478.01
48.43791,451.04,481.58
48.45826,450.86,484.53
48.47846,448.07,487.65
48.49767,447.46,490.11
48.51789,448.76,490.38
48.53748,445.50,490.22
48.55878,447.55,493.57
48.57704,449.07,493.88
48.59744,447.85,497.99
48.61818,448.76,494.53
48.63754,446.54,498.33
48.65909,448.85,496.83
48.67907,446.22,497.49
48.69724,449.07,497.30
48.71718,450.50,497.91
48.73891,449.85,498.30
48.75814,448.23,497.00
48.77879,448.41,497.98
48.79891,451.82,500.31
48.81797,451.46,501.51
48.83814,450.45,499.57
48.85727,451.12,500.57
48.87834,451.40,499.53
48.89904,452.15,502.12
48.91850,455.81,502.97
48.93951,452.55,502.34
48.95943,455.24,502.20
48.97961,454.56,502.15
48.99945,452.97,501.41
49.02001,456.16,502.18
49.03794,454.65,503.19
49.05848,455.14,501.33
49.07847,453.93,500.58
49.09977,453.69,500.80
49.11885,454.65,500.10
49.13978,457.64,497.43
49.15964,457.06,498.41
49.17874,455.15,498.36
49.19987,455.34,497.28
49.21918,453.44,500.40
49.23939,453.84,500.19
49.25972,454.82,498.22
49.27978,455.18,496.56
49.29915,457.48,496.87
49.31885,455.66,499.05
49.33828,457.48,497.13
49.35972,454.15,498.79
49.37952,457.23,496.37
49.39883,454.99,497.71
49.41835,454.65,496.58
49.43907,455.78,497.75
49.45856,454.37,496.06
49.47962,458.12,495.20
49.49822,455.67,493.40
49.51996,457.17,494.81
49.53915,455.13,494.52
49.55914,455.53,497.07
49.57811,458.16,497.03
49.59974,454.04,498.87
49.61897,455.84,498.37
49.63948,455.56,497.94
49.65971,455.09,498.28
49.67963,457.12,497.59
49.69988,456.19,495.44
49.71903,457.95,497.78
49.73819,454.99,500.33
49.75905,454.64,500.85
49.77947,455.30,498.45
49.79920,457.10,498.50
49.81872,456.28,500.32
49.83857,454.75,500.39
49.85873,456.75,500.90
49.87880,455.73,497.41
49.89959,454.95,499.20
49.91921,454.79,499.95
49.94009,457.06,500.47
49.95993,458.10,498.24
49.97862,457.34,498.37
49.99954,455.62,499.08
50.01873,457.81,499.79
50.03947,454.75,502.09
50.05969,457.09,498.31
50.07908,458.07,498.98
50.09921,456.97,498.91
50.11959,459.62,497.75
50.13899,456.78,499.49
50.15888,458.13,498.48
50.18000,459.15,501.43
50.19902,456.50,500.33
50.21949,456.98,500.38
50.23895,455.78,500.83
50.25854,458.50,500.89
50.28010,457.78,498.70
50.29852,458.22,502.21
50.31923,458.62,499.69
50.33963,456.44,499.41
50.35891,455.93,501.17
50.37793,458.15,503.00
50.39878,457.01,500.98
50.41948,457.80,503.23
50.43878,461.70,503.64
50.45949,459.78,504.06
50.47987,461.41,500.87
50.49879,458.29,501.82
50.51973,461.68,501.18
50.53981,463.25,500.36
50.55806,461.88,500.39
50.57972,459.64,502.76
50.59943,461.84,504.63
50.61950,458.67,504.17
50.63966,461.26,501.02
50.65858,461.85,503.50
50.67829,457.96,501.65
50.69853,458.74,498.74
50.71857,457.68,498.28
50.73839,459.87,497.53
50.76078,460.91,499.70
50.78035,458.10,501.59
50.79916,460.11,500.18
50.81988,460.40,502.88
50.83956,458.87,499.68
50.86118,462.01,500.19
50.87980,459.68,503.60
50.89922,462.49,501.18
50.91983,459.01,502.01
50.94102,449.67,502.44
50.95994,446.97,502.52
50.98092,444.11,503.42
51.00039,443.73,503.55
51.02058,442.23,503.98
51.03943,443.93,500.92
51.06061,446.19,501.59
51.08004,446.06,501.70
51.09895,449.46,503.34
51.12026,449.38,502.53
51.13902,452.44,499.89
51.16033,454.82,499.23
51.17985,455.74,496.86
51.19929,453.04,500.06
51.22101,455.02,502.62
51.24075,455.17,517.03
51.25916,456.56,535.54
51.28012,457.95,553.62
51.30018,461.13,571.02
51.32019,459.23,579.67
51.33894,460.06,585.68
51.36011,463.83,586.74
51.38071,462.47,583.47
51.39882,463.93,583.08
51.42094,461.71,573.52
51.44020,460.84,567.76
51.46095,460.27,563.00
51.48064,461.50,552.78
51.50016,461.75,553.03
51.52095,462.00,546.30
51.54080,464.14,541.15
51.56011,463.09,536.59
51.58091,460.03,531.54
51.60018,458.88,528.91
51.61888,458.99,526.33
51.64048,461.31,521.42
51.66050,459.76,517.58
51.67912,461.45,516.19
51.69961,460.20,515.88
51.71963,461.09,514.62
51.74016,463.21,512.80
51.75989,462.18,513.22
51.78103,460.16,509.21
51.80083,462.58,508.84
51.82068,459.46,507.84
51.84094,459.15,507.92
51.86014,459.78,506.04
51.87933,459.52,506.01
51.89933,462.67,503.71
51.92054,463.24,503.83
51.94089,462.03,506.08
51.95973,460.87,504.33
51.97981,460.14,504.18
52.00039,462.85,505.48
52.02001,462.13,504.40
52.04058,464.24,504.89
52.05995,462.51,507.71
52.08047,462.93,508.16
52.09988,460.46,505.94
52.12032,461.65,505.88
52.13979,460.48,505.36
52.15960,460.25,505.35
52.17986,462.85,505.88
52.19960,459.66,506.60
52.22018,462.88,507.14
52.24075,462.86,504.70
52.26067,459.84,503.57
52.27963,460.47,505.01
52.29982,461.43,504.62
52.31946,460.48,503.76
52.34052,462.08,503.09
52.36093,463.18,502.88
52.37986,460.88,487.68
52.39980,463.41,469.46
52.41915,463.39,450.14
52.44071,461.52,429.00
52.45940,459.06,412.15
52.48002,458.22,406.36
52.50050,459.63,397.76
52.51991,457.13,401.29
52.53992,457.32,402.21
52.56049,458.02,412.35
52.57944,454.23,419.81
52.59892,458.60,430.25
52.61959,458.21,437.03
52.64095,457.96,445.47
52.66073,458.05,452.21
52.68002,458.53,460.49
52.69982,459.05,464.95
52.72043,460.58,470.02
52.74012,459.32,473.46
52.75964,462.60,477.98
52.77923,462.00,480.86
52.79903,465.07,485.17
52.81899,463.31,488.79
52.83957,466.16,490.92
52.86041,461.64,493.62
52.88005,461.71,493.87
52.89999,463.27,496.59
52.91880,463.49,497.63
52.93939,462.54,497.67
52.95995,462.71,500.31
52.98080,462.44,497.60
53.00021,461.42,499.59
53.02050,461.51,500.24
53.04118,461.48,496.99
53.06124,460.61,499.85
53.08048,458.59,497.77
53.10082,459.98,496.06
53.12068,460.95,498.79
53.14130,458.67,497.95
53.16185,460.00,499.35
53.18021,463.24,499.91
53.20114,460.47,501.22
53.22117,458.97,500.20
53.24022,462.09,500.52
53.26038,460.68,501.05
53.28164,458.52,496.76
53.29975,459.45,499.18
53.32182,459.10,497.10
53.34142,459.19,499.64
53.35993,457.24,499.79
53.38182,460.22,499.24
53.40142,457.23,500.03
53.42026,458.76,498.09
53.44103,458.60,497.77
53.46022,460.19,500.42
53.48176,458.42,498.75
53.50175,460.82,499.46
53.52104,459.65,502.41
53.54126,460.29,500.78
53.56047,458.84,500.75
53.58126,457.04,499.67
53.60095,457.75,500.50
53.62119,460.73,498.34
53.64183,459.28,501.34
53.66079,459.23,499.00
53.68098,459.04,497.40
53.70008,458.43,500.10
53.72101,457.83,500.44
53.74058,458.44,500.00
53.76131,458.66,499.83
53.78129,459.22,497.17
53.80055,457.30,498.15
53.82088,459.52,495.66
53.84170,461.37,499.38
53.86084,458.09,496.18
53.88155,460.50,496.67
53.90007,458.53,498.43
53.92020,459.11,500.24
53.94074,461.44,500.55
53.96173,461.87,501.32
53.98010,459.98,499.20
54.00080,462.75,500.52
54.02166,459.34,497.90
54.04164,462.42,498.47
54.06131,457.94,498.77
54.08010,455.66,498.67
54.10065,450.89,500.50
54.12139,451.31,499.95
54.14161,450.21,497.14
54.16145,448.45,500.94
54.17982,452.41,501.03
54.20197,453.21,500.07
54.22023,452.49,502.93
54.24155,452.38,500.36
54.26210,455.61,499.38
54.28059,453.15,500.24
54.30107,453.01,500.53
54.32121,453.67,501.84
54.34036,453.46,500.28
54.36104,454.30,500.31
54.38199,455.84,498.28
54.40105,454.91,497.75
54.42009,455.91,499.00
54.44103,452.42,497.70
54.46123,452.76,499.66
54.48050,452.62,497.14
54.50139,455.90,499.31
54.52060,453.12,498.72
54.54067,454.67,499.03
54.56123,455.23,500.81
54.58042,454.21,500.00
54.60021,453.32,499.08
54.62113,453.83,499.43
54.63995,455.32,496.04
54.66031,452.84,500.21
54.68050,455.90,499.98
54.70181,453.62,501.69
54.72063,454.47,503.48
54.74091,447.69,497.13
54.76136,442.04,481.88
54.78186,431.04,469.11
54.80048,423.21,458.16
54.82152,415.83,451.55
54.84027,417.08,448.25
54.86129,416.89,448.64
54.88138,415.89,450.92
54.90175,417.72,454.69
54.92017,423.84,465.81
54.94096,429.72,470.77
54.96011,431.27,479.19
54.98027,433.41,484.04
55.00067,438.12,487.23
55.02128,438.51,491.18
55.04043,443.18,494.02
55.06030,445.27,493.88
55.08094,448.98,494.62
55.10018,447.58,497.48
55.12075,449.68,500.32
55.14019,449.17,500.83
55.16081,448.73,502.45
55.18028,449.27,501.27
55.20043,449.14,499.31
55.22169,448.58,500.72
55.24026,451.32,502.67
55.26028,451.35,504.49
55.28147,450.12,505.75
55.30119,452.42,508.18
55.32035,451.62,505.69
55.34064,451.33,509.54
55.36147,454.46,514.95
55.38072,453.09,520.89
55.40139,453.44,528.07
55.42124,455.65,531.26
55.43997,455.39,533.30
55.45990,455.12,538.70
55.48120,460.01,540.78
55.50148,456.99,540.22
55.51980,458.58,543.01
55.54099,456.58,545.10
55.56163,458.28,547.64
55.58129,456.36,558.09
55.60150,453.82,573.95
55.62148,455.90,601.75
55.64006,458.96,631.35
55.66021,458.78,643.83
55.68029,461.67,649.95
55.70185,461.21,643.46
55.72029,459.50,632.76
55.74125,458.76,615.64
55.76090,458.85,598.33
55.78015,457.78,574.58
55.80192,453.89,554.75
