Program Time [s],data 0,data 1
5.07566,791.97,1070.24
5.09469,739.16,1068.89
5.11522,707.85,1059.00
5.13628,669.05,943.92
5.15709,629.65,904.43
5.17542,590.31,902.95
5.19688,573.24,840.32
5.21575,534.79,794.94
5.23689,517.11,760.85
5.25597,491.40,689.92
5.27646,478.15,612.90
5.29673,454.41,598.53
5.31570,441.98,574.98
5.33723,455.57,492.15
5.35636,487.45,472.93
5.37663,511.91,422.13
5.39671,531.80,354.00
5.41680,535.39,312.26
5.43726,547.70,310.33
5.45714,535.31,254.06
5.47748,504.96,273.67
5.49797,485.70,281.30
5.51784,462.75,235.99
5.54013,421.59,209.32
5.56021,422.82,176.81
5.57990,424.10,191.73
5.59883,379.97,210.47
5.62029,339.28,200.35
5.63849,310.87,215.21
5.65857,299.77,264.80
5.67944,279.99,235.82
5.69898,271.84,266.98
5.72048,246.69,248.89
5.73960,224.96,224.37
5.75914,227.01,229.80
5.77832,257.50,231.99
5.79860,258.77,226.80
5.81857,297.73,225.39
5.84036,310.59,197.68
5.85875,334.98,220.63
5.87893,344.78,181.55
5.89837,332.73,153.25
5.91984,322.23,127.31
5.93856,310.84,145.58
5.95843,286.85,160.66
5.97969,281.61,191.10
6.00012,270.49,227.76
6.02013,266.15,259.73
6.03865,260.72,263.61
6.05882,270.24,278.62
6.07964,267.36,283.18
6.09961,286.65,305.11
6.12026,296.01,330.59
6.13954,303.33,380.36
6.15967,315.90,416.01
6.18006,331.19,448.44
6.20029,333.80,464.81
6.21913,333.46,468.56
6.24005,340.50,464.70
6.26016,351.36,456.82
6.27912,362.16,465.03
6.29917,368.26,470.97
6.32009,383.31,488.19
6.33940,401.49,536.14
6.35970,413.52,569.27
6.37987,418.11,613.83
6.40019,427.08,640.91
6.41942,430.59,652.64
6.43903,432.64,644.34
6.45835,431.67,627.82
6.47920,431.54,607.09
6.49926,435.50,587.11
6.51897,439.10,578.94
6.53890,444.72,562.95
6.55925,447.43,552.94
6.57971,452.77,535.39
6.60015,451.41,530.57
6.61892,448.67,530.30
6.63878,445.97,532.52
6.65903,445.34,534.63
6.67932,447.06,535.89
6.70042,445.88,533.27
6.72020,445.28,531.81
6.73850,449.56,529.98
6.75971,453.34,521.73
6.77976,456.72,518.06
6.80037,464.02,519.81
6.82114,465.64,519.60
6.84087,475.74,515.46
6.85986,479.68,516.13
6.87941,481.35,512.89
6.90005,485.96,515.36
6.92021,488.36,516.70
6.93990,490.19,516.04
6.96080,488.61,516.50
6.98095,495.18,518.21
7.00011,493.42,519.79
7.01950,493.77,523.17
7.03985,496.97,526.21
7.05957,495.89,529.50
7.08079,495.16,535.03
7.10221,494.31,541.24
7.12142,496.86,543.12
7.14250,498.64,544.20
7.16209,499.40,542.54
7.18221,501.08,543.84
7.20399,505.56,542.26
7.22274,507.64,543.63
7.24343,511.57,544.72
7.26331,513.71,541.71
7.28258,511.71,544.80
7.30429,510.53,541.83
7.32430,513.58,540.89
7.34375,513.33,537.28
7.36333,516.49,539.77
7.38272,517.23,537.62
7.40305,513.09,538.28
7.42311,515.01,541.24
7.44528,512.81,540.09
7.46378,514.40,542.05
7.48504,510.44,543.69
7.50339,512.60,558.69
7.52396,517.98,587.42
7.54454,516.30,605.58
7.56412,513.96,629.84
7.58527,515.14,649.36
7.60516,520.30,664.71
7.62408,519.10,663.20
7.64412,519.33,661.53
7.66466,519.93,668.15
7.68469,520.39,663.74
7.70524,519.00,655.93
7.72394,519.46,646.54
7.74540,518.25,638.77
7.76490,516.06,627.35
7.78465,514.54,618.11
7.80337,512.75,610.29
7.82398,514.16,605.39
7.84355,517.75,595.10
7.86460,514.99,587.08
7.88369,518.60,587.00
7.90381,517.76,582.88
7.92330,513.88,577.39
7.94499,517.79,577.55
7.96520,515.54,579.47
7.98355,517.51,576.57
8.00497,517.03,574.71
8.02385,513.00,575.87
8.04536,513.41,575.07
8.06504,512.57,574.04
8.08323,516.62,568.42
8.10340,515.30,567.59
8.12394,516.37,564.41
8.14444,514.85,562.78
8.16474,517.34,559.97
8.18481,513.38,562.49
8.20475,514.01,558.51
8.22496,514.78,558.50
8.24474,513.50,560.30
8.26610,511.71,559.20
8.28495,511.24,557.99
8.30621,509.38,561.03
8.32615,509.82,558.29
8.34547,512.11,557.22
8.36448,510.73,562.84
8.38512,512.15,559.03
8.40446,511.68,558.92
8.42535,511.16,559.46
8.44563,515.34,563.15
8.46537,515.52,550.41
8.48639,510.69,518.47
8.50495,510.03,481.95
8.52636,504.62,449.75
8.54590,504.85,425.24
8.56474,506.37,416.67
8.58492,506.63,417.55
8.60555,507.11,420.55
8.62552,509.37,425.80
8.64422,508.55,437.06
8.66508,509.75,443.74
8.68634,511.15,451.67
8.70611,509.19,463.90
8.72614,513.55,471.64
8.74494,510.73,478.11
8.76558,512.10,488.60
8.78590,508.20,497.37
8.80492,511.74,505.44
8.82555,514.40,510.97
8.84610,512.39,520.35
8.86573,513.87,523.05
8.88495,511.94,523.42
8.90513,511.29,526.04
8.92618,512.39,525.68
8.94502,511.68,531.00
8.96454,511.71,531.61
8.98426,510.44,538.23
9.00590,512.12,533.52
9.02497,512.15,535.93
9.04552,510.20,537.40
9.06519,509.12,534.63
9.08529,507.94,535.33
9.10472,506.10,535.35
9.12506,508.35,539.88
9.14515,508.24,538.40
9.16510,510.49,536.43
9.18562,510.62,538.67
9.20551,511.60,541.11
9.22623,512.83,543.17
9.24559,514.68,545.66
9.26462,516.43,548.44
9.28481,524.08,550.04
9.30582,521.64,554.62
9.32527,524.08,558.97
9.34465,523.76,562.45
9.36465,523.30,562.85
9.38559,525.46,560.98
9.40573,520.28,560.17
9.42593,518.64,554.45
9.44788,517.71,554.27
9.46759,513.65,552.28
9.48648,511.00,550.69
9.50780,509.55,551.06
9.52887,505.66,546.33
9.54745,505.78,548.20
9.56735,503.80,549.44
9.58876,504.99,551.93
9.60826,503.73,551.48
9.62782,500.85,552.94
9.64894,503.30,549.80
9.66886,501.89,553.21
9.68755,504.19,556.25
9.70792,503.28,558.14
9.72846,502.03,556.24
9.74987,499.99,560.72
9.77074,497.56,557.71
9.79145,493.25,551.49
9.81201,497.61,554.67
9.83218,493.33,552.65
9.85041,493.74,550.01
9.87043,495.29,545.78
9.89162,493.61,547.70
9.91031,490.51,546.45
9.93212,493.71,545.42
9.95095,494.49,544.61
9.97081,494.99,545.08
9.99162,492.92,541.01
10.01177,490.52,543.56
10.03153,494.55,544.84
10.05116,493.83,544.62
10.07163,495.71,548.00
10.09038,492.57,550.00
10.11049,493.28,549.17
10.13217,493.90,548.26
10.15038,495.43,549.27
10.17091,494.36,547.83
10.19058,492.18,545.99
10.21131,490.98,548.99
10.23077,494.83,552.12
10.25213,494.47,553.66
10.27219,492.29,550.39
10.29201,496.04,550.79
10.31246,493.88,547.90
10.33162,497.80,549.03
10.35291,498.84,546.38
10.37270,498.73,544.28
10.39332,496.84,542.92
10.41312,490.73,543.37
10.43333,493.37,545.99
10.45161,494.51,548.91
10.47321,490.13,547.83
10.49263,493.50,546.31
10.51212,490.15,549.47
10.53270,493.63,550.22
10.55240,493.06,548.94
10.57267,495.47,549.36
10.59273,497.40,549.46
10.61369,498.30,548.42
10.63277,494.24,551.82
10.65384,495.43,552.55
10.67424,492.88,551.77
10.69435,491.67,550.44
10.71343,493.89,552.95
10.73380,492.13,552.85
10.75338,494.87,552.02
10.77410,495.58,553.47
10.79529,493.61,550.95
10.81373,492.67,549.56
10.83385,496.09,549.32
10.85417,497.61,552.67
10.87467,498.30,553.33
10.89524,496.77,549.28
10.91476,495.62,551.17
10.93418,496.00,548.75
10.95487,495.76,550.30
10.97507,493.15,553.52
10.99471,494.05,555.96
11.01396,493.28,557.02
11.03390,491.01,559.84
11.05399,493.64,556.99
11.07451,493.44,557.55
11.09331,493.84,556.98
11.11418,495.03,554.09
11.13402,491.16,553.96
11.15498,493.71,557.67
11.17479,491.70,564.52
11.19396,496.50,579.36
11.21415,492.60,602.89
11.23426,495.21,625.48
11.25395,498.48,641.42
11.27418,498.79,647.38
11.29358,502.03,651.02
11.31505,500.62,653.03
11.33520,502.36,650.45
11.35502,499.08,648.59
11.37447,497.37,652.19
11.39382,495.71,645.94
11.41499,494.27,641.31
11.43481,490.41,628.57
11.45352,491.74,619.82
11.47580,491.44,618.38
11.49605,491.68,612.77
11.51494,492.37,607.53
11.53542,492.53,602.26
11.55518,493.23,600.41
11.57423,497.55,593.91
11.59582,500.18,590.81
11.61443,500.06,586.62
11.67977,500.86,582.27
11.67946,498.96,578.03
11.68106,500.72,578.33
11.69616,498.90,573.75
11.71536,496.44,570.34
11.73563,498.16,563.90
11.75613,499.57,566.47
11.77589,498.22,565.95
11.79606,495.29,566.99
11.81639,495.49,563.04
11.83583,494.97,566.99
11.85542,493.90,568.50
11.87566,497.63,563.66
11.89574,498.46,564.69
11.91675,498.79,569.81
11.93735,500.72,566.98
11.95539,502.48,573.64
11.97644,501.33,573.98
11.99700,503.13,574.81
12.01692,502.54,571.11
12.03601,502.03,570.31
12.05558,502.62,567.80
12.07737,503.52,566.01
12.09567,504.93,566.15
12.11627,504.34,569.26
12.13551,502.53,565.74
12.15573,502.67,565.86
12.17623,500.20,565.69
12.19662,499.01,564.45
12.21694,502.03,565.91
12.23619,502.64,565.17
12.25652,500.37,567.27
12.27670,501.13,564.94
12.29605,501.26,562.80
12.31605,504.89,564.06
12.33738,502.19,560.92
12.35532,505.96,564.26
12.37698,506.74,565.06
12.39666,505.33,561.27
12.41629,504.18,533.35
12.43639,505.61,502.12
12.45686,504.20,474.24
12.47727,501.62,459.27
12.49527,500.90,452.74
12.51785,501.56,450.21
12.53684,500.91,450.49
12.55867,503.12,455.53
12.57722,504.84,462.69
12.59800,504.71,470.94
12.61891,503.89,478.52
12.63864,506.78,488.30
12.65881,504.82,493.42
12.67811,506.92,502.38
12.69887,508.94,510.90
12.71896,508.99,518.05
12.73753,509.38,524.14
12.75737,510.32,530.97
12.77759,512.20,533.93
12.79751,511.02,538.51
12.81824,509.39,542.99
12.83721,513.27,544.59
12.85874,513.97,544.89
12.87783,510.62,545.85
12.89772,510.79,548.81
12.91733,508.34,549.81
12.93731,509.70,551.42
12.95876,511.33,553.86
12.97836,513.06,554.86
12.99826,511.97,560.39
13.01743,512.40,565.77
13.03756,516.48,583.78
13.05894,520.06,618.66
13.07851,525.72,650.30
13.09804,530.43,680.98
13.11840,527.34,682.49
13.13857,524.62,668.24
13.15918,526.80,643.33
13.17806,518.53,619.91
13.19841,515.61,592.39
13.21764,512.76,569.95
13.23732,511.50,555.27
13.25754,510.01,538.92
13.27890,505.86,531.00
13.29742,505.91,525.39
13.31769,504.31,521.39
13.33728,504.59,514.98
13.35826,507.67,515.66
13.37762,503.52,519.97
13.39836,507.70,520.43
13.41731,507.30,521.16
13.43827,508.75,527.05
13.45876,510.34,530.81
13.47852,512.13,535.42
13.49789,512.79,539.13
13.51840,511.33,541.95
13.53896,513.07,545.10
13.55767,512.78,550.59
13.57903,512.83,550.51
13.59875,511.45,552.20
13.61853,514.04,553.07
13.63834,513.77,552.39
13.65794,510.72,556.19
13.67885,512.96,558.10
13.69806,512.02,553.74
13.71917,513.74,556.98
13.73794,511.78,556.12
13.75843,511.62,559.55
13.77755,511.66,562.06
13.79820,515.92,566.76
13.81836,514.52,567.06
13.83854,516.75,567.74
13.85825,513.36,569.63
13.87779,513.51,570.12
13.89839,515.88,573.00
13.91880,515.02,571.92
13.93779,513.22,569.40
13.95851,511.18,569.04
13.97786,513.36,570.80
13.99791,513.49,572.34
14.01815,516.03,573.61
14.03844,513.48,568.66
14.05775,516.75,569.29
14.07766,517.68,567.20
14.09856,515.46,566.50
14.11773,514.37,565.76
14.13762,511.30,565.88
14.15854,512.88,565.61
14.17843,511.67,563.40
14.19914,513.01,567.58
14.21833,513.74,567.21
14.23926,516.07,568.70
14.25756,514.66,568.10
14.27756,514.74,567.71
14.29798,515.20,569.62
14.31762,514.79,565.97
14.33713,516.18,569.26
14.35771,517.73,569.17
14.37817,514.04,566.09
14.39763,513.51,568.27
14.41781,515.25,566.75
14.43870,516.59,565.30
14.45721,518.63,563.93
14.47744,518.02,566.36
14.49784,516.53,567.69
14.51727,515.87,566.89
14.53905,514.84,566.06
14.55825,516.31,563.85
14.57824,516.58,566.66
14.59795,514.52,565.21
14.61745,515.11,567.62
14.63938,515.55,565.91
14.65978,516.26,566.94
14.67823,512.65,564.39
14.70081,511.42,566.64
14.72096,513.05,567.08
14.74041,510.79,569.77
14.76092,511.44,572.22
14.78096,512.12,571.22
14.80081,509.85,576.34
14.82094,512.54,572.88
14.84037,508.29,569.93
14.86097,509.49,569.44
14.88073,510.50,570.19
14.90083,508.09,567.07
14.91965,509.05,568.06
14.94010,508.98,566.56
14.96064,508.80,566.92
14.97969,509.06,569.71
15.00095,507.67,572.12
15.01944,508.65,572.01
15.04000,509.49,568.78
15.06080,510.60,572.80
15.07978,509.45,571.06
15.10066,511.00,573.86
15.11989,512.13,569.52
15.13935,509.89,569.07
15.15982,509.84,570.96
15.18013,508.92,574.07
15.20078,512.39,571.89
15.22040,513.57,574.81
15.23941,512.29,574.66
15.26035,514.25,572.28
15.27977,513.14,573.82
15.30081,509.50,571.33
15.32058,509.94,570.55
15.34040,509.03,566.83
15.35996,511.08,568.01
15.38108,510.74,569.55
15.40091,509.60,580.73
15.42082,511.63,597.35
15.44105,514.00,615.68
15.45971,515.95,631.96
15.47952,516.21,644.08
15.50060,516.28,651.29
15.52042,518.65,654.95
15.54043,515.54,655.69
15.56030,516.94,652.52
15.57995,511.89,646.27
15.60043,513.63,642.17
15.62024,510.78,634.84
15.64095,509.95,624.88
15.66107,511.97,631.69
15.68135,516.21,625.38
15.70147,514.81,628.00
15.72110,512.33,629.85
15.74122,510.20,622.78
15.76234,508.13,621.93
15.78238,507.45,618.75
15.80268,504.07,613.73
15.82194,502.17,612.72
15.84293,505.31,611.65
15.86219,500.85,611.32
15.88364,504.55,606.80
15.90243,504.33,601.38
15.92390,503.80,595.86
15.94390,503.95,594.34
15.96398,505.04,590.73
15.98347,503.37,589.13
16.00366,503.01,580.77
16.02371,501.68,578.06
16.04300,501.78,576.97
16.06414,502.53,576.05
16.08337,501.02,575.09
16.10335,501.54,576.61
16.12331,502.56,570.72
16.14371,499.11,567.47
16.16396,500.21,568.11
16.18383,499.33,567.06
16.20402,496.09,566.31
16.22595,496.93,568.08
16.24619,492.85,567.36
16.26501,496.28,565.44
16.28531,496.60,566.41
16.30481,495.99,562.29
16.32609,494.17,562.14
16.34440,494.47,562.28
16.36549,493.31,563.49
16.38580,494.33,565.52
16.40559,492.49,564.34
16.42441,494.45,567.59
16.44446,492.65,565.98
16.46506,495.01,563.52
16.48610,490.92,563.24
16.50525,494.09,563.32
16.52537,494.32,563.13
16.54470,490.33,565.81
16.56503,491.75,565.01
16.58571,492.63,567.82
16.60463,491.42,566.42
16.62586,492.33,566.29
16.64474,490.93,565.63
16.66447,492.33,568.64
16.68584,491.64,576.55
16.70574,492.10,564.65
16.72504,487.44,536.67
16.74599,488.55,503.09
16.76530,484.03,471.61
16.78568,485.01,453.41
16.80532,483.39,443.99
16.82533,486.58,441.81
16.84492,485.88,445.33
16.86433,486.41,450.51
16.88522,482.31,460.11
16.90511,484.89,471.16
16.92572,487.46,480.50
16.94535,484.20,485.97
16.96563,487.48,497.37
16.98479,490.17,500.54
17.00511,487.91,510.17
17.02459,492.97,513.04
17.04565,492.23,523.16
17.06427,490.05,526.67
17.08470,493.72,531.12
17.10578,491.67,536.49
17.12502,491.36,538.89
17.14582,489.45,540.08
17.16526,488.68,545.24
17.18453,488.76,541.11
17.20580,489.60,544.41
17.22581,488.58,547.52
17.24453,489.05,553.09
17.26581,489.48,555.66
17.28434,491.15,556.62
17.30505,492.76,561.67
17.32423,494.19,563.09
17.34529,493.83,563.37
17.36470,493.79,562.00
17.38478,494.29,561.79
17.40527,492.88,560.87
17.42589,492.86,562.75
17.44491,493.43,559.89
17.46513,490.77,557.61
17.48438,494.46,557.38
17.50548,492.09,559.65
17.52505,493.67,560.00
17.54595,493.87,560.65
17.56631,492.58,563.70
17.58677,494.98,561.77
17.60564,491.25,560.97
17.62669,494.21,560.67
17.64640,493.86,559.99
17.66573,489.93,561.31
17.68636,491.24,562.48
17.70650,494.18,558.82
17.72674,491.82,558.61
17.74659,491.64,558.27
17.76572,495.68,559.24
17.78684,492.62,559.97
17.80570,493.35,559.50
17.82625,494.72,561.10
17.84696,494.28,559.23
17.86693,492.86,559.65
17.88653,489.20,562.13
17.90554,490.39,561.25
17.92706,492.09,562.16
17.94688,493.58,563.65
17.96695,492.34,558.55
17.98639,491.92,559.01
18.00538,492.78,561.87
18.02573,489.91,563.44
18.04673,492.40,565.97
18.06671,492.99,569.36
18.08664,492.46,569.02
18.10619,490.66,570.13
18.12671,490.72,568.90
18.14538,489.60,568.19
18.16523,488.96,568.31
18.18570,489.73,567.94
18.20562,491.22,568.76
18.22653,489.83,567.23
18.24559,491.18,568.06
18.26656,492.06,566.26
18.28541,488.58,563.58
18.30543,489.33,564.88
18.32518,491.33,562.28
18.34502,490.93,563.34
18.36679,489.21,562.20
18.38659,488.33,562.50
18.40689,490.31,560.67
18.42706,491.02,558.77
18.44574,492.24,561.55
18.46529,493.61,557.94
18.48664,494.89,557.91
18.50676,493.53,559.40
18.52652,494.77,557.92
18.54527,494.59,555.86
18.56583,494.59,558.19
18.58518,492.28,557.48
18.60657,494.59,558.07
18.62570,493.50,561.19
18.64630,494.23,560.04
18.66703,491.62,561.17
18.68620,495.53,562.29
18.70698,496.32,561.07
18.72559,494.78,560.53
18.74622,494.21,557.91
18.76585,493.81,560.14
18.78680,494.71,559.85
18.80520,493.66,562.76
18.82643,496.46,560.33
18.84518,495.88,561.24
18.86603,493.06,556.66
18.88574,492.38,555.70
18.90612,495.75,556.97
18.92684,495.56,559.70
18.94555,494.59,556.79
18.96603,492.70,560.75
18.98618,490.78,557.99
19.00629,491.63,555.62
19.02556,491.51,560.79
19.04560,490.89,558.11
19.06593,492.47,560.71
19.08616,493.26,558.53
19.10697,492.24,560.68
19.12610,493.54,563.21
19.14530,491.22,560.57
19.16596,493.74,562.38
19.18583,496.48,561.67
19.20680,495.64,560.31
19.22544,490.16,557.82
19.24549,493.41,560.73
19.26694,492.66,561.07
19.28615,490.00,560.01
19.30629,491.22,561.68
19.32654,494.41,561.22
19.34575,491.67,563.44
19.36540,494.61,562.21
19.38713,492.98,562.84
19.40552,493.58,561.99
19.42623,492.11,560.33
19.44632,491.94,564.22
19.46617,491.82,562.60
19.48546,491.72,562.58
19.50635,491.15,563.65
19.52620,493.42,563.86
19.54680,494.49,563.50
19.56507,493.18,560.67
19.58546,494.81,561.33
19.60618,494.76,562.11
19.62691,489.68,560.55
19.64520,492.77,565.59
19.66699,491.38,564.75
19.68624,488.75,564.37
19.70649,491.99,562.86
19.72664,490.91,565.90
19.74691,491.98,564.42
19.76709,492.36,563.32
19.78641,493.05,565.74
19.80580,491.44,565.93
19.82565,493.28,562.64
19.84511,492.48,563.24
19.86575,490.99,564.61
19.88614,490.86,565.70
19.90703,489.45,567.16
19.92687,490.93,568.09
19.94683,490.49,567.10
19.96607,493.71,563.35
19.98572,493.91,566.66
20.00606,493.07,564.93
20.02512,494.01,563.18
20.04679,492.73,563.64
20.06682,493.12,568.59
20.08676,492.27,582.96
20.10688,490.40,610.72
20.12649,491.88,644.82
20.14578,494.80,669.08
20.16677,498.47,683.97
20.18584,499.69,690.65
20.20559,501.66,687.89
20.22592,500.35,682.36
20.24652,498.51,676.74
20.26566,498.90,669.15
20.28546,498.40,654.08
20.30600,500.24,646.19
20.32692,498.81,636.90
20.34671,498.06,627.49
20.36697,499.14,623.02
20.38602,499.87,614.82
20.40612,497.03,607.95
20.42562,497.29,600.41
20.44519,498.99,597.05
20.46552,495.64,593.43
20.48631,495.82,588.61
20.50719,495.88,583.81
20.52694,494.58,578.77
20.54542,494.62,577.17
20.56604,497.59,576.62
20.58639,494.00,577.15
20.60499,492.88,576.18
20.62757,497.53,575.95
20.64623,497.39,574.22
20.66625,496.03,572.60
20.68603,499.08,575.01
20.70782,497.40,574.55
20.72817,498.31,573.34
20.74897,500.47,570.42
20.76870,498.72,570.01
20.78836,503.23,570.05
20.80712,502.62,569.08
20.82732,504.20,570.38
20.84840,501.01,567.22
20.86889,503.47,566.61
20.88770,501.38,567.54
20.90893,503.09,565.43
20.92830,501.54,562.21
20.94885,499.99,564.68
20.96712,502.16,564.76
20.98710,503.90,566.40
21.00775,502.60,567.23
21.02849,503.98,565.40
21.04763,505.06,566.14
21.06850,503.71,566.75
21.08760,505.72,569.67
21.10813,503.35,573.99
21.12855,503.69,571.70
21.14824,502.58,553.47
21.16716,498.47,516.25
21.18831,494.08,487.69
21.20820,492.24,464.94
21.22713,495.65,454.97
21.24804,493.99,454.03
21.26884,492.94,453.46
21.28842,493.47,457.32
21.30703,496.75,464.61
21.32816,499.07,471.89
21.34817,497.70,477.24
21.36792,501.57,488.60
21.38770,498.49,493.95
21.40718,499.29,503.21
21.42728,501.20,508.37
21.44853,504.01,515.08
21.46881,503.86,520.45
21.48755,503.59,523.62
21.50774,502.47,527.78
21.52749,501.66,535.39
21.54713,499.59,539.26
21.56864,500.12,541.35
21.58789,500.31,546.66
21.60762,501.52,548.01
21.62886,504.29,551.89
21.64795,505.21,551.90
21.66877,506.98,557.59
21.68720,505.41,557.99
21.70861,506.59,558.87
21.72891,507.73,563.39
21.74809,504.54,562.89
21.76795,503.70,561.25
21.78797,501.64,561.09
21.80819,503.70,561.49
21.82892,503.69,561.54
21.84769,504.30,559.61
21.86804,504.72,563.72
21.88793,505.75,562.06
21.90865,506.39,566.13
21.92766,507.71,565.66
21.94818,505.22,563.16
21.96721,508.80,564.50
21.98797,505.42,564.97
22.00842,505.93,565.29
22.02807,502.93,565.39
22.04738,503.36,563.64
22.06786,505.02,563.99
22.08899,503.47,564.39
22.10855,504.08,566.74
22.12860,507.47,565.90
22.14802,505.11,569.14
22.16821,505.20,568.10
22.18733,507.17,567.69
22.20803,502.30,569.54
22.22889,503.23,568.36
22.24833,506.18,566.09
22.26806,504.85,567.50
22.28741,504.35,566.14
22.30849,507.10,565.88
22.32848,503.83,565.77
22.34900,508.23,564.41
22.36780,507.07,564.74
22.38740,505.97,565.64
22.40805,508.66,566.73
22.42701,509.28,565.07
22.44761,505.17,568.55
22.46754,506.56,569.27
22.48779,505.65,570.05
22.50738,506.40,565.71
22.52782,504.28,566.83
22.54779,506.80,565.58
22.56877,508.46,569.17
22.58800,506.74,565.92
22.60839,507.37,565.71
22.62792,506.44,564.66
22.64852,508.02,566.07
22.66784,506.97,565.55
22.68791,504.74,566.55
22.70704,505.41,567.87
22.72806,504.70,567.19
22.74818,506.64,568.92
22.76861,504.58,564.34
22.78723,504.73,564.20
22.80702,504.52,566.40
22.82833,501.77,568.56
22.84767,503.24,565.55
22.86849,503.81,567.10
22.88819,506.43,563.63
22.90772,505.58,565.63
22.92777,505.64,564.34
22.94861,506.63,566.45
22.96814,504.08,569.49
22.98796,505.03,566.40
23.00775,506.45,565.07
23.02823,504.23,566.05
23.04745,502.72,564.58
23.06837,501.60,565.45
23.08868,500.88,564.99
23.10820,504.87,568.12
23.12789,506.33,566.07
23.14729,505.65,567.14
23.16800,506.66,567.10
23.18838,507.28,565.73
23.20892,507.69,567.76
23.22881,510.30,567.14
23.24879,511.79,566.61
23.26762,511.47,565.45
23.28817,510.69,567.00
23.30769,511.17,565.65
23.32733,509.63,563.05
23.34786,509.24,567.47
23.36771,509.47,566.68
23.38702,509.99,565.88
23.40753,508.09,566.29
23.42823,507.42,567.97
23.44892,507.91,567.13
23.46892,508.92,565.35
23.48899,509.25,567.09
23.50732,508.08,563.03
23.52879,508.17,564.81
23.54728,512.45,566.31
23.56771,510.26,566.40
23.58769,510.95,564.31
23.60895,509.52,567.39
23.62851,506.37,568.94
23.64713,510.02,570.00
23.66833,508.18,568.46
23.68875,506.88,567.07
23.70818,507.97,568.01
23.72799,506.48,568.54
23.74750,505.65,570.72
23.76839,506.75,567.54
23.78899,506.62,568.59
23.80869,509.25,569.30
23.82761,506.69,571.70
23.84936,511.35,569.36
23.86978,511.87,571.44
23.88982,511.04,571.31
23.90933,510.59,572.75
23.92997,510.84,568.87
23.94826,512.23,572.23
23.96861,507.94,569.29
23.98853,509.23,567.16
24.00851,511.00,567.22
24.02982,512.18,566.64
24.04811,509.26,569.07
24.06909,509.37,567.52
24.08803,511.51,569.76
24.10896,513.19,569.77
24.12826,512.51,568.04
24.14878,511.27,569.51
24.16935,510.47,569.11
24.18993,514.90,570.50
24.20950,514.53,569.98
24.22885,510.76,571.93
24.24853,509.01,571.19
24.26894,508.25,571.97
24.28937,507.61,569.93
24.30943,512.52,577.03
24.32943,510.51,585.37
24.34862,516.35,601.50
24.36842,515.40,622.79
24.38973,519.03,640.33
24.40807,517.77,653.58
24.42819,518.35,661.95
24.44887,518.03,665.97
24.46906,516.96,674.40
24.48862,519.00,671.98
24.50877,520.35,673.38
24.52990,518.90,668.31
24.54880,518.45,661.50
24.56994,516.56,657.28
24.58919,517.54,657.30
24.60843,517.47,647.83
24.62942,518.87,639.40
24.64966,516.06,632.03
24.66853,515.39,628.36
24.68847,512.63,624.99
24.70884,514.89,623.52
24.72897,513.70,616.20
24.74863,512.70,610.92
24.76987,511.79,607.52
24.78953,512.66,605.55
24.80843,514.10,599.48
24.82914,514.29,591.41
24.84881,513.87,590.12
24.86928,514.28,589.89
24.88953,512.20,583.25
24.90864,514.02,582.10
24.92961,515.27,584.43
24.94955,514.19,581.14
24.96876,516.68,580.08
24.98911,512.75,580.54
25.00877,515.62,574.50
25.02959,514.11,576.07
25.04931,515.04,575.54
25.06993,513.97,579.93
25.08965,514.68,577.32
25.10819,513.21,576.21
25.12833,514.36,575.97
25.14846,514.18,576.66
25.17007,517.55,589.78
25.19023,520.31,614.23
25.20962,524.29,640.00
25.23009,527.25,654.93
25.24993,526.99,644.81
25.27026,525.96,610.03
25.29067,519.83,557.73
25.30915,516.55,506.76
25.32904,509.24,470.16
25.35010,508.16,443.09
25.37016,502.42,430.46
25.39005,498.12,426.93
25.41055,500.61,426.48
25.43016,498.30,427.11
25.45032,496.00,433.89
25.47050,499.05,441.22
25.49089,497.65,454.08
25.51001,499.62,463.56
25.52962,501.25,476.70
25.55088,502.20,487.56
25.56974,503.07,494.91
25.58944,502.71,501.45
25.61024,503.65,509.46
25.62922,508.20,519.62
25.64973,507.26,525.33
25.66985,512.66,533.35
25.69096,513.47,538.41
25.71086,511.46,544.52
25.73075,510.47,547.44
25.75188,511.84,549.08
25.77171,512.78,551.37
25.79106,512.67,555.20
25.81152,512.81,557.98
25.82983,508.47,561.41
25.85049,508.16,560.37
25.87095,509.74,565.12
25.89144,507.92,565.22
25.91255,506.51,568.11
25.93184,506.66,568.55
25.95308,508.99,571.01
25.97236,509.02,569.25
25.99133,514.31,571.22
26.01178,513.15,569.46
26.03152,511.12,568.06
26.05256,511.48,567.77
26.07156,512.55,568.18
26.09269,509.86,570.96
26.11212,509.16,573.54
26.13167,510.79,570.39
26.15137,510.95,572.97
26.17246,512.05,571.30
26.19179,510.94,571.55
26.21204,510.39,570.57
26.23197,514.22,571.23
26.25261,513.45,568.66
26.27134,510.13,567.95
26.29125,508.45,565.12
26.31179,508.52,569.38
26.33265,511.85,570.56
26.35233,510.85,569.85
26.37120,508.16,571.09
26.39287,509.33,572.64
26.41140,509.59,567.99
26.43286,504.83,572.20
26.45273,508.09,571.26
26.47260,508.74,569.30
26.49172,507.08,570.47
26.51120,506.08,572.37
26.53154,507.89,568.00
26.55212,510.10,570.10
26.57190,510.50,570.16
26.59272,506.22,567.38
26.61120,509.40,568.14
26.63250,509.97,568.74
26.65116,510.56,566.14
26.67136,511.13,570.21
26.69264,511.61,570.10
26.71293,509.20,567.73
26.73131,511.11,572.43
26.75175,510.01,572.89
26.77125,507.92,571.14
26.79208,506.42,569.43
26.81297,506.50,569.38
26.83168,507.47,567.94
26.85273,508.37,568.19
26.87250,506.39,569.79
26.89222,511.19,567.69
26.91279,511.07,569.08
26.93175,510.28,569.04
26.95296,506.84,571.96
26.97073,508.44,570.88
26.99180,505.91,573.82
27.01186,507.28,574.85
27.03233,505.73,573.66
27.05103,506.31,570.60
27.07205,506.26,571.98
27.09151,509.51,573.24
27.11153,506.71,576.35
27.13150,506.63,575.88
27.15172,508.73,572.81
27.17246,510.59,571.67
27.19106,509.79,570.14
27.21242,508.85,572.42
27.23242,509.26,571.22
27.25157,506.73,572.24
27.27150,507.83,570.31
27.29254,504.61,569.85
27.31288,505.54,571.49
27.33111,505.51,572.29
27.35155,506.28,572.71
27.37181,508.30,572.64
27.39128,509.70,572.12
27.41295,509.96,571.77
27.43350,511.23,573.20
27.45299,509.28,573.77
27.47266,511.29,570.94
27.49352,507.89,570.16
27.51340,506.79,567.61
27.53222,505.47,566.58
27.55371,505.48,566.30
27.57254,503.11,569.09
27.59315,505.93,568.02
27.61247,505.48,566.33
27.63332,505.15,568.19
27.65268,506.56,566.87
27.67208,504.48,569.41
27.69386,507.66,568.49
27.71283,507.78,568.80
27.73237,506.75,568.56
27.75376,507.21,568.49
27.77230,510.30,568.76
27.79350,506.81,570.16
27.81208,504.95,571.57
27.83345,506.56,570.42
27.85184,506.49,570.54
27.87361,505.47,569.92
27.89203,506.67,568.61
27.91231,508.31,567.59
27.93204,506.82,568.09
27.95337,507.37,569.10
27.97398,504.19,571.00
27.99439,503.79,574.57
28.01421,503.59,572.60
28.03393,502.38,573.60
28.05479,501.83,571.46
28.07333,505.75,572.22
28.09334,503.87,571.23
28.11387,502.29,572.76
28.13441,500.25,568.50
28.15367,499.44,572.11
28.17327,497.27,569.82
28.19369,495.60,570.61
28.21357,498.25,570.90
28.23391,500.15,572.80
28.25416,498.64,572.12
28.27423,500.72,572.11
28.29305,501.03,571.47
28.31544,498.13,567.60
28.33422,496.20,568.01
28.35538,495.45,568.84
28.37439,495.05,568.63
28.39454,494.18,569.68
28.41417,492.76,569.04
28.43590,495.35,566.55
28.45567,495.50,566.50
28.47459,494.93,565.52
28.49392,493.15,568.39
28.51496,493.96,578.15
28.53469,495.15,596.22
28.55495,498.67,618.39
28.57393,501.54,642.22
28.59462,501.77,660.01
28.61540,502.03,677.25
28.63557,502.92,689.29
28.65444,503.45,689.83
28.67577,504.31,689.40
28.69608,501.79,682.20
28.71481,499.33,672.78
28.73475,499.87,660.88
28.75490,498.35,652.63
28.77530,500.59,647.16
28.79542,498.66,641.25
28.81503,498.99,634.76
28.83589,498.46,628.79
28.85377,501.19,620.05
28.87393,500.74,610.78
28.89444,502.01,606.80
28.91538,499.41,599.84
28.93477,499.37,595.80
28.95473,497.85,594.59
28.97519,495.02,594.91
28.99400,497.13,590.72
29.01451,492.98,592.55
29.03555,493.61,588.85
29.05500,493.64,589.31
29.07584,492.77,585.09
29.09561,492.91,589.02
29.11635,490.94,582.25
29.13643,490.30,579.30
29.15576,490.24,579.22
29.17677,491.45,579.67
29.19686,490.88,576.60
29.21494,489.96,573.55
29.23653,490.96,573.72
29.25593,493.09,573.21
29.27653,492.17,574.95
29.29644,492.92,573.96
29.31620,494.05,576.59
29.33547,493.28,571.99
29.35557,491.74,570.63
29.37605,493.55,568.52
29.39535,490.57,571.56
29.41670,494.31,574.61
29.43653,493.49,575.12
29.45669,491.79,556.66
29.47540,492.66,525.30
29.49649,490.04,494.19
29.51562,488.96,470.89
29.53688,485.05,458.41
29.55496,484.56,454.77
29.57601,485.25,454.34
29.59669,485.92,459.26
29.61663,486.95,463.60
29.63528,488.40,475.00
29.65658,485.98,483.65
29.67539,487.31,490.00
29.69629,489.48,499.16
29.71656,491.09,505.11
29.73525,488.67,513.92
29.75660,489.09,519.42
29.77556,488.58,521.14
29.79589,489.48,523.96
29.81682,492.45,526.38
29.83511,488.85,528.43
29.85567,487.90,532.47
29.87510,490.05,535.21
29.89651,488.96,539.95
29.91680,487.90,543.58
29.93690,489.66,546.12
29.95654,490.23,548.68
29.97683,491.51,547.67
29.99611,487.58,551.55
30.01588,490.14,554.54
30.03669,488.59,553.72
30.05578,487.65,557.50
30.07559,491.76,559.63
30.09533,490.76,563.22
30.11507,488.87,559.32
30.13522,490.56,562.20
30.15628,489.22,562.55
30.17546,491.43,563.32
30.19668,490.76,563.12
30.21623,489.17,562.56
30.23770,491.64,562.07
30.25710,490.17,563.68
30.27786,490.07,563.52
30.29636,492.56,565.38
30.31580,491.60,566.90
30.33777,492.09,562.09
30.35787,493.84,563.53
30.37781,495.64,561.74
30.39700,492.65,563.37
30.41835,493.87,565.64
30.43836,492.39,566.74
30.45768,494.31,564.93
30.47782,494.18,562.89
30.49734,493.02,565.43
30.51713,491.86,564.07
30.53689,493.43,566.25
30.55700,492.90,566.30
30.57731,490.30,563.58
30.59784,494.77,565.15
30.61918,495.72,565.40
30.63808,495.49,564.87
30.65900,494.87,564.12
30.67986,494.89,563.77
30.69799,491.91,566.66
30.71969,491.78,564.48
30.73966,494.33,565.52
30.75917,491.66,564.44
30.77981,494.71,563.29
30.79901,493.29,562.18
30.81816,492.64,564.71
30.83902,492.41,564.19
30.85894,491.23,564.56
30.87846,489.77,563.06
30.89816,490.57,562.64
30.91819,488.59,565.46
30.93958,492.05,561.54
30.95965,492.38,561.23
30.97908,493.29,562.64
30.99973,497.28,564.12
31.01950,497.06,563.37
31.03943,495.00,563.86
31.05925,497.40,565.17
31.08083,498.58,564.80
31.10082,499.39,563.69
31.12020,495.90,563.86
31.14061,497.69,563.71
31.15943,500.23,567.09
31.18049,498.35,565.03
31.19922,501.57,564.12
31.21993,498.85,565.48
31.24012,501.81,563.07
31.26030,499.46,562.94
31.28013,500.07,565.56
31.29958,500.56,564.41
31.31876,499.90,567.71
31.33880,497.72,567.11
31.35881,496.33,566.93
31.37979,494.78,563.29
31.39949,493.67,564.57
31.41970,495.13,568.42
31.44094,494.04,565.41
31.46021,496.54,566.96
31.48011,494.03,566.66
31.49943,497.78,568.03
31.51920,496.78,566.07
31.53927,495.14,566.22
31.56006,496.34,564.85
31.58074,494.91,568.18
31.59963,496.19,565.80
31.61892,498.12,565.58
31.63893,498.78,567.99
31.66010,494.48,565.95
31.68027,496.71,564.06
31.69961,497.34,569.16
31.71950,494.07,568.56
31.73896,496.92,566.93
31.75999,498.93,566.58
31.78050,499.04,565.35
31.80061,496.69,565.85
31.82053,495.34,565.92
31.84056,495.70,564.78
31.86009,497.80,568.64
31.87979,499.39,567.89
31.89887,500.07,569.02
31.92038,502.47,567.24
31.94062,499.66,565.82
31.96060,501.34,567.39
31.98060,500.43,567.58
31.99901,502.39,568.71
32.01964,501.04,567.20
32.04130,500.91,567.78
32.06064,499.08,565.31
32.08031,499.60,567.95
32.10050,499.94,566.86
32.12120,501.71,568.21
32.14165,501.59,569.33
32.16168,501.55,570.11
32.18027,500.41,567.15
32.20176,503.51,569.85
32.22033,504.76,568.28
32.24090,506.89,570.18
32.26094,505.70,567.12
32.28146,506.75,566.79
32.30286,508.46,567.15
32.32165,507.22,567.51
32.34164,508.12,566.96
32.36093,507.39,563.89
32.38227,507.45,565.22
32.40326,506.68,569.15
32.42198,509.18,568.68
32.44161,507.80,570.58
32.46295,506.92,569.64
32.48287,509.76,570.29
32.50416,511.13,566.53
32.52428,507.83,568.57
32.54327,509.49,570.11
32.56428,511.48,568.01
32.58471,512.72,570.89
32.60515,512.73,567.48
32.62473,509.63,569.77
32.64412,512.46,573.22
32.66526,509.17,571.27
32.68398,511.47,571.08
32.70555,511.14,571.04
32.72502,510.40,569.01
32.74438,512.57,573.13
32.76391,510.66,570.32
32.78570,513.16,571.85
32.80468,515.92,568.82
32.82530,516.48,571.21
32.84690,517.54,584.13
32.86564,516.62,605.31
32.88621,519.55,638.69
32.90577,520.60,658.58
32.92641,520.41,680.44
32.94575,522.79,692.75
32.96772,527.31,700.58
32.98635,524.23,697.83
33.00726,521.25,689.72
33.02736,519.33,680.46
33.04756,515.12,668.74
33.06610,513.55,654.76
33.08641,515.48,639.73
33.10782,513.77,634.20
33.12741,514.85,623.66
33.14767,515.41,615.76
33.16669,513.66,613.00
33.18596,514.74,609.01
33.20806,512.96,604.88
33.22872,509.04,598.51
33.24866,510.54,595.92
33.26811,507.43,594.60
33.28697,507.70,592.46
33.30802,507.18,586.51
33.32754,508.67,585.59
33.34717,508.81,585.60
33.36776,508.34,587.42
33.38702,509.88,584.33
33.40774,508.98,583.08
33.42845,510.94,582.35
33.44790,507.88,582.22
33.46880,509.84,583.92
33.48716,508.76,581.12
33.50876,507.50,583.49
33.52695,507.40,580.84
33.54677,507.75,574.49
33.56779,507.50,576.95
33.58762,510.54,577.25
33.60704,513.81,576.91
33.62872,513.26,575.18
33.64853,513.79,575.49
33.66727,512.62,572.44
33.68732,510.49,572.91
33.70861,510.65,577.56
33.72772,507.42,574.72
33.74792,510.30,573.20
33.76803,504.86,571.56
33.78788,507.32,575.02
33.80833,507.25,575.78
33.82666,506.84,577.53
33.84740,510.26,574.32
33.86792,510.97,553.02
33.88834,509.85,523.61
33.90702,506.18,493.88
33.92778,504.24,474.87
33.94768,501.70,468.71
33.96895,501.06,463.08
33.98886,498.47,467.15
34.00891,499.11,468.12
34.02863,497.11,475.26
34.04895,498.82,478.52
34.06810,499.65,484.17
34.08810,496.26,493.69
34.10968,499.66,501.64
34.12846,498.54,510.54
34.14949,499.81,516.34
34.16944,501.74,524.93
34.18922,499.81,528.47
34.20829,501.93,538.21
34.22917,500.44,538.85
34.24801,500.19,545.67
34.27066,499.22,548.12
34.29010,497.26,551.23
34.31009,498.67,552.79
34.33001,498.59,556.19
34.35030,500.13,555.20
34.37086,500.93,559.98
34.39069,498.94,561.69
34.41033,499.46,560.02
34.43095,499.97,563.48
34.45159,499.09,560.89
34.47158,497.32,562.90
34.49042,500.29,564.72
34.51086,500.13,564.03
34.53165,498.76,565.33
34.55031,499.00,565.40
34.57076,498.41,568.97
34.59168,499.16,568.92
34.61153,496.57,567.48
34.63028,498.48,564.86
34.65055,497.06,568.44
34.67080,493.35,565.96
34.69093,493.72,566.83
34.71062,494.38,568.07
34.73178,494.95,569.26
34.75070,495.04,570.56
34.76997,496.04,568.49
34.79143,493.62,565.91
34.81043,495.41,568.82
34.83024,497.75,567.84
34.84970,495.42,567.81
34.87083,496.19,567.06
34.89070,495.25,568.24
34.91112,496.57,567.16
34.93003,499.10,566.44
34.95108,497.83,568.57
34.97100,494.93,567.84
34.99081,498.08,567.46
35.01010,494.77,568.63
35.03010,494.48,567.36
35.05075,495.16,569.18
35.06957,494.78,567.87
35.09037,495.97,564.78
35.11017,498.59,568.36
35.13038,499.98,565.74
35.15162,498.35,568.24
35.17024,498.64,567.04
35.18983,498.08,569.04
35.21093,499.24,566.53
35.23154,501.86,567.16
35.25036,502.49,568.43
35.27070,500.33,567.01
35.29188,497.76,567.61
35.31090,498.22,569.19
35.33058,497.66,568.83
35.35143,498.49,566.51
35.37136,497.39,568.68
35.39126,495.39,568.27
35.41092,494.29,566.43
35.43079,498.07,568.07
35.45019,497.50,569.41
35.47046,496.31,569.69
35.49109,496.73,567.92
35.51069,496.74,571.05
35.53155,497.70,570.59
35.55141,495.23,568.60
35.57053,500.45,568.30
35.59144,501.53,570.03
35.60975,499.99,567.52
35.63078,497.68,568.95
35.65001,497.08,566.30
35.67063,495.41,571.23
35.69042,495.96,570.06
35.71063,494.28,569.61
35.73177,497.59,567.54
35.75043,496.06,567.50
35.77085,493.63,570.19
35.79189,493.27,569.54
35.81001,492.39,567.94
35.83106,494.51,566.96
35.84992,493.57,572.14
35.87001,494.89,567.45
35.89148,493.01,568.14
35.91005,491.89,571.01
35.93055,493.07,570.80
35.94994,492.89,570.58
35.97075,494.52,573.09
35.98987,497.06,570.86
36.01106,495.99,571.58
36.03002,496.43,568.95
36.05011,497.42,569.15
36.07127,499.24,570.38
36.09133,495.72,573.47
36.11141,500.62,571.36
36.12993,497.44,569.52
36.14977,499.89,570.83
36.16966,498.14,569.71
36.19006,499.26,571.93
36.20967,498.34,570.86
36.23002,497.09,570.84
36.25016,497.85,569.79
36.26960,494.66,569.13
36.29054,494.34,568.13
36.30987,495.56,569.23
36.33046,494.53,566.53
36.35095,495.08,569.05
36.37124,495.29,566.37
36.39131,494.23,566.06
36.41182,491.47,561.63
36.43205,491.81,563.65
36.45202,488.54,565.23
36.47263,491.52,561.91
36.49221,488.83,563.77
36.51233,487.24,560.45
36.53226,489.04,557.92
36.55238,491.13,556.83
36.57187,491.35,559.98
36.59213,489.79,558.54
36.61330,488.19,558.04
36.63209,490.11,558.79
36.65259,490.80,560.50
36.67271,489.47,559.90
36.69313,491.48,560.65
36.71288,488.67,561.15
36.73311,489.93,562.68
36.75306,490.54,565.75
36.77264,487.78,566.83
36.79225,487.46,565.01
36.81208,489.30,567.51
36.83227,491.40,566.56
36.85335,493.57,567.36
36.87327,494.17,567.69
36.89185,493.44,566.65
36.91353,494.69,567.69
36.93287,488.96,568.89
36.95280,490.47,567.22
36.97351,491.14,564.88
36.99242,491.38,565.51
37.01222,489.40,563.79
37.03201,491.91,564.95
37.05176,491.50,563.30
37.07211,490.15,565.23
37.09280,490.57,562.37
37.11273,492.73,561.13
37.13279,491.09,561.14
37.15302,490.40,563.00
37.17354,493.56,574.45
37.19448,495.69,593.69
37.21382,496.92,618.52
37.23349,495.11,651.21
37.25283,496.26,672.46
37.27315,497.49,681.46
37.29407,496.81,680.83
37.31446,495.46,679.98
37.33531,498.44,674.37
37.35506,495.10,664.29
37.37477,495.09,655.42
37.39439,497.35,642.02
37.41411,497.24,634.15
37.43481,494.42,626.92
37.45418,499.56,619.93
37.47455,497.13,611.79
37.49455,497.86,602.14
37.51446,497.52,597.96
37.53519,498.04,591.38
37.55567,495.90,588.10
37.57413,497.19,585.12
37.59497,496.99,580.65
37.61597,496.31,582.38
37.63469,496.12,580.11
37.65661,499.50,578.28
37.67691,496.12,574.15
37.69762,498.75,573.77
37.71747,500.09,572.67
37.73576,497.30,573.67
37.75709,500.84,573.55
37.77588,498.88,570.55
37.79574,499.19,570.82
37.81647,498.48,573.55
37.83775,500.33,571.35
37.85858,503.06,568.56
37.87695,503.02,567.85
37.89758,504.02,565.01
37.91929,502.62,567.93
37.93921,504.57,569.28
37.95806,502.22,567.34
37.97930,505.97,568.28
37.99906,502.27,571.64
38.01902,503.73,571.57
38.03808,506.46,570.97
38.05842,509.58,570.00
38.07967,508.84,570.15
38.09951,507.09,567.71
38.11811,506.29,570.08
38.13816,506.56,568.71
38.15893,508.89,560.95
38.17959,512.62,544.59
38.19781,512.14,520.12
38.21854,506.22,495.98
38.23834,506.00,474.45
38.25784,501.58,457.30
38.27836,499.80,452.59
38.29885,500.18,449.10
38.31804,500.72,453.03
38.33903,498.58,458.14
38.35881,498.54,464.24
38.37930,500.67,474.24
38.39865,499.76,482.26
38.41933,501.08,489.68
38.43854,502.18,498.43
38.45968,502.33,506.83
38.47972,506.07,513.69
38.49784,506.31,518.21
38.51903,505.66,528.73
38.54035,506.03,534.57
38.56027,508.62,541.60
38.58024,508.18,544.87
38.60025,508.06,551.15
38.61982,506.67,551.71
38.63936,509.54,558.11
38.65891,508.28,559.42
38.67907,510.32,559.96
38.70003,512.92,561.45
38.72007,513.60,568.07
38.74140,513.17,566.21
38.76097,513.84,566.90
38.77988,512.29,567.59
38.80101,512.03,568.94
38.82118,512.46,571.46
38.84042,511.17,570.45
38.86133,516.22,568.87
38.87980,514.19,571.25
38.90040,513.06,571.92
38.92041,512.72,572.14
38.94067,511.01,573.38
38.96122,510.27,572.68
38.98157,510.97,571.27
39.00059,509.62,572.42
39.02000,510.93,570.52
39.04126,513.00,572.83
39.06108,514.21,575.70
39.08147,513.02,572.85
39.10168,513.38,575.18
39.12031,516.34,573.61
39.14004,515.30,571.43
39.15966,512.29,572.86
39.18015,511.11,572.55
39.20097,513.02,573.14
39.22089,511.09,574.34
39.24094,513.04,573.48
39.26088,515.73,571.14
39.28099,512.74,570.47
39.30044,510.95,572.26
39.32071,510.47,569.98
39.34104,511.12,571.21
39.36135,510.41,567.67
39.38116,510.21,569.64
39.40017,512.42,571.25
39.42202,512.27,572.65
39.44158,513.79,574.80
39.46242,512.66,572.57
39.48166,511.70,571.41
39.50155,512.28,575.01
39.52096,510.09,573.45
39.54164,510.13,570.12
39.56082,509.39,573.63
39.58181,509.93,572.44
39.60148,508.26,571.57
39.62203,509.57,571.79
39.64250,510.26,572.30
39.66238,510.68,573.00
39.68096,511.40,573.29
39.70103,510.89,571.60
39.72220,512.66,572.41
39.74051,510.73,572.17
39.76231,507.90,573.31
39.78095,511.64,572.52
39.80184,512.87,575.21
39.82122,512.41,572.60
39.84125,515.60,572.12
39.86163,513.72,574.98
39.88254,511.05,572.03
39.90107,511.08,574.68
39.92075,510.24,571.49
39.94238,512.11,574.67
39.96140,512.63,572.74
39.98071,512.35,575.85
40.00124,513.70,574.06
40.02210,518.59,573.62
40.04168,516.96,574.87
40.06120,517.65,573.37
40.08074,517.66,572.88
40.10148,514.36,573.10
40.12205,515.64,574.47
40.14084,515.34,572.66
40.16125,515.37,574.13
40.18060,515.23,576.00
40.20068,514.42,573.65
40.22082,514.09,573.14
40.24085,511.25,575.78
40.26063,510.88,577.89
40.28087,510.69,574.91
40.30085,508.35,573.57
40.32094,507.55,572.61
40.34099,508.00,573.13
40.36176,508.32,572.64
40.38236,508.34,573.78
40.40223,510.44,571.42
40.42203,509.49,573.67
40.44200,512.06,570.46
40.46237,512.61,572.50
40.48164,511.49,571.81
40.50183,511.06,571.78
40.52207,510.99,574.16
40.54062,511.67,571.56
40.56141,510.34,572.05
40.58255,510.29,573.93
40.60250,509.34,570.90
40.62173,510.11,573.07
40.64089,507.82,571.28
40.66179,508.76,570.88
40.68199,509.10,568.98
40.70138,508.98,574.37
40.72211,512.51,576.31
40.74123,514.21,578.06
40.76209,512.48,574.92
40.78212,514.19,576.77
40.80121,514.68,575.81
40.82052,517.20,574.01
40.84077,513.62,578.79
40.86176,513.97,578.06
40.88168,512.36,579.31
40.90241,515.40,577.39
40.92176,511.25,577.30
40.94095,510.02,578.22
40.96248,513.34,575.14
40.98069,512.95,573.73
41.00105,513.42,575.02
41.02264,513.03,574.09
41.04218,510.22,572.24
41.06198,514.66,574.91
41.08184,514.21,575.34
41.10248,513.68,575.34
41.12168,510.97,573.16
41.14073,511.59,574.20
41.16074,514.58,571.41
41.18183,513.59,573.86
41.20184,515.23,573.94
41.22099,513.43,571.61
41.24227,512.21,570.88
41.26150,512.00,572.65
41.28124,513.67,572.20
41.30184,512.08,572.91
41.32194,514.03,581.74
41.34245,515.14,605.29
41.36204,517.81,636.60
41.38160,520.15,667.07
41.40097,520.92,685.16
41.42220,523.68,691.31
41.44122,521.57,699.92
41.46202,524.14,698.87
41.48154,521.11,691.74
41.50129,518.54,683.89
41.52243,515.55,669.87
41.54248,515.96,661.68
41.56225,514.09,654.56
41.58222,514.04,641.86
41.60081,511.18,637.00
41.62107,510.29,625.56
41.64145,513.43,619.13
41.66097,512.39,615.49
41.68203,512.55,609.74
41.70178,511.88,605.44
41.72189,512.63,605.61
41.74121,514.95,601.29
41.76043,510.29,596.01
41.78127,512.85,595.45
41.80230,509.53,588.31
41.82091,509.96,586.97
41.84155,511.73,585.26
41.86082,510.89,583.59
41.88131,509.07,584.93
41.90197,511.26,581.08
41.92391,510.21,581.61
41.94297,510.75,579.35
41.96302,508.36,575.60
41.98289,512.43,577.49
42.00417,510.51,574.49
42.02379,509.95,577.62
42.04459,510.00,578.39
42.06533,508.65,574.29
42.08516,509.87,577.70
42.10468,505.89,573.91
42.12369,507.66,570.37
42.14364,505.35,572.07
42.16422,505.82,573.11
42.18494,503.90,570.54
42.20360,503.38,577.18
42.22516,503.84,580.42
42.24505,505.30,579.21
42.26535,501.86,561.55
42.28467,500.56,536.24
42.30437,502.22,502.75
42.32386,499.54,481.04
42.34494,499.05,464.86
42.36456,495.53,458.96
42.38622,500.38,459.99
42.40613,497.13,460.16
42.42480,496.14,466.57
42.44528,494.40,471.86
42.46553,496.23,479.03
42.48600,492.85,487.88
42.50488,494.40,493.56
42.52510,497.59,501.76
42.54611,497.54,510.68
42.56565,496.46,514.99
42.58645,494.22,523.53
42.60536,497.00,528.54
42.62498,499.75,537.81
42.64518,500.82,541.99
42.66603,499.22,544.31
42.68468,499.20,547.55
42.70451,502.85,552.28
42.72621,500.62,553.80
42.74713,498.75,555.63
42.76578,499.07,557.00
42.78710,494.94,556.49
42.80630,496.42,558.48
42.82666,492.18,558.54
42.84795,492.27,559.64
42.86693,494.15,562.09
42.88687,491.79,563.14
42.90816,494.76,560.32
42.92763,494.20,559.43
42.94670,493.23,563.54
42.96794,490.67,563.62
42.98685,493.38,564.90
43.00816,492.42,561.55
43.02923,492.00,564.29
43.04823,488.87,566.08
43.06902,489.05,565.20
43.08772,490.21,563.18
43.10748,489.69,562.29
43.12796,488.11,565.66
43.14807,490.86,563.09
43.16795,491.19,566.62
43.18848,491.18,563.73
43.20820,490.16,563.48
43.22761,491.46,564.90
43.24895,489.34,562.40
43.26963,490.20,562.04
43.28964,492.05,563.26
43.31046,492.39,560.01
43.33012,492.35,562.00
43.34872,489.50,563.84
43.36921,490.73,563.85
43.39022,491.30,560.30
43.40980,487.97,561.38
43.42865,488.29,561.53
43.44933,491.61,560.99
43.47044,491.80,561.02
43.48860,491.40,558.22
43.51027,489.58,559.92
43.52845,491.51,559.43
43.54979,493.13,563.24
43.56886,490.11,563.05
43.58978,491.85,563.48
43.61000,489.47,565.58
43.62870,490.68,564.25
43.64990,491.05,564.34
43.66848,491.70,564.19
43.68965,489.47,561.87
43.70983,488.66,564.68
43.73005,491.86,563.59
43.74939,487.90,561.06
43.76861,490.65,563.47
43.78866,489.25,561.96
43.80987,491.04,560.08
43.82979,488.16,559.68
43.84927,488.92,563.19
43.87034,491.08,561.47
43.88929,492.31,563.22
43.90881,493.59,562.65
43.92944,491.33,560.02
43.94856,492.41,561.58
43.97005,489.65,565.38
43.99000,491.31,563.85
44.01003,493.12,563.40
44.03122,491.02,565.01
44.05057,489.81,564.12
44.07159,488.35,563.67
44.09226,490.73,563.75
44.11229,489.42,561.68
44.13116,490.73,561.08
44.15213,492.73,559.66
44.17161,492.18,559.76
44.19276,498.63,561.11
44.21489,499.29,561.28
44.23346,501.34,561.40
44.25529,501.99,563.59
44.27624,505.61,562.87
44.29690,506.13,562.99
44.31727,509.89,563.47
44.33669,507.13,566.47
44.35728,509.73,567.64
44.37619,509.03,565.50
44.39631,509.51,567.29
44.41616,508.38,570.49
44.43537,512.98,568.25
44.45635,511.90,569.46
44.47612,509.82,571.16
44.49705,512.15,569.54
44.51754,510.73,571.52
44.53935,512.54,571.57
44.55884,514.47,572.64
44.57949,512.32,570.36
44.59939,513.73,569.39
44.61944,511.69,571.85
44.63786,512.73,568.09
44.65839,512.01,570.31
44.67916,510.82,569.32
44.69843,513.36,569.12
44.71775,510.67,571.24
44.73829,511.23,569.77
44.75827,514.00,574.85
44.77782,511.66,572.11
44.79892,514.10,575.71
44.81937,510.77,575.30
44.83864,513.03,573.34
44.85923,512.48,572.75
44.87943,512.43,571.42
44.89925,515.75,574.28
44.91914,514.01,571.30
44.93741,513.07,573.11
44.95761,515.64,571.97
44.97932,513.61,571.58
44.99773,517.31,571.01
45.01851,511.41,569.67
45.03919,513.22,573.39
45.05916,511.57,570.91
45.07895,513.15,571.73
45.09771,510.04,572.29
45.11759,510.98,572.19
45.13755,514.32,571.64
45.15883,516.58,574.44
45.17858,517.82,572.53
45.19795,513.97,573.30
45.21920,513.59,575.92
45.23777,514.56,575.40
45.25844,508.61,574.51
45.27853,512.47,575.82
45.29747,511.69,573.57
45.31757,511.78,574.41
45.33883,513.09,576.90
45.35803,512.53,575.05
45.37873,513.49,577.94
45.39826,512.35,574.87
45.41808,514.06,575.87
45.43755,515.16,576.45
45.45825,513.36,575.77
45.47891,514.09,573.82
45.49746,509.40,573.73
45.51847,511.69,571.99
45.53932,511.32,573.68
45.55891,510.90,580.03
45.57767,508.44,594.37
45.59936,510.74,615.91
45.61869,510.19,637.52
45.63823,508.56,655.56
45.65781,508.10,667.46
45.67875,508.60,670.19
45.69802,507.01,677.38
45.71811,507.38,673.18
45.73749,507.85,668.62
45.75862,509.92,661.83
45.77897,510.14,656.60
45.79874,512.86,652.03
45.81831,513.70,642.61
45.83906,514.66,638.60
45.85791,515.67,633.05
45.87902,519.85,626.27
45.89796,516.63,619.10
45.91761,518.01,615.82
45.93848,518.26,611.66
45.95876,518.92,607.46
45.97807,518.16,603.93
45.99766,517.68,599.76
46.01794,521.21,594.26
46.03894,519.28,591.28
46.05911,518.73,592.52
46.07909,515.81,591.17
46.09769,518.47,589.71
46.11839,515.25,585.73
46.13769,516.28,586.70
46.15947,516.21,585.03
46.17947,515.18,580.43
46.19874,513.99,582.39
46.21803,514.03,581.80
46.23900,516.44,581.36
46.25910,516.79,581.04
46.27810,514.49,581.76
46.29842,516.47,579.76
46.31927,514.17,576.88
46.34004,516.68,578.11
46.36119,515.40,579.33
46.38111,511.66,574.59
46.40127,512.42,577.59
46.42069,509.80,576.10
46.44209,510.18,575.37
46.46194,504.82,575.51
46.48325,503.33,578.16
46.50323,505.14,576.36
46.52396,501.92,563.05
46.54352,500.18,546.18
46.56454,495.92,524.42
46.58616,493.63,497.79
46.60557,492.16,476.10
46.62723,490.79,466.05
46.64665,489.89,461.14
46.66730,491.56,457.21
46.68744,489.34,460.54
46.70650,488.20,463.41
46.72823,488.08,468.71
46.74774,485.29,479.03
46.76694,486.21,488.23
46.78718,486.91,492.37
46.80655,487.92,501.04
46.82682,486.23,512.42
46.84697,487.58,515.25
46.86712,485.18,524.35
46.88643,487.38,528.36
46.90758,488.44,534.08
46.92721,485.97,537.57
46.94826,485.26,540.42
46.96667,485.83,541.94
46.98687,487.91,548.91
47.00822,487.12,549.07
47.02691,491.42,552.23
47.04772,488.80,556.27
47.06655,492.79,556.62
47.08771,493.24,558.30
47.10662,490.32,561.92
47.12673,492.14,561.07
47.14820,491.96,561.02
47.16671,491.01,565.17
47.18776,493.36,562.24
47.20684,493.59,566.37
47.22700,492.29,565.86
47.24826,491.46,565.34
47.26726,490.05,564.47
47.28651,492.40,565.06
47.30707,492.45,565.37
47.32712,492.80,564.15
47.34735,490.98,565.08
47.36684,492.80,565.16
47.38777,491.68,565.91
47.40709,492.14,565.28
47.42824,490.48,564.63
47.44815,492.56,564.67
47.46746,493.26,564.78
47.48781,490.10,563.86
47.50744,493.28,565.12
47.52671,493.99,565.87
47.54843,491.86,563.19
47.56673,493.35,567.76
47.58708,489.73,565.05
47.60707,491.68,567.61
47.62745,492.95,565.68
47.64776,491.92,567.97
47.66764,492.23,570.43
47.68782,490.28,567.01
47.70736,489.99,568.38
47.72731,491.11,569.12
47.74729,488.38,567.72
47.76775,489.19,566.42
47.78797,486.87,566.63
47.80700,487.62,567.73
47.82702,487.30,566.61
47.84834,488.71,568.98
47.86720,489.98,573.80
47.88829,494.02,578.70
47.90811,501.96,589.35
47.92651,513.36,602.49
47.94706,525.97,623.98
47.96667,534.01,645.38
47.98744,542.68,666.16
48.00642,545.72,673.59
48.02738,544.81,665.20
48.04752,537.82,646.49
48.06734,532.64,621.52
48.08729,520.61,588.24
48.10700,507.59,560.85
48.12712,505.10,534.60
48.14677,499.56,513.44
48.16647,493.32,500.19
48.18751,488.00,486.90
48.20917,485.52,482.48
48.22881,488.12,482.29
48.24755,484.33,483.22
48.26883,484.10,485.12
48.28921,483.58,491.10
48.30903,482.14,498.53
48.32932,484.59,502.12
48.34946,484.46,509.11
48.36733,483.68,513.69
48.38816,483.30,518.36
48.40889,488.67,524.25
48.42842,488.63,532.42
48.44920,485.36,534.34
48.46833,487.42,542.30
48.48895,486.11,546.19
48.50728,488.31,549.40
48.52944,487.09,551.82
48.54785,489.48,555.66
48.56764,487.18,556.55
48.58821,488.94,559.08
48.60877,488.75,556.59
48.62838,490.96,557.19
48.64913,488.80,559.70
48.66751,488.54,560.67
48.68831,486.77,562.47
48.70927,488.23,560.85
48.72878,491.48,561.02
48.74959,490.32,559.87
48.76990,489.39,563.81
48.78913,491.06,564.70
48.80989,492.44,567.07
48.82961,491.04,564.53
48.84897,492.59,567.20
48.86939,492.34,566.50
48.89098,496.59,570.65
48.91079,496.16,570.98
48.93005,498.21,569.07
48.95116,498.36,572.62
48.97008,495.03,571.27
48.99135,495.90,570.20
49.01073,495.57,568.90
49.02929,496.79,568.22
49.05117,494.64,569.79
49.06933,495.68,565.49
49.08972,498.07,563.17
49.11066,498.10,568.18
49.13084,498.37,568.70
49.15082,498.69,567.57
49.16986,499.58,569.40
49.18938,498.96,566.12
49.21036,500.82,564.11
49.23019,501.05,565.28
49.25075,503.36,563.16
49.27111,503.79,565.16
49.29072,507.52,567.38
49.31133,507.13,566.74
49.33087,506.60,569.68
49.35088,504.27,568.47
49.37091,502.02,568.38
49.39029,502.18,567.89
49.41040,500.60,567.89
49.42950,496.94,571.01
49.45040,495.36,573.37
49.47124,495.36,571.72
49.48954,495.24,575.16
49.51124,493.69,573.52
49.52947,493.94,574.15
49.55057,493.59,574.80
49.57015,494.58,572.02
49.59032,495.37,570.27
49.60986,492.90,567.61
49.62960,494.70,567.23
49.65014,492.35,565.13
49.66969,493.86,568.11
49.68965,494.04,567.77
49.71126,493.82,565.88
49.72949,492.60,563.10
49.75075,491.33,567.29
49.76915,491.20,561.10
49.79018,490.83,565.88
49.81032,493.32,565.75
49.83124,493.85,566.58
49.84956,495.84,568.15
49.87003,494.59,568.53
