Program Time [s],data 0,data 1
222.17470,494.92,554.29
222.19580,498.25,576.66
222.21407,502.01,605.86
222.23521,506.48,635.48
222.25444,510.09,648.19
222.27500,514.85,649.31
222.29591,515.59,645.83
222.31440,516.39,629.35
222.33412,515.30,608.87
222.35508,512.91,589.91
222.37448,512.98,569.24
222.39420,509.91,555.19
222.41537,507.53,539.13
222.43421,505.82,525.95
222.45470,505.98,519.61
222.47411,503.84,511.56
222.49527,500.16,504.58
222.51621,492.12,484.18
222.53694,486.49,464.78
222.55692,480.09,450.51
222.57693,479.55,449.42
222.59533,477.77,447.77
222.61560,477.80,451.87
222.63657,479.30,456.16
222.65656,477.63,464.02
222.67608,480.66,469.24
222.69690,482.71,476.97
222.71665,488.02,484.43
222.73594,488.78,487.86
222.75621,491.76,496.90
222.77689,494.98,499.83
222.79531,495.02,504.56
222.81642,496.62,507.81
222.83700,494.19,512.34
222.85608,494.05,513.93
222.87758,496.30,514.47
222.89637,495.51,516.01
222.91651,498.99,520.23
222.93600,496.80,521.43
222.95791,499.96,519.91
222.97708,499.97,520.86
222.99724,499.92,524.30
223.01702,500.69,524.13
223.03780,499.85,526.90
223.05642,501.64,524.42
223.07627,499.82,524.82
223.09608,500.51,528.12
223.11879,500.87,528.80
223.13986,500.74,525.03
223.15923,496.96,527.58
223.17887,498.54,529.18
223.19867,497.44,525.94
223.22018,497.34,525.73
223.24093,497.59,526.22
223.25947,494.38,525.62
223.28130,492.81,527.65
223.30086,489.08,527.07
223.32034,488.92,527.40
223.34064,489.57,526.10
223.36109,485.06,525.23
223.38025,486.55,527.57
223.40044,486.99,524.74
223.42030,486.92,528.73
223.44154,483.56,526.92
223.46183,486.21,529.47
223.48111,485.92,529.54
223.50131,486.11,526.64
223.52133,485.13,525.81
223.54070,486.54,526.60
223.56226,484.93,528.77
223.58276,486.82,542.52
223.60268,489.22,573.75
223.62141,491.59,607.18
223.64140,487.35,630.00
223.66381,484.86,641.16
223.68390,482.46,642.66
223.70473,480.21,637.43
223.72340,479.11,632.30
223.74365,477.73,623.91
223.76414,475.58,614.36
223.78369,476.42,602.20
223.80453,477.05,593.06
223.82398,476.43,582.97
223.84321,476.56,576.87
223.86387,474.48,569.63
223.88353,474.58,565.83
223.90326,477.28,560.13
223.92366,477.65,556.95
223.94416,480.50,551.47
223.96404,479.34,546.55
223.98310,482.34,542.94
224.00325,480.81,543.53
224.02419,481.79,541.07
224.04400,482.36,537.87
224.06418,479.36,535.39
224.08340,479.62,529.64
224.10426,481.16,532.85
224.12397,481.50,529.98
224.14477,479.01,528.36
224.16374,480.22,525.86
224.18308,480.58,526.33
224.20330,479.41,531.41
224.22330,479.62,528.77
224.24516,479.82,528.85
224.26349,478.95,530.03
224.28332,476.87,527.09
224.30305,475.42,526.73
224.32413,474.16,527.21
224.34429,473.14,525.64
224.36366,473.61,526.03
224.38441,476.94,524.69
224.40379,475.15,524.89
224.42494,475.42,526.31
224.44403,475.60,528.72
224.46405,477.32,527.67
224.48389,476.12,534.81
224.50345,476.90,544.35
224.52398,478.52,547.12
224.54324,481.07,534.70
224.56423,477.01,502.96
224.58387,475.81,469.20
224.60429,474.27,435.88
224.62491,468.12,413.51
224.64348,467.17,401.58
224.66598,467.77,396.55
224.68413,465.59,399.34
224.70303,464.73,403.48
224.72435,467.71,408.09
224.74422,465.77,416.04
224.76396,468.83,425.13
224.78413,466.33,436.03
224.80311,469.21,446.12
224.82313,470.95,455.92
224.84411,473.88,469.43
224.86450,473.45,477.04
224.88483,475.31,483.30
224.90470,475.11,488.13
224.92474,475.49,493.98
224.94409,476.74,498.71
224.96379,475.31,503.61
224.98416,478.23,506.63
225.00316,479.40,509.69
225.02460,476.57,511.41
225.04320,476.82,514.99
225.06477,478.15,515.57
225.08462,480.10,517.64
225.10332,478.85,522.33
225.12381,478.05,524.65
225.14304,477.89,522.57
225.16344,482.69,526.47
225.18386,479.66,524.63
225.20330,479.95,522.38
225.22360,477.17,523.03
225.24489,477.62,523.87
225.26415,479.37,523.66
225.28312,478.35,520.00
225.30368,478.61,519.20
225.32367,475.61,522.55
225.34400,477.39,521.17
225.36378,478.09,519.22
225.38359,475.50,519.00
225.40421,476.13,523.53
225.42457,475.31,522.71
225.44374,477.97,523.17
225.46300,477.77,519.95
225.48483,474.85,522.22
225.50382,474.32,521.53
225.52365,476.83,519.66
225.54320,474.80,523.33
225.56404,476.48,521.05
225.58418,477.35,527.35
225.60430,476.34,527.59
225.62359,478.32,531.46
225.64332,477.02,532.87
225.66486,477.85,531.44
225.68339,474.91,529.98
225.70429,475.25,531.22
225.72325,475.94,528.21
225.74441,477.60,525.67
225.76460,475.89,526.89
225.78483,477.27,527.26
225.80463,476.82,524.47
225.82480,475.31,524.48
225.84497,476.37,524.01
225.86332,479.18,525.37
225.88316,478.15,527.15
225.90493,478.65,522.95
225.92433,479.40,525.16
225.94464,476.67,523.92
225.96328,476.99,523.68
225.98359,479.87,524.34
226.00383,479.47,522.81
226.02320,481.59,522.36
226.04350,478.56,520.64
226.06356,477.93,524.38
226.08356,478.55,521.89
226.10345,479.51,520.45
226.12337,477.25,521.44
226.14416,479.95,521.25
226.16341,480.99,520.68
226.18577,480.18,518.07
226.20487,480.10,518.76
226.22598,479.95,519.74
226.24498,480.79,522.89
226.26528,481.70,522.30
226.28455,479.88,523.44
226.30587,479.31,525.33
226.32412,480.34,523.33
226.34544,478.14,522.93
226.36416,476.88,520.46
226.38443,479.42,519.09
226.40517,477.59,521.95
226.42559,475.94,520.66
226.44497,476.42,520.43
226.46566,474.37,522.85
226.48449,471.78,522.60
226.50595,471.70,522.84
226.52560,470.29,520.31
226.54418,471.29,522.72
226.56420,473.58,522.59
226.58484,470.60,522.68
226.60464,471.68,522.89
226.62411,472.31,520.36
226.64466,469.37,519.43
226.66431,471.29,519.37
226.68558,470.33,521.31
226.70547,470.96,517.34
226.72527,472.17,520.29
226.74554,474.08,519.05
226.76438,473.02,519.58
226.78402,470.43,520.62
226.80538,469.55,520.14
226.82496,467.89,521.68
226.84577,469.46,521.96
226.86405,472.95,520.68
226.88542,470.47,522.43
226.90581,473.12,523.44
226.92457,471.07,520.79
226.94587,473.49,522.51
226.96438,475.64,523.53
226.98463,477.09,527.12
227.00592,475.56,526.31
227.02425,473.09,525.29
227.04436,472.44,522.39
227.06565,473.92,524.70
227.08508,473.12,525.06
227.10558,473.11,523.38
227.12535,473.06,520.89
227.14468,473.82,524.21
227.16467,473.49,522.71
227.18538,472.35,522.96
227.20594,472.16,522.19
227.22475,473.30,521.98
227.24540,475.61,522.10
227.26594,473.46,524.27
227.28426,473.54,519.82
227.30436,476.78,520.97
227.32410,474.09,525.68
227.34444,476.43,544.79
227.36521,477.41,578.99
227.38595,480.70,607.99
227.40457,483.29,642.76
227.42516,482.17,661.99
227.44527,481.66,665.50
227.46527,481.95,657.91
227.48532,478.01,644.25
227.50671,477.87,634.22
227.52614,478.55,616.88
227.54612,475.95,608.22
227.56536,475.44,594.53
227.58586,477.27,582.96
227.60652,479.42,577.22
227.62585,477.59,568.89
227.64672,479.99,563.15
227.66644,479.30,560.97
227.68558,476.79,550.69
227.70612,476.58,548.08
227.72603,475.51,546.85
227.74551,474.44,540.09
227.76625,475.52,545.48
227.78665,477.79,537.06
227.80608,476.17,537.53
227.82677,477.03,538.86
227.84582,477.46,544.81
227.86519,478.70,545.06
227.88501,479.65,542.93
227.90599,475.61,540.97
227.92609,475.83,541.48
227.94684,474.25,540.20
227.96642,478.22,540.96
227.98516,475.58,536.61
228.00548,475.63,533.87
228.02532,475.61,534.61
228.04550,476.58,529.38
228.06544,476.82,528.58
228.08504,476.11,526.57
228.10581,474.90,530.88
228.12747,472.92,534.32
228.14636,477.35,532.43
228.16780,477.44,532.21
228.18727,478.84,531.80
228.20779,475.64,529.58
228.22757,477.77,530.70
228.24670,478.70,530.91
228.26671,478.39,542.64
228.28758,481.23,562.33
228.30686,485.63,578.20
228.32643,486.26,586.27
228.34616,485.13,577.59
228.36651,481.23,550.92
228.38695,476.60,514.74
228.40651,472.46,471.83
228.42820,470.10,434.49
228.44748,468.92,408.02
228.46829,467.39,394.45
228.48722,470.83,387.53
228.50825,467.86,383.85
228.52748,467.65,382.78
228.54861,467.39,391.49
228.56706,468.39,394.98
228.58859,469.54,405.34
228.60817,473.18,415.48
228.62761,472.88,422.59
228.64785,475.80,437.87
228.66809,479.07,449.96
228.68881,477.22,461.46
228.70832,477.16,470.65
228.72873,479.12,478.14
228.74844,479.74,484.10
228.76811,481.80,487.35
228.78882,480.57,492.50
228.80776,483.11,495.48
228.82777,482.64,501.49
228.84801,483.31,500.68
228.86990,485.24,504.70
228.88858,486.15,504.05
228.90903,487.23,508.80
228.92835,487.20,505.62
228.94884,485.22,511.57
228.96948,485.43,510.70
228.99108,489.35,514.72
229.01253,489.81,515.76
229.03165,493.55,512.87
229.05290,490.56,516.19
229.07140,496.09,517.96
229.09155,494.18,518.77
229.11109,497.07,522.95
229.13254,493.77,520.62
229.15252,494.88,523.06
229.17296,497.29,523.35
229.19296,498.78,522.35
229.21231,499.42,524.15
229.23387,499.17,523.56
229.25380,499.59,523.34
229.27285,498.37,526.63
229.29386,500.09,526.60
229.31392,500.27,527.73
229.33282,496.74,527.63
229.35396,500.80,525.83
229.37295,498.33,527.17
229.39361,498.68,523.33
229.41303,496.76,526.61
229.43243,498.09,525.01
229.45367,498.99,522.77
229.47208,498.62,523.01
229.49218,498.11,524.85
229.51386,496.78,525.68
229.53254,496.96,523.65
229.55318,499.70,525.36
229.57268,498.65,525.20
229.59223,498.50,524.40
229.61205,496.57,524.43
229.63349,498.08,525.67
229.65303,498.40,529.99
229.67289,501.72,529.30
229.69383,500.29,528.44
229.71262,499.39,529.00
229.73339,497.99,526.04
229.75332,499.63,527.56
229.77393,501.20,525.08
229.79286,502.18,523.85
229.81214,500.41,524.04
229.83345,502.15,525.92
229.85257,501.28,526.53
229.87283,500.04,525.37
229.89384,499.52,526.37
229.91339,498.63,525.92
229.93350,498.89,525.93
229.95300,499.58,524.37
229.97291,500.13,525.40
229.99338,500.31,525.83
230.01256,498.72,525.57
230.03204,501.28,525.67
230.05335,500.31,526.20
230.07253,502.57,528.17
230.09228,500.88,525.69
230.11360,499.79,526.91
230.13273,497.75,527.16
230.15222,496.40,526.67
230.17206,497.55,524.89
230.19338,494.40,525.06
230.21394,497.15,527.04
230.23328,497.01,524.64
230.25316,496.84,524.94
230.27399,499.29,526.64
230.29308,495.78,526.54
230.31391,498.83,526.18
230.33291,496.79,522.94
230.35374,498.93,523.95
230.37381,496.69,522.53
230.39297,500.66,526.38
230.41257,501.29,526.77
230.43226,500.95,525.45
230.45397,500.50,523.92
230.47261,503.49,526.52
230.49324,502.83,524.45
230.51219,502.31,529.83
230.53392,505.22,528.57
230.55380,503.27,527.75
230.57390,502.40,528.33
230.59206,500.66,529.27
230.61205,499.82,528.30
230.63228,499.67,528.00
230.65261,500.30,536.22
230.67306,501.55,537.35
230.69381,501.31,541.53
230.71269,500.90,541.72
230.73437,500.29,543.41
230.75542,501.71,544.63
230.77590,499.45,541.14
230.79793,498.89,542.66
230.81603,498.35,539.77
230.83631,496.10,537.30
230.85779,496.07,537.25
230.87739,494.22,536.38
230.89629,494.07,538.58
230.91630,496.63,537.18
230.93630,496.81,533.42
230.95607,494.40,531.84
230.97798,494.39,533.07
230.99885,492.13,532.79
231.01871,492.92,531.03
231.03751,491.33,532.52
231.05899,490.06,529.36
231.07909,486.56,527.22
231.10093,486.56,526.77
231.12058,484.09,524.81
231.14108,481.58,525.27
231.16065,479.29,524.72
231.18004,477.46,520.68
231.20092,479.24,520.45
231.22125,480.49,518.58
231.24161,478.30,521.85
231.26051,478.70,547.16
231.28119,478.66,568.56
231.30203,481.30,591.31
231.32295,481.19,605.46
231.34114,477.68,613.37
231.36247,477.12,617.79
231.38275,477.26,616.47
231.40161,477.18,611.36
231.42165,477.70,604.67
231.44183,481.21,599.78
231.46115,481.18,593.74
231.48114,480.67,583.49
231.50190,481.82,570.72
231.52183,479.04,566.20
231.54261,476.77,563.38
231.56201,475.67,560.33
231.58161,476.96,554.18
231.60113,475.30,552.29
231.62231,475.15,547.30
231.64159,474.74,544.81
231.66123,474.97,544.59
231.68146,473.51,543.34
231.70155,475.98,541.98
231.72128,475.35,540.58
231.74134,476.69,539.75
231.76177,475.49,538.59
231.78269,475.47,533.56
231.80252,475.06,537.14
231.82287,476.23,539.81
231.84261,475.93,538.14
231.86238,476.39,533.97
231.88246,476.03,536.66
231.90237,475.80,532.97
231.92321,477.59,528.10
231.94332,474.91,527.98
231.96384,476.96,525.91
231.98316,477.95,525.13
232.00331,474.84,523.50
232.02314,474.10,523.51
232.04389,475.71,524.25
232.06269,475.73,523.99
232.08315,473.81,524.62
232.10287,476.29,523.98
232.12393,476.67,527.66
232.14381,477.49,539.09
232.16378,483.35,557.86
232.18206,486.63,573.08
232.20302,494.37,577.15
232.22362,494.98,562.29
232.24438,490.27,534.66
232.26457,482.90,496.06
232.28412,478.92,463.77
232.30482,473.18,442.14
232.32542,469.90,421.79
232.34579,467.13,411.43
232.36428,464.42,409.77
232.38590,463.96,404.38
232.40540,462.82,411.03
232.42400,462.34,414.62
232.44434,463.07,424.10
232.46491,466.26,430.69
232.48436,467.28,431.87
232.50428,469.74,437.11
232.52485,472.25,444.32
232.54590,473.02,447.69
232.56506,473.35,455.74
232.58409,474.89,462.64
232.60582,475.71,467.00
232.62518,476.25,475.69
232.64485,473.19,480.07
232.66458,475.15,484.76
232.68480,473.69,490.44
232.70482,472.29,494.92
232.72490,472.61,498.88
232.74491,474.76,501.81
232.76596,475.89,504.24
232.78518,475.72,504.04
232.80473,473.93,508.93
232.82409,473.16,508.42
232.84539,472.11,511.36
232.86594,471.15,512.71
232.88495,474.36,516.94
232.90564,476.14,518.36
232.92533,473.82,514.94
232.94517,476.07,518.29
232.96420,478.10,517.62
232.98498,478.75,516.61
233.00494,476.62,517.99
233.02502,477.21,519.64
233.04432,477.77,516.47
233.06561,476.04,515.48
233.08402,476.79,515.49
233.10412,477.39,514.42
233.12588,478.13,514.80
233.14447,474.69,513.83
233.16511,477.39,519.05
233.18541,476.02,518.54
233.20464,475.69,519.78
233.22566,477.48,521.97
233.24414,477.92,521.61
233.26444,476.10,522.33
233.28450,474.18,524.17
233.30439,477.28,521.64
233.32552,474.86,524.38
233.34407,475.05,523.06
233.36566,474.72,525.78
233.38466,477.13,522.88
233.40598,474.96,523.63
233.42433,477.31,522.79
233.44536,476.12,525.45
233.46404,477.44,525.21
233.48404,477.77,525.93
233.50411,476.49,522.54
233.52546,475.97,522.48
233.54486,476.80,523.38
233.56564,474.56,524.33
233.58402,475.79,522.19
233.60525,476.23,521.30
233.62446,478.71,522.36
233.64429,477.61,521.27
233.66475,478.34,521.17
233.68498,479.19,519.80
233.70529,477.34,520.26
233.72506,477.74,521.48
233.74540,479.80,522.89
233.76589,478.46,521.09
233.78483,477.88,523.25
233.80588,477.97,521.62
233.82563,476.67,519.80
233.84407,477.97,521.83
233.86479,478.55,522.96
233.88467,477.86,521.49
233.90433,478.18,519.07
233.92586,476.63,522.62
233.94548,481.21,521.81
233.96433,479.97,523.47
233.98542,478.75,521.78
234.00480,476.92,520.41
234.02591,475.50,522.10
234.04410,478.72,521.92
234.06599,477.79,522.00
234.08477,477.23,522.70
234.10561,477.76,522.98
234.12510,477.72,522.38
234.14580,479.86,523.41
234.16470,479.35,525.33
234.18453,478.81,524.60
234.20566,477.42,523.37
234.22466,480.99,525.17
234.24437,478.93,523.73
234.26480,480.16,525.09
234.28481,478.37,525.60
234.30563,476.53,522.32
234.32560,477.29,522.47
234.34512,478.10,522.23
234.36567,479.74,522.58
234.38506,479.01,523.12
234.40446,477.44,522.62
234.42476,481.00,522.79
234.44562,478.79,524.02
234.46565,480.55,523.11
234.48462,477.33,523.69
234.50472,477.46,524.92
234.52421,480.79,525.67
234.54521,480.03,524.16
234.56566,482.73,524.42
234.58461,483.07,526.53
234.60509,483.04,521.22
234.62414,482.54,522.83
234.64474,482.13,524.82
234.66571,479.81,524.53
234.68483,479.44,521.65
234.70456,480.69,524.35
234.72430,480.02,522.27
234.74467,481.69,521.92
234.76503,482.38,521.19
234.78506,480.16,523.83
234.80485,479.65,521.79
234.82426,478.70,523.35
234.84436,479.12,521.51
234.86576,480.99,523.76
234.88549,480.80,522.69
234.90533,481.09,521.60
234.92443,478.68,524.26
234.94590,480.02,523.33
234.96463,480.78,522.65
234.98410,482.28,522.71
235.00460,482.59,524.71
235.02473,482.24,522.16
235.04492,481.25,525.26
235.06515,482.46,526.06
235.08580,482.31,523.63
235.10556,481.75,522.74
235.12583,482.13,523.53
235.14474,479.47,525.42
235.16516,481.92,521.72
235.18512,480.17,523.51
235.20575,479.59,521.40
235.22471,481.10,520.05
235.24415,479.21,520.74
235.26437,480.36,517.71
235.28423,482.12,520.99
235.30495,480.21,533.99
235.32450,481.66,552.86
235.34432,482.36,577.18
235.36550,482.17,603.94
235.38558,487.72,622.07
235.40596,488.20,633.00
235.42482,485.22,631.07
235.44445,485.14,629.31
235.46571,486.40,623.77
235.48421,485.71,610.23
235.50513,483.41,605.31
235.52471,482.76,595.84
235.54434,484.71,589.18
235.56479,485.39,583.19
235.58581,485.84,574.47
235.60593,486.38,570.87
235.62465,487.81,562.68
235.64496,485.18,559.04
235.66534,487.83,554.79
235.68562,486.01,550.19
235.70456,484.24,546.68
235.72482,482.87,547.05
235.74583,485.45,541.80
235.76544,488.12,540.44
235.78481,486.15,544.35
235.80422,486.71,538.11
235.82580,484.82,540.56
235.84498,485.52,540.19
235.86422,483.81,537.72
235.88513,482.80,536.14
235.90488,483.68,538.02
235.92446,482.09,537.10
235.94569,479.76,534.86
235.96403,481.15,534.29
235.98450,480.68,537.49
236.00495,481.07,553.35
236.02558,486.39,571.67
236.04576,490.23,577.60
236.06594,489.81,555.55
236.08431,490.23,513.55
236.10582,485.12,469.23
236.12594,484.27,434.18
236.14404,479.12,415.02
236.16554,480.09,402.54
236.18428,479.92,399.19
236.20547,477.59,398.47
236.22459,479.56,402.35
236.24456,480.19,410.02
236.26588,480.75,417.36
236.28442,480.97,424.79
236.30427,477.90,434.14
236.32535,481.53,443.55
236.34408,481.25,453.17
236.36454,483.30,463.16
236.38410,483.52,468.66
236.40510,483.69,477.85
236.42406,485.25,483.59
236.44543,485.00,488.44
236.46487,483.64,493.48
236.48420,483.11,498.43
236.50585,485.42,504.65
236.52420,485.72,507.67
236.54420,483.95,508.61
236.56517,486.00,509.83
236.58522,484.87,511.48
236.60508,485.58,515.59
236.62595,488.25,517.62
236.64558,487.69,518.68
236.66536,489.90,517.79
236.68561,490.36,521.34
236.70530,488.36,519.12
236.72404,487.25,520.53
236.74528,485.26,523.33
236.76596,487.05,522.09
236.78519,485.01,521.25
236.80522,486.35,524.16
236.82538,485.53,524.44
236.84539,488.52,521.09
236.86568,488.43,521.22
236.88488,489.97,522.11
236.90584,490.17,522.78
236.92545,489.66,522.79
236.94441,490.64,523.58
236.96600,486.18,524.13
236.98427,487.68,524.84
237.00500,486.43,524.97
237.02421,486.35,524.33
237.04532,487.44,522.38
237.06422,485.31,523.24
237.08548,486.79,525.47
237.10519,485.55,524.82
237.12523,483.82,523.80
237.14500,487.70,525.97
237.16600,485.96,525.82
237.18449,486.34,527.45
237.20473,488.27,524.13
237.22482,487.63,522.87
237.24464,489.73,525.53
237.26404,490.87,523.17
237.28567,491.37,525.52
237.30455,492.92,524.17
237.32427,493.34,524.63
237.34434,490.55,522.54
237.36468,490.25,523.58
237.38410,490.34,522.95
237.40427,490.76,526.65
237.42524,489.98,524.46
237.44500,489.47,524.50
237.46543,490.59,525.33
237.48518,488.29,526.40
237.50493,487.86,526.96
237.52456,487.21,525.24
237.54526,487.48,526.22
237.56564,489.53,527.65
237.58542,491.52,523.47
237.60565,488.60,525.44
237.62413,489.15,523.46
237.64446,486.51,524.97
237.66514,488.76,525.64
237.68498,490.53,525.78
237.70409,492.88,524.88
237.72463,491.96,527.12
237.74520,492.09,527.58
237.76476,489.23,526.21
237.78541,489.79,526.91
237.80524,488.10,523.78
237.82475,488.03,524.91
237.84457,490.59,523.46
237.86595,490.38,523.39
237.88520,489.42,525.12
237.90434,491.00,523.66
237.92403,489.59,526.08
237.94507,487.47,528.97
237.96688,488.41,527.32
237.98684,487.95,527.11
238.00611,490.86,528.02
238.02514,491.89,528.63
238.04692,490.51,528.98
238.06644,490.70,526.63
238.08576,492.42,525.77
238.10595,492.42,528.15
238.12649,495.46,526.59
238.14581,497.38,526.02
238.16689,495.50,524.60
238.18527,495.45,526.74
238.20598,496.24,526.93
238.22541,494.48,523.79
238.24534,494.35,523.70
238.26636,497.26,523.26
238.28690,497.00,523.49
238.30542,495.17,524.20
238.32687,496.03,521.82
238.34682,493.25,522.43
238.36592,497.13,524.56
238.38607,496.72,522.05
238.40533,496.89,525.54
238.42577,496.89,524.26
238.44557,494.98,522.48
238.46699,493.75,523.99
238.48686,495.48,522.74
238.50521,496.93,522.73
238.52508,494.78,525.30
238.54645,493.69,524.13
238.56526,494.37,525.38
238.58665,498.09,526.35
238.60533,496.85,527.06
238.62670,496.71,523.97
238.64651,497.30,526.63
238.66506,500.37,524.94
238.68549,500.14,525.99
238.70655,498.86,525.62
238.72594,499.18,528.82
238.74613,498.07,527.34
238.76573,499.99,527.77
238.78640,497.04,527.70
238.80579,499.05,527.13
238.82601,495.42,527.16
238.84694,495.92,527.93
238.86601,496.40,526.17
238.88654,496.57,528.56
238.90565,496.08,529.53
238.93070,495.41,527.92
238.94516,495.78,530.60
238.96592,495.83,531.08
238.98573,496.67,529.85
239.00584,497.98,531.27
239.02589,497.22,531.49
239.04673,498.26,526.96
239.06536,494.78,529.04
239.08679,499.94,529.39
239.10671,498.85,528.22
239.12532,495.71,527.98
239.14531,497.69,528.26
239.16682,495.88,529.04
239.18545,498.26,529.57
239.20505,498.38,529.67
239.22517,495.80,529.81
239.24570,499.67,527.82
239.26557,499.23,527.63
239.28545,499.48,529.88
239.30587,495.50,529.36
239.32684,498.84,525.77
239.34652,498.28,527.35
239.36521,498.09,528.37
239.38614,495.17,528.89
239.40563,498.63,529.16
239.42519,497.75,528.34
239.44503,498.99,524.15
239.46515,497.93,525.69
239.48666,498.86,535.01
239.50678,499.70,557.98
239.52625,501.23,586.25
239.54526,502.73,612.88
239.56588,503.12,637.29
239.58583,502.88,657.39
239.60629,503.89,673.03
239.62559,503.38,678.78
239.64603,501.11,677.44
239.66663,499.10,665.43
239.68526,500.56,648.50
239.70561,497.34,628.36
239.72685,499.27,611.13
239.74664,497.44,592.72
239.76592,496.97,576.63
239.78625,497.98,563.18
239.80586,496.55,553.29
239.82647,497.60,542.81
239.84627,495.84,537.14
239.86552,494.55,536.16
239.88565,496.80,531.91
239.90651,497.01,532.85
239.92610,494.64,531.97
239.94546,496.48,531.56
239.96669,494.55,531.72
239.98656,498.20,532.05
240.00636,496.79,531.04
240.02592,497.03,532.90
240.04681,498.49,530.48
240.06611,499.47,533.55
240.08516,502.86,528.45
240.10514,500.66,530.71
240.12686,503.98,528.45
240.14506,500.38,530.88
240.16539,502.33,528.81
240.18567,502.27,527.31
240.20699,501.07,526.50
240.22654,502.55,528.40
240.24526,499.15,525.83
240.26551,499.40,526.79
240.28589,501.05,525.96
240.30665,499.41,523.93
240.32545,500.74,522.90
240.34562,499.73,526.24
240.36553,499.16,529.71
240.38577,501.10,527.55
240.40541,502.91,523.63
240.42611,500.70,509.07
240.44648,501.52,485.52
240.46654,502.53,456.81
240.48524,504.63,430.50
240.50628,503.78,411.26
240.52613,502.30,401.81
240.54595,502.07,398.47
240.56685,502.41,402.32
240.58514,504.21,408.53
240.60520,502.22,413.73
240.62645,500.02,423.55
240.64640,502.86,432.49
240.66585,503.62,443.27
240.68625,502.68,453.61
240.70555,501.67,461.71
240.72537,501.41,468.94
240.74700,499.28,475.13
240.76687,500.04,481.14
240.78568,497.80,488.89
240.80642,499.04,494.90
240.82553,498.88,497.42
240.84654,502.06,502.05
240.86570,500.18,504.46
240.88562,500.43,510.60
240.90520,500.83,513.86
240.92548,498.70,515.03
240.94584,500.68,515.70
240.96560,499.68,520.70
240.98643,497.72,517.26
241.00565,498.13,519.50
241.02527,497.66,522.70
241.04502,499.48,522.61
241.06509,498.08,522.31
241.08625,500.17,524.21
241.10660,499.27,523.46
241.12544,499.49,523.44
241.14585,498.22,525.74
241.16527,500.99,525.30
241.18533,499.25,527.86
241.20624,500.21,527.63
241.22607,499.95,527.64
241.24643,499.77,527.33
241.26506,500.60,527.12
241.28643,499.17,527.43
241.30508,499.78,528.32
241.32624,500.33,529.34
241.34639,503.59,529.07
241.36563,504.89,528.45
241.38541,500.60,530.82
241.40505,501.71,528.70
241.42777,501.54,528.02
241.44718,500.05,526.88
241.46715,500.43,527.34
241.48783,498.92,529.42
241.50602,498.61,526.40
241.52658,497.72,527.12
241.54641,498.15,526.35
241.56734,500.48,528.77
241.58615,500.13,530.63
241.60703,500.29,527.94
241.62738,502.83,532.08
241.64774,502.32,531.86
241.66750,500.97,531.19
241.68764,502.06,532.40
241.70793,502.97,531.45
241.72755,500.94,527.91
241.74690,501.94,529.09
241.76659,501.49,529.60
241.78712,504.06,531.36
241.80704,503.08,528.92
241.82886,500.01,530.31
241.84822,502.87,530.17
241.86805,501.26,528.73
241.88716,501.39,526.80
241.90753,501.52,529.22
241.92841,499.48,527.37
241.94756,501.32,527.87
241.96885,499.94,529.59
241.98777,501.56,528.79
242.00778,500.28,529.11
242.02846,498.06,527.99
242.04841,499.86,527.67
242.06971,498.26,529.46
242.08992,497.43,530.91
242.10843,497.04,527.42
242.12803,496.02,528.08
242.14888,496.44,528.57
242.16880,497.47,527.15
242.18979,495.97,528.67
242.20987,495.66,526.27
242.22972,497.00,525.20
242.24880,496.53,526.22
242.26992,496.52,527.53
242.28983,494.51,529.98
242.30826,496.92,529.05
242.32989,497.36,529.45
242.34917,496.68,529.92
242.36800,498.94,529.81
242.38938,498.43,527.90
242.40824,499.29,528.09
242.42991,495.73,528.69
242.44831,499.38,525.91
242.46898,496.83,527.38
242.48901,498.13,526.15
242.50983,496.01,525.78
242.52986,498.19,524.95
242.54991,497.89,527.07
242.56977,494.85,528.07
242.58943,493.44,525.83
242.60967,494.40,525.63
242.62991,493.71,525.52
242.64881,493.73,528.69
242.66897,494.72,526.34
242.68865,493.97,529.85
242.70845,497.14,529.80
242.72911,496.59,530.25
242.74916,496.30,529.77
242.77090,496.08,530.46
242.79067,492.39,530.34
242.81084,491.40,529.24
242.82964,493.15,528.40
242.85055,490.42,529.96
242.87085,490.15,530.68
242.89070,489.49,531.53
242.90966,489.79,532.62
242.93015,491.35,530.52
242.94969,490.07,528.67
242.96914,492.32,527.33
242.98913,491.33,526.53
243.00938,488.64,527.80
243.03059,489.39,524.88
243.05023,489.46,524.30
243.07085,489.37,527.80
243.09071,492.49,527.42
243.10927,490.18,527.51
243.13090,491.48,528.73
243.14903,492.18,526.21
243.16985,489.26,525.19
243.18916,487.89,528.23
243.20945,490.17,523.82
243.23002,490.19,524.48
243.25014,488.58,524.21
243.26961,487.34,524.09
243.29022,489.86,522.92
243.30921,489.70,522.76
243.33092,491.72,521.13
243.35085,491.26,521.70
243.36967,491.66,521.19
243.38983,488.49,527.50
243.40978,489.48,539.16
243.43041,492.10,565.86
243.44966,492.67,596.01
243.46959,492.74,628.16
243.49073,492.93,651.00
243.50944,492.29,666.39
243.53035,495.41,680.14
243.55020,494.32,677.24
243.56974,495.58,669.13
243.59029,491.13,658.88
243.61019,492.37,640.45
243.62941,491.17,624.85
243.65098,490.16,613.57
243.66927,491.52,598.17
243.68993,490.28,590.07
243.71059,491.57,578.58
243.73081,489.22,574.71
243.74929,491.73,565.48
243.76985,489.88,559.18
243.79088,486.62,553.86
243.80967,487.19,547.98
243.82983,486.99,544.74
243.84941,489.26,542.74
243.87093,488.23,540.71
243.89090,486.48,540.27
243.91098,487.38,539.71
243.93035,486.65,535.14
243.95062,484.14,535.75
243.97106,481.61,531.47
243.99091,482.97,533.25
244.01044,483.96,531.37
244.03110,482.90,529.93
244.05123,482.77,530.32
244.07119,484.39,532.69
244.09153,484.34,528.17
244.11096,481.64,529.54
244.13155,482.86,533.24
244.15061,480.84,532.52
244.17141,485.03,532.29
244.19061,483.80,519.91
244.21127,482.59,495.28
244.23002,483.42,461.23
244.25061,482.26,438.91
244.27093,479.32,420.22
244.29131,480.51,414.89
244.31194,481.16,413.10
244.33195,477.89,419.11
244.35009,478.18,425.28
244.37075,477.78,434.63
244.39138,479.05,438.70
244.41091,477.86,453.02
244.43029,480.48,460.73
244.45162,480.21,467.38
244.47198,480.62,476.00
244.49062,480.16,480.05
244.51109,478.80,480.54
244.53178,477.61,486.21
244.55141,479.19,491.81
244.57179,478.73,492.44
244.59120,480.11,498.67
244.61149,479.28,500.55
244.63193,478.51,503.34
244.65086,476.75,509.86
244.67187,479.98,511.36
244.69102,482.46,514.34
244.71053,480.77,517.47
244.73048,483.15,516.14
244.75053,482.28,521.13
244.77070,479.31,522.38
244.79025,479.10,520.67
244.81091,479.48,521.89
244.83071,481.28,524.68
244.85077,481.08,525.18
244.87188,478.82,524.00
244.89006,480.95,523.45
244.91130,476.95,525.72
244.93152,479.11,525.47
244.95189,480.68,526.00
244.97151,480.11,524.34
244.99074,478.04,525.98
245.01017,477.19,525.43
245.03140,477.24,527.24
245.05127,476.60,526.81
245.07077,479.45,525.74
245.09192,478.78,526.75
245.11083,477.10,529.35
245.13009,478.75,526.58
245.15104,478.37,529.67
245.17104,481.92,528.79
245.19052,477.56,526.94
245.21162,479.78,528.07
245.23177,476.47,526.38
245.25005,478.07,528.30
245.27040,478.31,525.85
245.29074,479.79,527.89
245.31134,477.28,525.50
245.33184,479.56,528.36
245.35029,479.12,525.65
245.37097,481.12,525.19
245.39173,480.00,525.70
245.41114,476.47,525.12
245.43132,476.24,527.32
245.45159,477.52,524.74
245.47161,479.28,526.13
245.49103,480.60,528.17
245.51053,478.19,529.40
245.53144,478.55,527.21
245.55010,479.94,528.86
245.57011,479.28,527.48
245.59193,476.17,527.00
245.61113,477.75,525.29
245.63102,477.43,528.06
245.65168,476.91,527.04
245.67137,476.71,528.58
245.69150,476.03,525.95
245.71090,476.74,526.50
245.73086,478.16,527.07
245.75150,477.77,528.62
245.77041,478.87,528.41
245.79001,479.93,525.75
245.81191,478.58,524.89
245.83180,480.64,527.11
245.85164,476.26,526.03
245.87019,477.91,524.13
245.89124,477.55,523.60
245.91151,477.75,526.46
245.93109,478.85,526.36
245.95189,480.16,524.11
245.97192,476.61,525.90
245.99059,479.66,526.50
246.01111,479.73,527.63
246.03179,478.95,523.56
246.05015,480.35,527.01
246.07131,477.68,528.10
246.09183,479.84,524.69
246.11042,479.83,527.23
246.13177,478.31,525.75
246.15166,478.72,526.70
246.17064,475.69,524.33
246.19003,477.43,525.86
246.21004,475.07,523.14
246.23116,476.12,524.72
246.25154,476.38,523.35
246.27003,475.93,521.73
246.29093,475.69,522.43
246.31188,475.55,526.07
246.33161,476.54,525.35
246.35153,475.90,526.99
246.37180,478.24,526.29
246.39124,476.88,528.85
246.41052,479.34,524.46
246.43128,478.58,525.64
246.45083,477.04,528.46
246.47084,477.50,526.00
246.49110,479.56,527.31
246.51034,478.91,525.13
246.53195,476.94,526.25
246.55129,478.06,526.96
246.57054,477.64,526.90
246.59175,476.31,524.92
246.61090,476.73,526.17
246.63169,474.81,525.82
246.65142,473.24,528.22
246.67159,473.93,525.91
246.69089,476.43,527.77
246.71081,475.04,525.12
246.73131,475.51,522.15
246.75168,473.60,525.32
246.77161,473.09,527.84
246.79193,472.23,527.12
246.81117,475.63,526.91
246.83168,474.97,526.27
246.85157,476.04,527.80
246.87035,477.82,527.77
246.89184,477.24,526.55
246.91196,475.32,526.31
246.93121,476.15,525.43
246.95008,476.52,525.79
246.97081,476.89,538.27
246.99013,479.60,566.42
247.01170,477.72,596.78
247.03001,477.53,624.07
247.05086,474.86,647.69
247.07001,472.09,664.23
247.09058,473.40,666.15
247.11116,472.18,660.54
247.13114,471.40,651.81
247.15056,470.55,639.26
247.17015,470.09,629.02
247.19221,470.61,616.03
247.21118,469.15,604.10
247.23240,467.37,593.61
247.25264,468.92,586.72
247.27183,469.16,575.37
247.29111,471.60,570.91
247.31127,472.43,562.38
247.33148,474.32,560.26
247.35275,474.79,555.56
247.37292,476.68,550.58
247.39275,477.05,546.21
247.41217,479.17,542.87
247.43231,478.68,537.28
247.45157,480.41,535.69
247.47220,478.58,536.75
247.49197,479.81,534.43
247.51143,480.12,536.13
247.53249,478.19,535.36
247.55131,478.91,536.18
247.57188,479.42,536.65
247.59194,477.15,533.12
247.61144,478.04,526.43
247.63297,477.68,512.30
247.65290,479.76,493.26
247.67273,480.52,468.91
247.69192,482.83,443.86
247.71110,481.77,423.05
247.73214,481.11,404.33
247.75131,481.06,392.64
247.77125,476.00,387.05
247.79176,477.34,385.14
247.81295,475.44,388.83
247.83121,475.44,398.79
247.85198,473.00,408.80
247.87192,476.09,415.54
247.89168,474.84,425.89
247.91215,476.12,436.61
247.93139,472.91,445.13
247.95153,475.18,454.67
247.97202,475.93,462.91
247.99227,473.00,471.77
248.01189,473.88,476.81
248.03169,474.87,484.26
248.05228,475.88,487.88
248.07192,472.98,491.50
248.09199,473.40,499.78
248.11123,474.07,500.09
248.13185,476.06,504.22
248.15134,471.87,510.06
248.17276,476.21,509.65
248.19276,476.23,514.93
248.21236,476.04,515.26
248.23164,477.08,517.87
248.25150,474.84,518.88
248.27277,476.04,521.19
248.29111,475.87,520.49
248.31116,474.35,523.22
248.33285,477.00,523.30
248.35158,477.28,521.49
248.37246,477.60,522.17
248.39196,478.47,523.84
248.41151,475.65,521.77
248.43171,473.89,524.81
248.45125,476.92,524.17
248.47157,477.32,523.74
248.49165,475.96,524.43
248.51197,476.96,521.93
248.53216,475.18,523.42
248.55181,473.60,521.84
248.57131,476.84,521.69
248.59254,474.82,522.23
248.61214,474.32,519.92
248.63159,474.21,520.53
248.65196,474.47,519.40
248.67135,473.55,519.14
248.69115,473.26,520.25
248.71218,473.86,521.91
248.73262,473.85,522.77
248.75252,475.60,523.25
248.77293,474.31,523.90
248.79211,473.85,522.99
248.81295,473.77,523.11
248.83198,475.04,520.30
248.85154,475.72,519.55
248.87179,477.15,521.49
248.89202,476.94,523.07
248.91231,475.37,522.06
248.93183,476.08,523.58
248.95214,475.54,528.41
248.97240,476.04,524.72
248.99280,473.70,529.11
249.01247,475.72,529.31
249.03219,474.69,527.71
249.05238,473.83,526.59
249.07140,472.64,528.47
249.09281,476.37,528.98
249.11184,477.02,524.64
249.13194,478.04,527.72
249.15224,474.38,523.69
249.17243,476.30,524.70
249.19192,478.71,522.94
249.21158,477.24,524.81
249.23251,474.28,522.80
249.25241,473.61,522.31
249.27275,473.76,521.80
249.29236,477.69,522.55
249.31124,477.15,523.03
249.33171,476.42,524.00
249.35254,474.52,522.83
249.37226,477.21,522.15
249.39190,474.39,523.97
249.41288,476.02,522.45
249.43105,473.93,521.86
249.45197,475.98,524.20
249.47192,477.84,522.93
249.49285,475.87,521.28
249.51217,473.38,523.56
249.53272,474.80,519.88
249.55289,474.68,520.37
249.57203,474.76,521.62
249.59133,472.32,520.25
249.61281,474.34,521.44
249.63134,475.05,521.58
249.65215,474.90,518.61
249.67113,475.81,518.98
249.69253,473.22,521.49
249.71191,475.51,518.96
249.73238,476.95,519.76
249.75264,474.98,520.98
249.77291,475.75,517.74
249.79248,476.76,518.03
249.81176,473.87,519.78
249.83139,478.75,518.46
249.85234,475.51,520.97
249.87297,477.33,522.36
249.89273,478.02,520.63
249.91152,477.04,520.95
249.93169,477.55,519.36
249.95172,476.90,521.63
249.97138,478.84,523.00
249.99105,476.94,522.15
250.01294,476.44,519.62
250.03254,476.94,519.64
250.05194,476.33,519.19
250.07282,476.71,516.65
250.09193,478.17,516.96
250.11281,479.10,517.14
250.13261,476.24,525.83
250.15219,477.16,538.98
250.17233,480.80,562.90
250.19137,482.50,594.14
250.21117,481.50,618.64
250.23166,484.01,637.17
250.25252,482.16,641.88
250.27139,480.82,641.67
250.29221,482.12,637.65
250.31232,480.97,630.08
250.33122,479.18,617.61
250.35131,477.03,607.94
250.37130,476.10,598.35
250.39131,479.51,588.75
250.41206,476.90,579.70
250.43231,481.12,570.82
250.45198,480.30,566.73
250.47234,477.82,561.25
250.49276,479.57,552.99
250.51178,478.21,548.03
250.53241,477.23,547.32
250.55140,476.78,542.79
250.57245,476.67,539.85
250.59158,478.21,538.75
250.61300,479.33,537.84
250.63161,479.05,535.65
250.65292,476.38,536.61
250.67102,478.36,532.78
250.69111,476.22,530.99
250.71297,478.86,531.67
250.73160,478.20,532.07
250.75290,480.14,540.16
250.77262,478.95,551.20
250.79254,482.36,552.71
250.81138,483.38,537.06
250.83249,481.10,503.93
250.85113,481.95,471.13
250.87144,479.06,439.66
250.89295,477.21,419.07
250.91298,477.28,410.11
250.93161,477.74,408.98
250.95105,476.31,408.76
250.97271,473.63,412.56
250.99264,471.97,416.20
251.01260,472.41,424.88
251.03294,471.65,430.83
251.05267,472.82,438.80
251.07286,472.64,447.90
251.09224,473.36,458.58
251.11226,476.47,462.97
251.13275,476.00,469.44
251.15242,474.28,475.96
251.17183,476.87,482.18
251.19282,476.52,490.52
251.21111,478.01,491.85
251.23216,476.82,497.13
251.25150,477.92,498.72
251.27102,475.24,504.63
251.29106,474.36,504.34
251.31186,475.72,506.70
251.33269,475.51,509.25
251.35229,477.59,509.42
251.37246,478.10,513.75
251.39194,478.09,516.06
251.41220,478.99,516.78
251.43204,477.23,519.39
251.45225,478.60,519.46
251.47148,479.00,519.50
251.49162,481.31,518.90
251.51267,481.88,522.74
251.53289,480.99,522.16
251.55231,480.08,521.39
251.57173,477.40,521.08
251.59248,480.56,520.44
251.61179,478.26,521.62
251.63282,481.41,519.97
251.65296,479.92,519.75
251.67138,478.64,519.36
251.69247,478.86,518.48
251.71250,478.15,519.08
251.73199,478.56,521.04
251.75103,478.57,522.40
251.77124,480.66,521.53
251.79188,478.67,520.38
251.81119,477.52,522.71
251.83278,479.85,522.33
251.85215,481.39,523.12
251.87224,481.16,522.16
251.89172,480.90,523.04
251.91101,482.80,524.40
251.93218,480.29,521.29
251.95149,480.75,522.01
251.97135,479.63,523.31
251.99117,480.37,523.89
252.01280,482.55,522.46
252.03258,481.84,522.61
252.05261,479.50,525.53
252.07190,482.10,523.19
252.09267,481.58,524.73
252.11100,483.63,524.08
252.13213,481.79,525.18
252.15226,480.69,526.10
252.17279,480.63,523.03
252.19284,481.21,524.56
252.21182,482.41,523.79
252.23202,484.13,523.64
252.25238,484.36,524.96
252.27165,484.08,526.68
252.29238,483.91,526.14
252.31135,482.67,523.46
252.33195,482.62,525.01
252.35212,483.26,524.46
252.37228,482.38,524.52
252.39131,481.26,524.12
252.41155,482.95,523.96
252.43265,480.66,521.44
252.45155,482.04,523.01
252.47102,481.17,523.72
252.49262,482.42,524.60
252.51131,480.80,524.51
252.53103,484.16,521.97
252.55168,484.08,523.41
252.57253,486.40,521.92
252.59267,485.90,525.08
252.61181,488.41,521.91
252.63280,484.83,522.64
252.65280,486.36,523.98
252.67117,486.80,521.83
252.69116,488.10,521.93
252.71229,487.39,522.08
252.73205,487.55,524.45
252.75221,488.19,524.76
252.77111,484.52,525.28
252.79127,484.76,521.06
252.81238,485.80,522.19
252.83111,486.90,523.91
252.85125,487.54,521.74
252.87182,487.12,523.68
252.89120,488.12,525.56
252.91125,486.79,524.43
252.93229,485.95,524.69
252.95286,483.84,523.09
252.97289,486.34,523.25
252.99196,483.59,524.27
253.01192,486.34,524.97
253.03262,485.03,527.01
253.05262,486.52,526.76
253.07220,485.08,525.74
253.09206,484.79,523.75
253.11180,485.52,526.39
253.13249,483.52,524.71
253.15124,485.22,524.16
253.17154,485.89,524.51
253.19270,484.72,523.18
253.21159,486.93,522.46
253.23107,486.37,524.61
253.25101,484.68,524.36
253.27137,485.88,524.14
253.29162,485.82,520.03
253.31273,485.55,522.67
253.33129,484.69,525.01
253.35271,486.17,523.05
253.37273,485.36,524.76
253.39223,486.15,524.56
253.41223,488.34,525.77
253.43271,485.24,527.16
253.45204,486.59,524.60
253.47242,486.03,524.98
253.49144,485.29,527.58
253.51298,485.21,525.68
253.53293,487.16,524.49
253.55207,486.26,526.56
253.57015,484.90,525.71
253.59248,486.04,526.61
253.61285,489.40,526.49
253.63291,489.71,525.88
253.65233,485.42,527.00
253.67176,486.31,525.85
253.69119,487.53,524.20
253.71223,485.28,524.43
253.73250,486.32,524.37
253.75260,486.53,539.48
253.77164,483.14,558.49
253.79277,479.31,585.79
253.81160,477.73,610.15
253.83131,475.87,626.89
253.85193,475.93,636.24
253.87231,474.53,638.25
253.89250,474.32,632.42
253.91209,478.25,627.16
253.93297,478.75,617.82
253.95222,480.28,609.43
253.97127,482.17,604.14
253.99167,483.07,597.68
254.01220,487.20,590.99
254.03150,489.82,585.79
254.05180,492.60,581.21
254.07286,495.84,575.48
254.09160,495.97,573.80
254.11147,498.21,566.52
254.13126,493.98,564.27
254.15112,494.50,560.03
254.17062,494.20,557.82
254.19184,496.20,549.80
254.21285,496.05,546.32
254.23277,496.92,545.11
254.25269,494.91,545.08
254.27208,494.85,542.96
254.29162,492.67,539.01
254.31293,491.50,538.66
254.33223,493.24,538.31
254.35201,496.23,540.02
254.37133,493.20,550.59
254.39153,494.65,560.92
254.41124,497.76,569.02
254.43163,499.90,565.54
254.45221,496.92,541.69
254.47178,494.47,511.24
254.49217,491.37,476.75
254.51138,493.51,446.83
254.53285,495.20,423.52
254.55137,492.97,409.67
254.57165,496.17,400.25
254.59216,493.26,400.17
254.61182,490.76,400.49
254.63235,492.44,404.64
254.65228,489.86,411.08
254.67248,491.62,417.78
254.69108,487.45,428.86
254.71271,489.51,438.06
254.73178,486.77,443.02
254.75182,487.38,452.54
254.77231,489.03,464.53
254.79237,487.06,469.58
254.81151,489.85,476.93
254.83115,488.06,480.99
254.85113,489.56,486.29
254.87182,488.29,491.01
254.89147,490.21,497.17
254.91185,490.66,502.13
254.93287,493.45,507.83
254.95281,493.18,508.54
254.97191,490.33,511.32
254.99210,490.73,513.27
255.01207,492.19,517.18
255.03274,489.75,520.17
255.05138,490.21,520.66
255.07243,489.66,519.95
255.09194,496.79,519.54
255.11262,495.01,524.00
255.13238,495.65,523.75
255.15166,498.52,523.77
255.17129,498.40,522.32
255.19139,498.28,522.46
255.21108,497.19,524.68
255.23241,499.47,523.24
255.25101,499.60,526.40
255.27103,497.51,525.57
255.29249,497.49,524.63
255.31196,495.06,524.35
255.33140,494.63,525.50
255.35289,495.77,524.67
255.37218,495.91,525.58
255.39177,498.78,523.57
255.41273,497.67,524.98
255.43264,497.06,525.44
255.45230,495.62,525.31
255.47110,497.77,526.24
255.49133,497.84,525.55
255.51160,496.12,525.80
255.53239,495.76,526.31
255.55111,496.38,528.39
255.57132,497.30,526.93
255.59142,496.31,529.35
255.61151,494.73,526.49
255.63140,495.12,528.53
255.65249,497.66,529.21
255.67223,494.97,530.09
255.69190,497.44,527.67
255.71272,497.39,526.92
255.73105,495.94,527.55
255.75261,498.14,529.39
255.77278,497.80,525.54
255.79231,495.85,528.06
255.81187,497.67,524.25
255.83107,495.84,525.54
255.85292,496.89,526.14
255.87271,494.51,527.77
255.89124,496.92,527.87
255.91193,496.87,528.96
255.93231,496.44,528.41
255.95211,494.51,526.28
255.97171,496.58,525.18
255.99175,496.48,527.33
256.01186,496.41,527.70
256.03172,496.18,527.91
256.05107,497.36,524.97
256.07253,495.51,526.13
256.09150,494.84,525.25
256.11221,494.01,526.01
256.13264,494.17,527.75
256.15102,497.01,526.62
256.17283,497.49,526.79
256.19129,498.66,523.26
256.21180,499.80,528.20
256.23269,496.48,525.75
256.25165,497.12,526.57
256.27199,495.37,527.65
256.29210,495.26,526.10
256.31171,496.71,524.51
256.33273,498.03,527.19
256.35149,498.03,528.09
256.37188,498.73,528.29
256.39123,499.45,528.12
256.41208,497.27,524.26
256.43233,498.40,525.30
256.45211,496.26,526.98
256.47179,494.72,524.73
256.49156,495.75,525.56
256.51134,496.17,525.37
256.53244,493.92,523.17
256.55262,497.07,522.46
256.57104,497.53,519.77
256.59179,496.87,523.84
256.61242,496.20,523.73
256.63104,495.44,525.96
256.65191,494.16,524.30
256.67217,495.42,528.94
256.69141,498.23,528.80
256.71161,501.32,527.11
256.73199,499.13,525.98
256.75277,502.26,529.33
256.77188,498.45,524.37
256.79184,501.90,525.65
256.81179,501.24,526.09
256.83219,498.98,527.55
256.85110,498.39,527.33
256.87232,497.99,532.06
256.89212,498.22,551.78
256.91224,495.11,574.89
256.93187,495.00,598.41
256.95207,498.50,616.36
256.97212,499.19,624.46
256.99161,502.93,630.08
257.01258,501.83,627.56
257.03200,502.64,622.15
257.05236,503.69,616.06
257.07073,504.91,608.75
257.09209,501.73,602.64
257.11219,501.83,590.14
257.13205,498.72,585.00
257.15292,498.99,576.10
257.17202,500.63,570.99
257.19117,499.10,568.25
257.21286,501.52,560.52
257.23269,499.79,555.81
257.25192,500.62,556.36
257.27213,504.71,560.40
257.29204,504.61,562.85
257.31140,504.69,565.28
257.33294,503.67,566.67
257.35183,504.31,564.56
257.37252,504.73,561.26
257.39255,502.62,559.47
257.41178,503.32,554.35
257.43293,503.57,553.34
257.45192,506.12,548.92
257.47214,505.03,547.78
257.49120,505.13,546.24
257.51138,502.10,542.55
257.53118,501.27,543.82
257.55150,501.97,546.62
257.57171,502.43,534.53
257.59103,497.75,505.68
257.61096,491.75,471.78
257.63191,490.88,445.09
257.65159,488.25,427.85
257.67175,486.08,421.76
257.69192,488.13,419.37
257.71161,487.53,419.71
257.73243,489.60,423.97
257.75088,492.08,433.06
257.77239,490.06,439.26
257.79239,492.75,445.76
257.81144,494.49,454.52
257.83188,494.27,460.70
257.85275,495.89,471.05
257.87182,497.77,477.19
257.89262,496.25,485.45
257.91170,500.30,488.59
257.93124,500.34,493.66
257.95132,499.30,498.09
257.97217,497.95,501.97
257.99233,497.70,509.57
258.01158,497.82,509.84
258.03281,499.81,513.78
258.05298,498.05,513.97
258.07164,498.37,518.71
258.09174,498.99,519.15
258.11149,496.70,518.87
258.13166,496.45,522.10
258.15183,496.42,522.93
258.17104,498.54,526.64
258.19152,500.85,526.95
258.21125,499.25,527.53
258.23295,502.35,525.06
258.25241,501.06,525.08
258.27120,499.61,524.30
258.29220,498.02,527.89
258.31119,500.97,528.31
258.33283,497.22,529.49
258.35290,498.86,525.41
258.37228,501.62,527.49
258.39157,502.08,528.25
258.41236,501.20,529.39
258.43110,504.86,527.15
258.45153,504.54,528.68
258.47163,502.82,527.33
258.49111,504.66,529.00
258.51284,505.39,530.49
258.53231,503.32,530.70
258.55102,503.83,529.28
258.57291,503.04,528.81
258.59127,500.31,530.26
258.61150,501.67,527.57
258.63296,497.08,529.91
258.65269,498.32,529.09
258.67240,498.66,529.31
258.69107,497.23,531.78
258.71295,500.26,528.99
258.73289,498.23,529.48
258.75289,501.06,530.32
258.77105,501.12,528.83
258.79248,501.04,531.81
258.81297,500.17,531.93
258.83198,499.33,530.18
258.85183,497.89,528.78
258.87286,498.96,530.92
258.89181,495.27,529.03
258.91344,496.41,529.81
258.93280,497.04,530.83
258.95346,496.95,532.25
258.97258,497.47,531.76
258.99245,494.61,531.41
259.01155,496.35,530.10
259.03255,494.84,529.22
259.05285,495.68,529.71
259.07311,498.39,528.86
259.09384,495.32,529.32
259.11228,494.61,528.46
259.13369,493.85,530.54
259.15299,496.13,527.32
259.17112,493.56,529.20
259.19254,495.00,529.39
259.21390,497.76,529.27
259.23311,496.41,530.99
259.25242,496.83,531.34
259.27315,495.29,530.01
259.29366,493.70,528.45
259.31299,494.86,530.42
259.33229,494.45,528.70
259.35383,495.83,529.61
259.37349,495.84,532.59
259.39281,496.33,530.01
259.41267,497.47,530.55
259.43237,496.69,530.80
259.45247,494.25,531.67
259.47110,495.83,529.71
259.49318,492.83,531.14
259.51221,492.99,529.91
259.53368,494.36,530.51
259.55207,497.59,531.25
259.57216,495.64,530.18
259.59334,494.05,529.02
259.61359,493.99,528.49
259.63306,495.76,529.56
259.65332,493.14,529.21
259.67271,497.71,529.54
259.69330,496.35,530.43
259.71206,497.60,528.51
259.73311,494.04,529.81
259.75315,493.94,530.04
259.77210,497.44,531.34
259.79219,498.35,529.81
259.81330,496.53,530.41
259.83141,497.45,528.89
259.85329,495.01,528.91
259.87237,496.82,528.76
259.89241,492.23,528.91
259.91434,491.38,528.83
259.93547,491.31,530.18
259.95562,492.36,526.87
259.97462,487.78,527.31
259.99574,487.97,526.08
260.01461,489.94,526.80
260.03585,487.50,526.55
260.05452,490.07,525.17
260.07556,490.56,525.88
260.09502,489.74,522.88
260.11467,489.43,522.90
260.13378,491.39,524.32
260.15438,488.69,522.68
260.17530,488.96,519.26
260.19414,489.14,519.13
260.21541,488.82,518.26
260.23518,487.25,517.88
260.25576,486.89,520.71
260.27588,486.56,530.79
260.29462,485.72,552.65
260.31572,486.01,579.02
260.33353,486.83,596.62
260.35471,487.11,613.67
260.37430,488.74,622.46
260.39587,488.42,622.21
260.41401,488.55,620.44
260.43445,489.43,614.30
260.45527,487.76,611.28
260.47409,487.62,608.69
260.49433,488.40,602.80
260.51489,491.23,595.83
260.53472,488.76,586.92
260.55415,490.08,581.41
260.57369,489.74,572.87
260.59581,487.54,566.50
260.61585,485.75,561.80
260.63581,482.84,556.02
260.65501,484.74,554.54
260.67521,482.91,551.36
260.69564,485.88,548.18
260.71582,482.21,547.23
260.73476,483.64,542.99
260.75411,481.52,541.86
260.77403,481.90,538.96
260.79572,480.29,539.75
260.81552,483.07,534.56
260.83431,484.48,537.23
260.85503,482.65,535.44
260.87535,483.74,532.65
260.89507,483.85,534.14
260.91600,482.77,532.82
260.93506,479.92,530.10
260.95437,482.04,530.46
260.97559,480.06,530.47
260.99459,481.57,530.01
261.01502,480.50,529.34
261.03402,481.21,529.93
261.05469,478.66,530.17
261.07552,480.03,533.29
261.09510,478.07,527.53
261.11579,477.34,510.21
261.13493,475.08,481.31
261.15439,473.62,452.90
261.17502,469.61,430.30
261.19635,468.26,418.42
261.21469,470.89,413.75
261.23574,470.86,415.57
261.25506,469.48,420.01
261.27679,470.90,424.25
261.29677,471.87,431.30
261.31687,474.27,440.25
261.33403,473.23,447.87
261.35501,473.85,457.32
261.37501,472.09,466.88
261.39407,474.83,473.56
261.41625,477.76,480.07
261.43654,477.02,484.58
261.45434,476.73,488.97
261.47518,480.23,495.29
261.49509,477.02,497.05
261.51500,479.77,503.80
261.53630,480.24,507.33
261.55435,480.91,510.17
261.57456,480.62,514.25
261.59435,478.16,512.66
261.61557,479.60,515.75
261.63483,481.33,518.94
261.65481,480.37,517.06
261.67595,478.69,519.44
261.69595,480.87,523.19
261.71651,481.31,520.36
261.73633,480.35,521.12
261.75442,479.58,521.69
261.77518,479.07,522.85
261.79653,476.35,523.19
261.81458,476.34,525.34
261.83698,478.78,521.43
261.85493,475.83,523.86
261.87575,476.31,525.81
261.89539,477.33,525.96
261.91488,475.78,526.58
261.93660,476.22,527.06
261.95582,476.12,523.31
261.97491,478.81,524.69
261.99481,475.74,526.63
262.01654,475.82,525.05
262.03584,476.49,527.26
262.05406,474.80,525.66
262.07695,473.48,525.59
262.09652,475.58,524.46
262.11797,475.82,523.43
262.13699,475.41,526.74
262.15508,473.16,525.01
262.17789,474.37,527.57
262.19606,475.27,523.86
262.21696,476.13,527.44
262.23792,475.85,526.49
262.25679,472.32,527.09
262.27775,474.77,527.36
262.29678,475.09,525.72
262.31722,471.82,524.42
262.33684,473.34,525.86
262.35625,475.71,524.40
262.37756,474.32,524.49
262.39640,472.80,525.16
262.41893,473.50,519.92
262.43640,475.14,522.94
262.45632,476.53,523.05
262.47718,474.30,520.50
262.49717,476.00,522.09
262.51768,474.96,522.36
262.53628,474.65,521.44
262.55712,474.90,518.96
262.57619,476.59,519.85
262.59717,477.28,520.25
262.61894,473.95,522.69
262.63720,475.75,521.77
262.65706,472.67,519.45
262.67654,476.18,522.41
262.69721,474.44,522.72
262.71750,475.85,521.59
262.73784,474.64,520.05
262.75628,475.98,521.09
262.77745,473.93,520.55
262.79708,474.42,518.79
262.81799,475.89,524.07
262.83772,476.91,525.84
262.85725,486.23,532.76
262.87803,509.65,546.96
262.89763,531.43,560.26
262.91799,557.29,576.21
262.93771,573.49,578.02
262.95623,588.08,570.10
262.97612,586.40,553.66
262.99749,582.87,531.66
263.01765,572.01,507.74
263.03616,556.42,487.81
263.05656,540.86,470.09
263.07697,519.95,452.86
263.09633,499.57,441.99
263.11721,476.38,428.97
263.13730,456.32,423.67
263.15608,445.68,424.94
263.17733,435.30,426.00
263.19892,430.28,434.06
263.21761,426.67,444.21
263.23738,431.12,453.19
263.25889,448.67,464.11
263.27718,474.37,479.02
263.29750,497.01,490.19
263.31894,518.90,502.13
263.33979,531.74,510.79
263.35977,535.52,520.87
263.37834,532.42,523.93
263.40021,529.12,529.08
263.41963,523.16,531.10
263.43885,518.59,535.27
263.46001,511.58,542.26
263.48028,500.80,543.78
263.50051,476.50,540.18
263.51982,446.95,534.00
263.53938,412.96,515.83
263.55974,381.37,500.44
263.58020,354.70,482.90
263.60124,332.35,471.27
263.62073,322.22,462.56
263.64193,327.03,458.82
263.66041,334.65,461.16
263.68124,347.35,466.32
263.70137,365.38,471.94
263.72248,384.43,477.71
263.74258,400.91,484.79
