Program Time [s],data 0,data 1
6.73328,468.40,515.07
6.75374,468.44,500.87
6.77346,469.16,488.16
6.79522,468.88,478.83
6.81365,469.83,473.68
6.83418,466.60,473.17
6.85426,466.22,486.88
6.87410,469.07,519.51
6.89467,472.25,560.67
6.91344,476.05,591.74
6.93416,482.05,613.64
6.95455,482.81,622.20
6.97422,481.34,619.87
6.99419,481.90,600.46
7.01371,479.43,568.36
7.03323,476.32,534.65
7.05488,471.11,499.39
7.07501,466.55,467.08
7.09588,468.18,443.06
7.11579,465.90,424.65
7.13424,464.48,411.78
7.15466,464.66,403.22
7.17546,467.40,406.03
7.19675,466.34,420.14
7.21707,472.40,451.71
7.23769,474.97,499.30
7.25623,472.83,544.81
7.27650,466.00,584.42
7.29780,458.19,612.01
7.31725,444.77,623.51
7.33641,431.45,630.59
7.35778,415.93,629.05
7.37687,404.05,620.70
7.39624,398.45,600.71
7.41668,401.97,575.73
7.43761,413.69,545.46
7.45752,425.31,507.92
7.47645,444.04,472.96
7.49676,467.00,440.85
7.51785,483.45,410.03
7.53781,496.20,386.03
7.55806,502.88,370.83
7.57745,509.74,357.97
7.59773,509.76,354.81
7.61941,506.40,353.85
7.63992,504.95,358.77
7.65847,503.64,366.17
7.68100,497.17,369.60
7.69977,495.26,377.07
7.72005,493.95,382.35
7.73951,489.15,392.68
7.75985,487.02,398.81
7.78054,485.81,407.70
7.79966,483.47,413.55
7.82176,481.74,420.25
7.84079,478.84,427.02
7.86026,476.42,433.80
7.88119,474.38,438.47
7.90263,473.87,443.66
7.92210,473.82,448.49
7.94311,469.95,455.86
7.96270,469.71,462.70
7.98251,465.46,465.88
8.00309,465.21,467.31
8.02198,465.82,471.13
8.04294,462.99,472.50
8.06175,464.53,470.01
8.08132,464.01,472.52
8.10164,462.14,475.70
8.12258,460.68,476.02
8.14200,462.93,475.49
8.16263,461.42,477.85
8.18247,461.64,479.96
8.20257,462.71,483.16
8.22158,462.71,482.88
8.24238,465.40,483.50
8.26280,464.81,483.62
8.28289,466.64,482.96
8.30293,463.35,485.01
8.32282,463.23,485.73
8.34176,461.69,485.02
8.36218,462.29,485.64
8.38174,461.59,482.82
8.40170,464.58,484.71
8.42129,463.03,483.65
8.44200,462.67,484.31
8.46227,462.10,484.45
8.48112,464.95,485.90
8.50281,465.57,489.35
8.52132,464.68,494.60
8.54238,464.27,495.80
8.56151,465.52,495.99
8.58145,463.77,492.57
8.60286,461.92,492.67
8.62154,461.46,492.87
8.64146,461.75,490.27
8.66179,462.14,489.59
8.68180,461.67,488.05
8.70243,462.76,487.22
8.72212,463.85,486.88
8.74133,462.30,487.15
8.76101,461.67,498.44
8.78249,465.62,521.06
8.80156,462.46,553.07
8.82207,465.95,568.53
8.84224,465.88,577.14
8.86123,465.09,580.83
8.88141,465.20,579.31
8.90118,463.64,573.56
8.92249,463.04,565.76
8.94264,463.46,561.23
8.96274,462.54,550.94
8.98108,460.49,541.40
9.00170,459.57,534.33
9.02253,462.53,526.87
9.04126,459.98,522.67
9.06126,462.75,519.23
9.08294,459.74,510.45
9.10144,460.32,510.47
9.12251,464.76,506.19
9.14150,464.19,504.08
9.16101,464.30,501.08
9.18291,464.61,500.26
9.20247,467.18,498.33
9.22198,466.40,498.81
9.24288,464.73,495.44
9.26371,464.69,493.87
9.28332,463.65,492.74
9.30225,462.17,492.58
9.32252,464.03,488.91
9.34430,463.11,487.33
9.36428,460.19,484.73
9.38583,459.40,486.67
9.40576,458.49,483.31
9.42596,459.27,486.10
9.44440,458.82,481.71
9.46493,457.80,482.90
9.48467,455.94,482.34
9.50513,457.57,480.61
9.52516,457.79,478.27
9.54639,456.18,479.49
9.56801,456.97,477.76
9.58759,456.37,479.02
9.60648,454.66,479.03
9.62745,456.95,478.96
9.64718,456.61,477.95
9.66617,456.04,477.52
9.68684,456.01,478.82
9.70650,455.93,478.61
9.72677,456.86,480.83
9.74624,454.91,480.18
9.76678,454.45,484.31
9.78707,456.51,472.96
9.80630,453.19,448.47
9.82666,451.57,422.13
9.84669,450.04,403.57
9.86829,450.35,392.50
9.88841,447.97,388.43
9.90744,452.10,385.40
9.92953,453.13,386.90
9.94919,451.86,392.90
9.96998,453.42,400.93
9.98920,456.88,408.19
10.00974,458.46,414.75
10.02959,456.74,422.95
10.05089,458.79,427.54
10.07011,458.72,436.43
10.09023,462.42,442.78
10.11179,460.19,446.17
10.13079,465.99,452.23
10.15047,464.95,456.51
10.17004,467.16,460.28
10.19077,467.31,461.93
10.21114,467.45,463.98
10.23171,468.91,463.17
10.25178,467.98,469.51
10.27155,470.16,470.65
10.29126,469.95,473.59
10.31176,469.56,473.45
10.33104,466.77,475.28
10.35068,470.03,477.56
10.37204,471.72,479.15
10.39084,471.72,480.29
10.41216,470.52,480.79
10.43195,472.66,482.52
10.45130,472.10,485.22
10.47188,471.11,484.80
10.49230,471.98,485.53
10.51127,473.55,486.43
10.53124,474.29,485.23
10.55268,471.76,486.49
10.57268,469.64,485.75
10.59282,472.51,484.27
10.61279,470.95,486.09
10.63227,468.55,485.87
10.65196,471.29,488.11
10.67141,469.01,484.84
10.69246,470.82,485.40
10.71127,471.16,484.71
10.73155,472.43,484.20
10.75131,469.25,485.29
10.77159,470.54,482.16
10.79126,470.01,480.77
10.81279,471.70,484.71
10.83174,472.86,483.15
10.85272,471.14,482.32
10.87148,473.12,486.39
10.89192,473.34,483.36
10.91248,472.86,484.22
10.93141,471.04,483.89
10.95191,473.96,482.51
10.97186,473.45,478.62
10.99298,472.02,481.91
11.01142,472.49,481.15
11.03190,472.62,482.91
11.05267,473.95,480.76
11.07161,473.16,481.34
11.09212,471.55,482.81
11.11221,474.09,481.28
11.13425,473.57,484.32
11.15438,471.35,483.97
11.17393,470.99,485.18
11.19515,472.61,485.16
11.21413,472.43,485.23
11.23591,469.73,487.29
11.25427,471.27,486.34
11.27484,470.14,486.74
11.29597,469.37,486.48
11.31567,471.31,485.08
11.33444,471.65,486.67
11.35539,470.94,486.33
11.37474,470.72,485.56
11.39573,471.76,488.57
11.41448,470.15,487.31
11.43555,469.62,489.23
11.45411,471.82,486.60
11.47431,469.68,485.88
11.49513,470.55,486.83
11.51411,469.78,486.36
11.53431,469.61,485.42
11.55417,471.91,484.15
11.57436,471.98,486.00
11.59524,470.40,483.51
11.61513,470.33,484.80
11.63440,469.49,482.81
11.65495,472.65,484.39
11.67497,470.11,485.08
11.69527,473.13,484.88
11.71481,472.04,487.77
11.73548,469.89,489.44
11.75547,470.64,486.29
11.77587,471.44,488.31
11.79464,470.85,487.39
11.81598,468.82,484.85
11.83400,468.69,486.46
11.85592,471.23,486.52
11.87594,469.84,488.50
11.89498,470.39,489.03
11.91507,469.25,489.15
11.93522,472.75,485.23
11.95564,472.01,484.85
11.97509,471.45,485.99
11.99513,471.48,498.27
12.01431,474.21,520.47
12.03485,475.48,545.43
12.05520,477.26,567.56
12.07541,480.90,593.31
12.10453,478.49,602.38
12.11541,481.26,604.10
12.13518,478.46,608.19
12.15501,478.76,599.15
12.17613,476.57,594.02
12.19589,475.87,579.00
12.21684,476.20,572.18
12.23527,479.84,566.16
12.25629,477.53,554.33
12.27528,478.49,543.56
12.29675,477.66,537.10
12.31571,475.37,527.71
12.33505,477.48,524.87
12.35557,474.02,518.35
12.37588,477.13,514.94
12.39664,474.26,507.65
12.41622,474.53,506.25
12.43634,470.58,500.64
12.45713,472.71,498.46
12.47725,472.62,495.51
12.49857,471.30,493.50
12.51719,472.18,493.87
12.53876,468.88,489.57
12.55748,469.66,490.70
12.57851,468.74,488.57
12.59792,470.16,491.34
12.61772,467.80,490.79
12.63924,466.72,491.25
12.65873,469.33,488.75
12.67926,468.84,491.61
12.69876,466.65,487.05
12.71806,466.53,489.36
12.73943,465.50,485.44
12.75840,464.34,485.79
12.77908,464.44,485.56
12.80017,462.05,487.55
12.82067,461.29,486.10
12.83949,460.08,485.97
12.85993,458.03,483.82
12.87902,458.71,488.37
12.89951,458.15,478.51
12.91941,454.65,456.40
12.93983,448.55,426.47
12.95971,446.29,401.78
12.98109,444.93,384.84
12.99989,444.21,373.84
13.02070,445.52,369.65
13.03940,444.95,369.31
13.06075,446.46,375.38
13.07912,449.21,379.84
13.10091,450.76,386.70
13.12030,449.19,393.93
13.14055,454.14,402.01
13.15990,452.05,413.10
13.18079,452.39,419.63
13.20011,453.72,427.86
13.22039,454.37,434.66
13.24022,456.80,439.90
13.25974,457.98,446.46
13.28008,462.52,450.14
13.30048,460.06,454.78
13.31935,464.07,461.36
13.34057,464.13,465.36
13.35950,463.83,466.80
13.37906,460.53,467.04
13.40073,462.47,470.28
13.42034,459.81,472.25
13.43974,462.65,471.27
13.46063,463.11,476.57
13.48052,462.07,478.23
13.49902,459.17,480.27
13.51993,462.14,478.44
13.54071,458.65,479.68
13.56016,461.12,479.42
13.57910,457.35,477.34
13.59968,458.46,477.36
13.61995,458.23,481.74
13.64068,458.60,481.54
13.66050,457.73,479.81
13.67900,457.04,480.24
13.69936,456.17,480.85
13.71960,459.06,480.13
13.74075,459.14,480.84
13.75960,458.36,479.86
13.77906,461.96,479.43
13.79977,457.76,479.44
13.81919,459.49,481.14
13.84071,462.09,480.45
13.86068,461.47,481.06
13.88047,462.70,482.74
13.90095,460.90,486.07
13.91973,459.26,485.54
13.93900,459.14,490.38
13.96006,461.80,490.46
13.98064,459.78,488.79
13.99948,459.57,487.03
14.02043,460.17,487.02
14.03966,463.26,484.44
14.06043,463.83,485.21
14.07977,459.79,483.52
14.09910,461.79,481.58
14.12082,462.87,479.94
14.13977,459.64,480.29
14.15905,461.59,481.59
14.17952,458.62,478.81
14.19936,460.99,477.86
14.21937,457.63,480.03
14.24058,459.93,477.10
14.26008,459.69,477.39
14.28087,457.48,478.99
14.30083,458.60,477.62
14.31996,459.42,478.96
14.34079,458.00,477.27
14.35946,460.46,476.04
14.38100,458.19,478.36
14.40059,457.64,479.86
14.41961,455.52,481.71
14.44012,456.69,479.16
14.45904,454.79,480.89
14.47933,454.28,480.07
14.49972,455.74,483.37
14.52081,455.25,479.91
14.54031,454.38,480.72
14.55983,455.93,482.57
14.57981,457.39,481.19
14.59917,455.88,480.70
14.61966,454.25,481.68
14.63978,455.20,479.19
14.66072,455.21,479.11
14.68092,456.72,480.74
14.70072,457.05,480.73
14.72187,456.50,481.72
14.74061,457.92,481.78
14.76147,455.22,480.26
14.78170,456.56,477.36
14.80013,458.69,480.14
14.81995,455.83,475.73
14.83992,456.74,475.75
14.86078,458.24,478.27
14.88004,456.34,477.72
14.90135,455.58,475.95
14.92055,456.73,476.27
14.94113,452.97,475.33
14.96064,455.86,476.34
14.98159,455.49,479.11
15.00059,454.29,477.81
15.02187,454.60,478.75
15.04125,453.37,476.90
15.06167,456.17,478.17
15.08193,453.92,476.31
15.10030,455.43,479.38
15.11995,456.22,477.20
15.14072,455.64,478.31
15.16206,456.20,478.53
15.18035,456.08,476.97
15.20004,457.16,477.16
15.22207,453.25,476.64
15.24083,453.60,476.81
15.26068,453.51,478.64
15.28079,454.01,477.83
15.30012,453.65,478.88
15.32059,454.24,476.17
15.34047,456.90,478.88
15.35991,453.75,477.96
15.38123,455.21,477.55
15.40049,453.51,478.20
15.42140,455.24,475.75
15.44105,455.54,476.64
15.45999,455.04,476.62
15.48059,453.32,478.24
15.50030,454.95,475.62
15.52047,455.51,477.05
15.54093,454.58,474.83
15.56039,454.39,474.59
15.58136,456.46,477.80
15.60126,455.81,477.58
15.62174,454.89,476.93
15.64178,455.13,477.35
15.66010,457.50,479.38
15.68010,457.57,479.01
15.69995,455.41,477.36
15.72049,454.90,479.44
15.74188,455.07,479.20
15.76076,458.32,477.64
15.78145,457.33,478.69
15.80146,457.30,478.35
15.82108,454.98,476.82
15.84113,458.31,478.66
15.86180,456.46,476.50
15.87997,457.34,475.58
15.90152,456.54,478.34
15.92103,455.96,478.93
15.94123,457.53,478.07
15.96099,455.88,477.61
15.97974,456.08,479.10
16.00099,457.87,477.22
16.02089,458.97,478.01
16.04088,457.21,479.37
16.06070,455.41,478.44
16.08050,458.36,476.71
16.10036,456.78,477.46
16.12077,455.39,477.51
16.14156,453.60,474.97
16.16159,453.12,471.66
16.18094,456.13,484.11
16.20228,454.43,503.40
16.22249,456.47,536.54
16.24200,457.39,562.38
16.26126,456.92,579.85
16.28144,457.55,585.68
16.30227,457.29,584.67
16.32097,457.17,582.73
16.34246,460.40,577.13
16.36269,461.87,571.73
16.38172,464.71,561.28
16.40204,463.31,555.23
16.42135,463.55,542.27
16.44198,462.22,535.43
16.46103,462.02,529.54
16.48361,460.85,523.61
16.50256,462.84,519.35
16.52251,463.25,510.67
16.54226,462.50,505.91
16.56292,463.45,504.91
16.58191,462.83,501.78
16.60295,464.57,496.83
16.62288,464.18,498.82
16.64266,463.69,493.52
16.66337,464.82,490.57
16.68260,466.32,488.01
16.70379,465.57,485.49
16.72331,462.76,484.54
16.74361,461.93,485.70
16.76197,463.77,486.92
16.78329,460.43,487.75
16.80306,459.86,486.03
16.82204,460.68,487.52
16.84194,460.85,484.04
16.86233,462.52,484.77
16.88372,462.14,484.59
16.90226,459.41,482.48
16.92298,460.79,482.04
16.94295,462.93,481.87
16.96257,462.54,480.70
16.98368,461.47,480.81
17.00271,462.86,481.19
17.02255,461.55,480.25
17.04325,461.41,481.32
17.06402,463.13,480.78
17.08346,463.76,483.31
17.10239,463.64,481.39
17.12193,461.37,483.39
17.14241,459.00,473.60
17.16240,455.52,452.92
17.18260,455.12,426.18
17.20235,454.78,398.50
17.22269,453.31,380.13
17.24257,454.09,369.19
17.26211,454.24,367.67
17.28305,453.44,370.14
17.30341,453.41,372.05
17.32324,455.67,380.64
17.34252,458.25,390.29
17.36241,455.89,399.13
17.38191,457.39,406.82
17.40270,457.30,415.31
17.42224,459.84,422.59
17.44298,460.61,430.25
17.46388,461.12,435.41
17.48408,462.22,443.26
17.50313,463.05,447.11
17.52421,466.19,452.81
17.54359,464.65,455.80
17.56337,464.52,463.49
17.58416,463.86,464.81
17.60324,466.42,468.43
17.62294,463.97,470.48
17.64355,463.94,469.31
17.66321,464.39,471.63
17.68262,467.47,475.20
17.70380,464.42,473.09
17.72334,467.35,476.60
17.74409,465.24,475.34
17.76379,466.73,479.64
17.78379,466.44,480.12
17.80412,467.57,479.23
17.82438,466.76,477.97
17.84321,467.34,480.61
17.86294,467.65,481.67
17.88317,465.45,478.32
17.90450,465.57,479.39
17.92285,465.48,481.30
17.94300,464.38,480.56
17.96481,466.11,477.61
17.98344,465.91,477.98
18.00368,466.69,481.55
18.02456,467.79,480.27
18.04408,464.72,480.64
18.06388,464.53,481.12
18.08487,465.48,481.19
18.10404,468.82,479.71
18.12499,467.26,480.32
18.14524,465.52,480.62
18.16509,466.26,483.85
18.18564,470.03,481.58
18.20555,470.33,482.38
18.22668,469.96,482.33
18.24549,472.64,481.84
18.26635,472.42,481.38
18.28623,472.84,480.87
18.30609,470.65,480.45
18.32689,473.23,481.50
18.34650,474.25,482.53
18.36649,471.78,481.34
18.38659,474.11,480.99
18.40657,472.58,480.16
18.42633,472.45,483.86
18.44692,472.86,482.00
18.46629,475.60,481.87
18.48720,474.10,482.09
18.50601,475.83,481.51
18.52688,475.43,483.51
18.54646,474.35,484.91
18.56726,476.63,485.09
18.58755,477.55,484.14
18.60671,477.61,484.28
18.62601,476.27,482.31
18.64736,477.48,482.48
18.66675,477.37,484.59
18.68658,477.97,482.70
18.70765,475.31,482.29
18.72668,475.51,483.33
18.74735,475.88,483.36
18.76734,472.37,481.64
18.78750,475.06,486.59
18.80605,474.02,486.50
18.82671,474.95,482.85
18.84740,472.74,483.84
18.86606,475.29,485.61
18.88657,475.91,483.19
18.90712,475.81,485.25
18.92739,473.97,485.29
18.94769,473.01,486.08
18.96677,474.27,485.13
18.98762,474.31,482.02
19.00609,474.17,482.60
19.02644,473.97,481.59
19.04666,474.98,483.03
19.06632,474.83,478.84
19.08690,476.44,479.55
19.10607,473.97,480.22
19.12747,474.55,478.23
19.14664,475.19,477.27
19.16642,474.80,476.98
19.18619,473.15,479.74
19.20587,474.09,479.59
19.22596,475.22,479.95
19.24780,474.02,478.07
19.26649,473.53,480.43
19.28611,471.27,480.58
19.30633,473.55,481.38
19.32590,472.73,480.47
19.34619,472.65,481.85
19.36658,473.45,487.24
19.38706,474.26,498.66
19.40736,476.62,522.51
19.42605,481.09,561.83
19.44756,483.94,602.25
19.46761,485.01,633.36
19.48697,485.70,648.22
19.50648,485.81,647.16
19.52633,487.36,628.93
19.54743,484.31,614.91
19.56699,481.89,597.72
19.58796,484.17,576.73
19.60775,479.71,565.43
19.62861,478.55,552.03
19.64779,479.14,542.98
19.66938,477.75,534.84
19.69022,474.32,524.22
19.70995,476.49,520.42
19.73017,474.05,513.12
19.74922,473.02,508.21
19.77088,475.83,508.46
19.79047,473.70,506.45
19.81035,475.61,507.13
19.83062,477.58,502.68
19.84970,476.35,501.26
19.87053,475.86,499.14
19.89029,476.57,499.36
19.91054,473.84,498.78
19.92974,476.10,496.24
19.94896,474.95,496.59
19.97024,475.00,493.48
19.98977,475.49,494.75
20.00931,473.41,493.00
20.03030,472.79,491.58
20.05023,474.42,495.40
20.07068,473.70,499.98
20.08893,470.82,503.05
20.10872,471.21,501.53
20.13057,470.04,494.46
20.14997,463.92,471.71
20.16942,461.28,442.43
20.19063,463.68,420.27
20.20978,460.19,395.58
20.23009,462.71,378.45
20.25056,463.65,370.30
20.27036,463.90,362.26
20.29164,462.23,362.72
20.31143,463.56,364.74
20.33259,461.13,367.67
20.35090,462.33,373.51
20.37242,462.74,379.83
20.39196,460.75,388.28
20.41255,465.68,399.15
20.43128,467.45,408.23
20.45169,469.90,414.96
20.47087,470.61,427.03
20.49196,476.63,447.22
20.51203,476.88,479.36
20.53118,482.37,521.63
20.55282,486.96,575.03
20.57479,485.95,625.71
20.59295,486.40,663.21
20.61325,483.14,684.50
20.63394,476.20,691.60
20.65427,471.42,676.80
20.67334,462.34,643.69
20.69352,462.28,604.28
20.71434,459.45,555.31
20.73492,458.89,509.35
20.75476,461.18,472.43
20.77510,458.28,440.54
20.79565,459.29,417.11
20.81574,454.93,399.49
20.83441,455.97,387.92
20.85567,456.41,382.24
20.87481,455.16,383.35
20.89497,455.70,380.49
20.91589,453.48,383.97
20.93436,453.12,387.28
20.95481,453.12,395.50
20.97456,455.87,400.62
20.99496,454.53,406.81
21.01446,451.20,415.43
21.03470,454.65,421.99
21.05375,453.84,430.26
21.07454,452.87,433.12
21.09416,454.19,441.77
21.11485,456.75,445.54
21.13470,453.04,450.89
21.15378,452.37,454.45
21.17410,454.75,456.88
21.19479,453.92,462.85
21.21545,450.78,466.87
21.23569,449.92,465.76
21.25513,452.15,469.32
21.27524,452.88,469.12
21.29646,453.58,471.56
21.31586,451.17,474.97
21.33653,454.17,472.47
21.35481,453.62,476.25
21.37534,454.96,472.99
21.39599,454.94,475.87
21.41610,455.59,474.82
21.43580,453.83,474.46
21.45684,453.30,474.80
21.47606,454.85,472.31
21.49733,454.17,474.82
21.51606,456.55,473.19
21.53829,454.67,476.39
21.55707,454.93,476.59
21.57762,455.71,473.20
21.59864,454.79,476.53
21.61846,457.27,475.78
21.63836,454.11,477.25
21.65903,457.06,480.00
21.67914,458.95,479.47
21.69931,456.54,477.73
21.71989,459.64,481.46
21.74071,458.52,480.36
21.76019,459.52,481.71
21.77927,458.89,479.82
21.80064,459.73,482.53
21.81947,458.75,481.40
21.83877,459.77,480.80
21.85896,460.13,481.92
21.87979,458.94,480.18
21.89953,459.98,482.88
21.92059,460.07,483.25
21.93988,460.96,481.68
21.96138,463.25,481.33
21.98061,462.39,480.76
21.99988,462.80,483.44
22.02039,462.50,480.96
22.04014,465.86,480.71
22.06051,464.82,480.03
22.08157,462.03,480.93
22.10041,463.03,480.40
22.12112,464.99,480.45
22.14154,463.81,479.09
22.16138,465.83,478.68
22.17984,464.35,478.00
22.20057,462.52,477.67
22.22156,462.21,478.02
22.24132,462.69,477.11
22.26133,463.63,478.35
22.28246,465.20,478.55
22.30123,465.17,475.44
22.32171,466.05,478.44
22.34223,463.70,476.06
22.36296,465.44,476.84
22.38209,465.49,477.11
22.40229,468.08,478.26
22.42206,469.53,479.44
22.44248,469.56,480.61
22.46346,467.03,480.75
22.48191,466.30,479.55
22.50213,468.83,477.89
22.52239,469.11,480.70
22.54253,467.99,479.36
22.56276,467.48,480.03
22.58365,468.47,480.61
22.60174,468.28,481.61
22.62252,468.78,482.55
22.64344,469.87,483.66
22.66340,469.52,482.15
22.68218,470.15,483.60
22.70195,469.13,482.43
22.72181,467.73,484.15
22.74202,471.26,481.84
22.76280,468.87,480.82
22.78179,470.22,480.45
22.80361,470.75,482.64
22.82295,471.24,481.16
22.84199,474.28,479.36
22.86308,473.57,483.27
22.88352,472.19,480.60
22.90363,469.42,482.83
22.92171,468.61,483.92
22.94301,468.99,479.86
22.96199,471.14,481.51
22.98209,471.79,481.95
23.00358,470.71,480.63
23.02227,473.96,481.15
23.04280,471.36,479.78
23.06338,475.74,480.90
23.08243,471.45,481.31
23.10163,473.51,477.96
23.12186,471.29,480.64
23.14345,471.94,479.99
23.16342,475.03,478.55
23.18322,472.82,480.45
23.20378,472.79,478.17
23.22413,472.65,478.59
23.24328,472.69,480.01
23.26494,472.35,480.64
23.28446,477.03,482.58
23.30531,474.36,481.72
23.32385,473.29,483.60
23.34487,472.42,481.39
23.36526,471.81,483.67
23.38544,472.88,480.91
23.40571,473.19,481.91
23.42476,472.70,484.99
23.44493,474.05,495.20
23.46374,474.94,514.15
23.48542,479.94,543.69
23.50523,480.20,566.89
23.52464,483.29,586.23
23.54363,483.59,595.35
23.56434,485.53,597.52
23.58414,483.58,595.31
23.60371,483.31,589.20
23.62403,485.49,583.49
23.64430,483.41,570.05
23.66478,482.67,561.53
23.68530,480.26,553.00
23.70518,483.25,545.43
23.72438,478.32,536.78
23.74446,478.39,530.66
23.76501,482.36,523.20
23.78402,478.73,519.20
23.80395,476.95,513.71
23.82505,477.92,512.47
23.84486,475.80,508.46
23.86409,479.58,504.48
23.88462,477.44,505.13
23.90516,476.41,499.55
23.92559,476.81,500.30
23.94381,475.38,497.50
23.96565,478.08,498.29
23.98426,476.06,496.97
24.00458,478.51,496.07
24.02516,475.86,495.37
24.04558,477.38,494.89
24.06565,474.52,491.54
24.08547,479.00,493.51
24.10464,476.63,488.46
24.12564,479.20,490.91
24.14405,478.49,487.86
24.16434,476.66,488.06
24.18413,478.64,486.57
24.20460,476.61,488.59
24.22379,474.45,487.68
24.24520,476.65,486.63
24.26451,474.02,486.15
24.28372,476.84,486.50
24.30548,476.47,487.04
24.32452,473.65,487.14
24.34519,476.56,484.22
24.36493,474.24,485.80
24.38470,474.35,482.87
24.40418,473.43,484.73
24.42423,475.43,486.62
24.44546,474.80,485.43
24.46401,475.11,487.42
24.48499,473.31,485.90
24.50441,474.71,487.58
24.52462,474.68,487.56
24.54561,474.33,490.17
24.56374,474.21,491.33
24.58523,473.36,490.71
24.60383,474.17,492.82
24.62423,474.60,486.56
24.64441,472.68,467.54
24.66544,467.18,433.70
24.68552,463.19,407.92
24.70483,463.52,388.87
24.72642,462.75,380.28
24.74700,462.63,376.91
24.76687,463.62,379.64
24.78603,461.37,386.22
24.80560,459.97,394.14
24.82647,460.70,401.49
24.84717,462.34,408.77
24.86849,462.88,420.83
24.88722,463.66,424.19
24.90782,464.87,431.84
24.92697,469.25,440.27
24.94817,468.11,446.77
24.96834,468.38,451.01
24.98751,470.00,453.13
25.00851,469.79,458.93
25.02683,470.32,464.06
25.04805,472.33,466.57
25.06869,472.12,470.01
25.08790,471.82,472.82
25.10715,471.68,474.83
25.12681,470.02,478.28
25.14809,469.12,481.46
25.16716,469.21,481.46
25.18869,469.85,482.36
25.20830,472.35,483.07
25.22826,471.68,486.91
25.24724,467.94,487.01
25.26845,468.75,485.54
25.28792,470.54,486.14
25.30927,471.32,487.76
25.32847,468.37,487.63
25.34972,470.02,486.13
25.36783,467.17,485.87
25.38865,468.64,483.57
25.40775,470.20,486.11
25.42774,467.91,488.20
25.44780,466.57,485.30
25.46859,466.34,486.53
25.48828,467.10,483.95
25.50894,466.73,485.86
25.52850,464.11,489.30
25.54851,464.73,487.05
25.56820,466.59,484.29
25.58760,464.88,485.65
25.60767,465.26,485.56
25.62783,467.59,485.69
25.64840,465.02,485.93
25.66893,464.52,483.95
25.68774,466.62,483.94
25.70813,464.44,484.62
25.72930,465.84,482.82
25.74781,466.56,486.19
25.76934,466.54,484.91
25.78863,464.80,482.52
25.80828,466.30,484.73
25.82946,467.90,483.66
25.84915,465.10,484.05
25.86800,465.62,485.02
25.88882,467.32,485.58
25.90945,464.67,485.15
25.92897,461.84,483.28
25.94985,464.30,484.02
25.96993,463.27,483.57
25.98978,462.15,485.95
26.00897,462.88,483.13
26.02960,463.43,482.55
26.05002,459.54,486.77
26.06901,459.98,488.65
26.08958,460.83,486.26
26.11042,461.45,484.35
26.12898,460.07,486.90
26.14989,462.13,485.37
26.16884,460.39,486.70
26.18889,459.65,487.34
26.20901,462.91,487.62
26.22965,462.42,485.24
26.24953,461.06,486.59
26.27067,461.98,488.05
26.29047,461.37,487.05
26.30856,461.01,486.45
26.32938,463.29,487.97
26.34891,462.38,486.36
26.36996,461.88,486.18
26.38931,463.19,485.72
26.40940,462.14,485.01
26.43037,458.95,486.81
26.45059,460.78,484.58
26.46889,461.20,482.75
26.48913,461.79,486.03
26.50910,458.88,484.12
26.52876,458.50,483.14
26.54992,460.81,484.19
26.56962,460.21,486.57
26.58939,461.05,485.01
26.60884,458.94,485.00
26.62994,459.34,487.00
26.64869,460.73,485.47
26.67020,461.49,484.40
26.68874,460.73,485.47
26.70879,460.80,485.79
26.72915,458.47,481.03
26.74865,458.44,483.06
26.76947,458.25,481.59
26.78996,460.25,482.63
26.81034,458.51,482.25
26.82898,455.86,481.82
26.84890,457.46,483.70
26.86870,455.48,481.51
26.88865,456.52,483.48
26.90872,456.39,480.77
26.93026,456.74,482.79
26.94959,458.85,481.72
26.96955,456.39,481.63
26.98979,456.72,478.52
27.01078,456.77,480.47
27.03147,457.23,479.06
27.04965,457.38,478.78
27.07142,456.17,479.44
27.09018,457.82,481.31
27.11166,457.85,480.16
27.13005,455.51,482.23
27.15121,454.89,482.16
27.17027,455.92,482.48
27.19055,454.57,482.93
27.21096,454.75,483.25
27.23091,456.68,483.86
27.25148,454.78,482.95
27.27030,453.05,483.69
27.29006,457.04,482.73
27.30958,454.41,481.73
27.33067,454.53,484.11
27.35093,455.77,483.16
27.36986,453.68,482.97
27.39125,454.15,485.64
27.41097,454.82,483.89
27.43007,457.10,482.39
27.45135,456.50,480.51
27.47002,455.94,483.59
27.49044,455.75,480.28
27.51154,454.79,482.84
27.53061,455.61,479.24
27.55138,454.67,481.66
27.57155,454.79,481.87
27.59222,453.17,481.64
27.61102,455.38,481.02
27.63212,454.54,478.76
27.65137,454.09,480.70
27.67107,453.87,480.37
27.69240,452.70,481.19
27.71090,455.17,481.66
27.73293,454.85,479.26
27.75334,454.37,478.34
27.77261,454.24,477.72
27.79359,457.65,480.38
27.81256,457.50,479.62
27.83350,454.66,477.15
27.85338,454.86,480.63
27.87286,458.23,479.02
27.89332,458.70,481.29
27.91236,456.14,480.60
27.93282,454.58,479.81
27.95185,454.16,478.51
27.97187,457.33,479.36
27.99166,454.81,475.53
28.01364,454.43,475.04
28.03342,457.06,476.77
28.05329,456.04,475.61
28.07354,458.32,478.52
28.09230,457.16,477.42
28.11323,455.21,476.16
28.13304,456.70,478.15
28.15168,455.36,476.95
28.17219,457.49,478.69
28.19311,454.31,479.76
28.21231,455.70,485.61
28.23317,456.26,494.75
28.25344,455.53,512.45
28.27345,456.21,530.11
28.29277,455.60,546.79
28.31343,456.67,566.40
28.33280,459.01,575.10
28.35241,460.59,582.23
28.37310,460.91,584.31
28.39215,463.63,578.05
28.41322,462.45,572.32
28.43203,464.12,565.93
28.45251,462.33,558.62
28.47289,463.98,551.63
28.49249,465.43,542.71
28.51350,466.52,530.94
28.53200,466.49,523.67
28.55298,467.60,520.09
28.57309,467.82,514.98
28.59271,465.73,511.31
28.61289,465.63,508.61
28.63262,463.55,506.35
28.65336,462.94,502.13
28.67281,462.07,493.81
28.69316,459.39,492.52
28.71281,461.24,485.42
28.73201,457.67,488.13
28.75292,458.89,486.59
28.77215,459.32,487.95
28.79196,460.00,484.48
28.81310,458.12,483.21
28.83298,459.23,483.70
28.85234,458.49,482.86
28.87363,457.36,483.56
28.89325,461.14,483.10
28.91158,456.96,484.72
28.93314,459.50,482.30
28.95335,457.40,484.46
28.97253,460.51,480.53
28.99175,456.26,482.50
29.01314,458.35,482.55
29.03229,455.28,480.35
29.05189,457.08,482.60
29.07282,455.27,482.98
29.09160,456.80,478.54
29.11312,456.62,482.56
29.13184,455.13,481.52
29.15222,458.63,492.21
29.17286,462.42,512.37
29.19356,464.82,529.80
29.21219,464.42,536.27
29.23324,462.86,530.60
29.25205,460.54,498.31
29.27256,459.35,465.01
29.29165,456.52,431.45
29.31357,451.31,404.44
29.33250,450.36,389.56
29.35212,449.38,382.10
29.37315,449.72,379.78
29.39253,447.69,378.83
29.41329,449.06,381.07
29.43265,453.21,382.81
29.45273,450.70,384.78
29.47283,451.14,385.99
29.49177,452.84,390.55
29.51247,455.08,397.64
29.53236,452.10,401.68
29.55246,454.71,405.68
29.57347,456.25,412.75
29.59177,455.15,420.47
29.61202,454.34,427.84
29.63180,455.64,431.93
29.65178,454.30,438.82
29.67350,455.40,445.07
29.69345,453.85,452.39
29.71352,453.88,452.97
29.73348,456.89,458.30
29.75309,457.21,459.68
29.77335,458.36,464.31
29.79417,460.85,466.75
29.81251,461.79,469.84
29.83454,459.75,470.02
29.85250,459.14,472.60
29.87335,460.83,471.58
29.89317,462.36,475.03
29.91317,462.28,474.42
29.93254,461.41,474.33
29.95331,461.91,475.82
29.97395,458.71,477.54
29.99282,460.13,474.99
30.01295,460.02,476.38
30.03333,462.19,476.07
30.05422,464.08,476.20
30.07420,462.99,476.05
30.09328,463.96,475.78
30.11365,464.32,474.05
30.13341,463.87,476.75
30.15426,462.32,475.99
30.17407,464.50,475.38
30.19292,462.83,474.27
30.21344,464.09,474.72
30.23439,460.73,475.61
30.25282,463.45,472.36
30.27298,461.32,473.90
30.29353,466.11,472.96
30.31421,463.52,475.59
30.33367,464.88,474.31
30.35404,464.63,477.64
30.37295,461.21,477.26
30.39358,462.72,476.58
30.41385,463.56,479.16
30.43381,465.99,480.86
30.45375,461.79,479.17
30.47427,464.51,477.94
30.49367,464.77,481.38
30.51425,464.13,477.64
30.53401,461.20,479.85
30.55500,463.35,478.67
30.57505,463.48,479.47
30.59605,465.64,480.04
30.61609,466.03,479.19
30.63556,466.12,482.03
30.65633,466.44,480.84
30.67593,468.10,481.59
30.69597,467.17,483.20
30.71534,466.95,481.81
30.73449,466.24,483.92
30.75507,467.20,481.08
30.77481,466.77,479.24
30.79509,470.51,478.98
30.81632,468.92,481.25
30.83465,468.55,479.96
30.85518,466.48,480.56
30.87564,470.99,481.90
30.89618,469.45,481.73
30.91640,469.45,483.13
30.93596,471.26,480.70
30.95468,469.22,482.75
30.97552,468.85,482.44
30.99475,468.08,479.86
31.01651,469.60,481.56
31.03493,471.40,481.60
31.05519,470.21,478.68
31.07468,473.14,480.89
31.09586,468.70,480.68
31.11462,471.08,481.56
31.13599,471.98,481.09
31.15517,469.47,483.42
31.17440,469.48,482.73
31.19505,472.04,480.19
31.21610,469.97,481.31
31.23594,469.92,482.64
31.25622,472.33,479.81
31.27431,471.90,480.27
31.29467,470.06,479.93
31.31528,471.04,480.87
31.33549,468.97,479.09
31.35468,472.34,482.22
31.37444,472.16,481.09
31.39579,472.98,482.99
31.41649,471.71,481.83
31.43496,471.44,483.06
31.45544,471.91,484.06
31.47551,470.01,482.95
31.49586,473.17,482.83
31.51442,471.87,486.30
31.53540,469.57,482.87
31.55517,469.75,484.62
31.57541,469.30,484.43
31.59673,470.84,484.32
31.61710,472.49,481.98
31.63624,472.22,482.08
31.65668,470.12,482.83
31.67588,472.73,483.78
31.69674,472.43,482.45
31.71759,475.11,484.74
31.73649,475.52,483.97
31.75581,476.57,485.67
31.77589,476.24,483.87
31.79730,473.89,483.98
31.81611,474.25,486.74
31.83691,474.03,483.90
31.85545,474.16,484.36
31.87538,474.93,485.05
31.89642,474.23,486.54
31.91589,471.44,484.28
31.93583,472.10,486.08
31.95668,472.34,485.08
31.97563,473.39,484.99
31.99557,472.56,486.52
32.01695,473.48,485.74
32.03554,475.47,484.76
32.05667,475.67,483.56
32.07620,477.01,485.14
32.09583,474.24,484.01
32.11694,473.53,486.64
32.13659,474.22,487.56
32.15618,473.96,485.46
32.17716,475.27,485.81
32.19699,474.31,486.86
32.21712,472.38,483.93
32.23573,473.79,482.75
32.25592,472.62,484.30
32.27627,475.45,481.91
32.29729,475.54,480.30
32.31744,473.07,481.16
32.33617,475.54,482.02
32.35720,476.13,483.51
32.37668,476.88,484.69
32.39740,478.51,483.81
32.41662,477.33,482.99
32.43638,479.61,485.25
32.45731,476.89,484.09
32.47618,476.28,482.19
32.49632,477.07,482.71
32.51657,478.64,482.53
32.53665,476.45,489.51
32.55696,477.49,502.42
32.57688,475.54,520.91
32.59635,478.12,543.99
32.61649,477.84,560.71
32.63662,481.72,575.40
32.65635,478.95,581.50
32.67691,480.19,579.93
32.69683,476.79,576.78
32.71582,479.06,575.00
32.73548,476.73,564.60
32.75668,479.54,555.44
32.77692,481.73,547.62
32.79563,480.07,541.15
32.81659,480.38,537.03
32.83548,480.43,532.11
32.85709,481.62,524.01
32.87615,480.33,522.55
32.89591,480.38,517.25
32.91678,481.53,514.79
32.93688,481.13,510.25
32.95608,481.35,508.88
32.97615,479.19,508.45
32.99562,479.52,505.43
33.01689,475.43,504.22
33.03704,477.57,501.48
33.05612,476.74,501.61
33.07536,477.34,499.40
33.09647,475.16,499.30
33.11642,473.70,496.17
33.13709,475.58,496.01
33.15682,476.51,497.46
33.17741,473.95,495.43
33.19690,473.63,492.76
33.21687,475.16,493.69
33.23660,473.74,493.44
33.25708,475.52,491.12
33.27688,474.31,493.92
33.29736,473.11,491.69
33.31726,473.53,489.70
33.33648,476.42,489.05
33.35605,475.46,488.78
33.37549,475.52,488.36
33.39668,475.50,487.54
33.41626,474.27,487.96
33.43617,473.53,488.11
33.45606,476.01,488.12
33.47681,473.75,488.69
33.49673,474.85,485.59
33.51590,474.53,486.11
33.53610,472.31,486.67
33.55629,472.32,487.42
33.57610,474.28,473.42
33.59568,470.48,454.23
33.61688,471.71,427.61
33.63646,470.49,404.59
33.65643,468.84,387.38
33.67595,465.95,378.36
33.69719,469.26,381.31
33.71736,466.70,381.73
33.73707,467.84,385.71
33.75723,466.68,395.47
33.77611,466.90,403.42
33.79694,470.00,411.16
33.81726,468.70,420.72
33.83608,468.75,427.22
33.85566,468.99,432.22
33.87722,469.18,443.37
33.89612,471.10,448.31
33.91721,472.38,453.82
33.93733,471.56,458.36
33.95577,472.14,463.99
33.97692,474.14,466.30
33.99560,470.17,468.65
34.01618,471.84,471.61
34.03739,471.71,474.29
34.05642,472.37,475.83
34.07543,471.30,477.38
34.09608,470.66,479.32
34.11728,472.55,479.69
34.13652,472.43,479.84
34.15574,472.52,481.64
34.17695,471.67,480.71
34.19675,472.42,482.31
34.21627,470.39,481.49
34.23649,470.54,482.89
34.25687,470.71,484.18
34.27610,473.52,482.53
34.29599,473.03,486.01
34.31708,472.52,484.43
34.33678,475.47,487.09
34.35622,475.32,485.25
34.37669,472.52,485.98
34.39714,471.76,483.40
34.41583,472.77,483.68
34.43655,471.68,486.15
34.45707,473.40,485.66
34.47624,476.16,483.64
34.49579,475.24,486.35
34.51586,473.98,486.00
34.53586,476.82,483.58
34.55723,476.44,484.65
34.57609,475.80,483.48
34.59730,472.44,483.12
34.61672,472.11,487.19
34.63721,473.45,487.41
34.65636,473.17,487.86
34.67563,472.13,487.85
34.69647,475.16,485.51
34.71627,475.20,485.73
34.73691,474.56,487.38
34.75747,472.00,487.07
34.77681,472.81,486.38
34.79698,470.83,487.09
34.81562,474.23,486.71
34.83547,474.46,482.63
34.85605,471.18,483.36
34.87719,473.64,487.12
34.89678,471.09,484.55
34.91691,470.39,488.50
34.93614,471.76,487.26
34.95660,472.08,488.05
34.97536,470.99,486.06
34.99745,472.04,486.23
35.01701,472.95,485.87
35.03591,473.02,485.31
35.05600,474.26,486.74
35.07704,471.56,484.71
35.09557,474.19,488.05
35.11686,473.41,486.48
35.13604,472.46,484.73
35.15596,472.96,483.98
35.17620,475.45,486.43
35.19732,472.05,485.90
35.21624,475.05,487.20
35.23765,474.68,485.95
35.25719,473.08,483.99
35.27777,470.82,485.23
35.29757,471.44,486.58
35.31696,471.73,483.52
35.33720,471.70,486.39
35.35743,472.40,484.49
35.37674,472.52,485.70
35.39776,472.20,486.38
35.41749,470.91,483.16
35.43767,472.09,483.52
35.45742,472.34,484.80
35.47685,471.72,484.30
35.49676,471.39,482.78
35.51760,474.69,485.55
35.53742,473.54,485.59
35.55762,473.49,486.12
35.57656,471.94,485.85
35.59664,473.71,484.72
35.61661,472.96,487.12
35.63738,473.01,483.63
35.65882,470.87,484.75
35.67845,469.52,483.05
35.69840,472.84,484.59
35.71866,471.96,486.21
35.73864,472.56,486.35
35.75875,468.88,484.44
35.77945,469.82,484.10
35.79863,469.93,486.25
35.81972,468.34,483.62
35.84036,470.14,485.02
35.86012,467.57,482.04
35.87856,468.21,485.42
35.89967,467.09,484.42
35.91963,470.02,481.92
35.93856,466.36,485.18
35.95982,468.99,483.92
35.97975,467.24,483.40
35.99977,468.88,483.53
36.02123,467.02,482.22
36.04058,465.16,482.66
36.06000,463.43,482.79
36.07922,466.13,480.64
36.09959,463.04,482.83
36.12047,463.44,483.55
36.14026,464.55,483.32
36.16041,461.03,483.88
36.17965,461.66,482.27
36.19971,461.54,481.80
36.22009,462.66,484.46
36.23947,465.32,482.86
36.26109,465.23,484.15
36.28047,462.79,483.71
36.29992,465.38,484.10
36.31959,461.82,482.51
36.34043,462.64,481.61
36.35985,463.92,481.30
36.38080,464.57,479.88
36.40086,462.52,481.35
36.41979,465.02,481.17
36.43980,464.62,477.95
36.46007,461.63,478.87
36.48080,461.77,478.01
36.50033,464.55,477.92
36.52135,462.86,477.82
36.54008,460.77,479.69
36.56037,458.28,477.33
36.58116,461.00,478.91
36.60094,461.01,478.83
36.62135,462.24,488.97
36.64001,461.17,506.83
36.66098,460.67,529.36
36.68005,465.70,544.89
36.70106,466.02,558.98
36.72118,462.98,568.18
36.74080,461.19,575.02
36.75977,461.77,572.16
36.78032,463.56,565.29
36.80055,463.22,564.95
36.81974,464.33,560.06
36.84037,463.99,555.50
36.86108,464.95,547.68
36.88041,466.48,545.52
36.89980,464.20,541.94
36.92097,465.91,536.59
36.94138,464.86,529.02
36.96012,464.07,523.77
36.97958,464.41,520.78
36.99991,462.21,518.69
37.01949,462.43,513.21
37.04139,464.28,510.21
37.06043,463.37,500.34
37.07920,462.49,500.37
37.10046,464.47,498.92
37.12086,460.93,498.09
37.14031,463.51,491.35
37.16036,463.06,491.20
37.18010,461.92,489.22
37.20069,463.93,490.19
37.21941,462.76,485.63
37.23996,464.34,486.31
37.25999,461.16,488.83
37.27977,461.75,485.38
37.30040,462.47,486.18
37.32074,461.46,486.98
37.34109,460.86,483.49
37.36044,459.63,483.58
37.37969,461.23,487.77
37.40075,460.22,483.72
37.42143,459.98,482.32
37.44110,459.74,480.06
37.46028,460.67,483.91
37.47949,461.05,481.46
37.49998,461.39,481.84
37.52066,461.80,480.07
37.54052,461.04,480.87
37.56107,461.58,482.57
37.58006,463.07,493.18
37.59999,460.39,493.80
37.62055,459.94,479.10
37.64115,454.49,452.19
37.66091,454.44,422.28
37.67996,451.35,401.80
37.70118,447.65,388.50
37.72123,447.80,379.27
37.74062,451.06,379.86
37.76080,450.86,383.37
37.77976,449.98,384.60
37.80028,450.63,392.09
37.82090,450.49,396.76
37.84057,448.85,404.97
37.86010,450.03,409.77
37.87977,450.30,416.56
37.90146,453.10,422.22
37.92105,452.09,429.31
37.93964,455.22,433.54
37.96117,457.96,437.27
37.98105,457.52,442.42
38.00112,457.51,447.76
38.01948,459.39,453.22
38.03982,455.91,456.35
38.06046,456.62,461.21
38.07968,457.71,462.66
38.09974,454.43,466.80
38.11958,457.90,469.74
38.13950,455.80,467.75
38.16008,458.11,469.86
38.18068,457.28,474.89
38.20118,457.74,474.00
38.22089,455.04,476.24
38.24072,458.94,476.14
38.26046,459.21,477.10
38.28009,459.43,477.67
38.30020,459.20,474.35
38.32072,458.74,477.69
38.34137,456.62,478.55
38.36110,457.98,478.58
38.38125,457.68,476.37
38.39947,456.81,476.63
38.42097,459.16,478.44
38.44116,459.19,478.39
38.45973,457.70,479.75
38.47951,457.92,479.53
38.50077,455.69,481.93
38.52027,456.45,479.73
38.53963,457.34,481.46
38.56133,458.23,480.90
38.58065,458.63,480.98
38.59945,454.89,483.50
38.62037,456.07,482.10
38.64024,454.90,480.93
38.66078,457.20,481.59
38.68036,456.80,480.64
38.70073,455.35,482.27
38.71962,453.31,480.20
38.74098,453.91,481.75
38.75953,453.75,477.76
38.78046,453.71,481.88
38.79974,454.67,481.93
38.81989,453.91,478.03
38.84059,452.37,479.78
38.85977,452.78,478.88
38.88093,452.59,479.53
38.90007,455.30,482.59
38.92118,452.76,482.15
38.93985,453.26,480.31
38.95950,455.88,482.68
38.97980,453.25,481.43
39.00034,455.06,480.95
39.02051,456.63,482.26
39.04035,455.11,479.73
39.05965,457.84,480.78
39.08028,457.29,479.29
39.10009,458.60,478.69
39.12122,454.94,480.84
39.14042,455.09,480.50
39.16040,454.49,482.62
39.18024,457.08,481.31
39.20101,455.60,482.34
39.21982,457.69,479.45
39.24075,456.21,483.81
39.25979,458.21,481.06
39.27953,456.86,483.05
39.30117,457.85,482.68
39.32059,455.25,484.93
39.34139,456.07,482.24
39.35992,455.16,482.48
39.37999,457.00,484.74
39.40148,454.29,481.23
39.41969,456.39,484.08
39.44115,456.07,478.35
39.45975,455.85,478.94
39.48078,455.24,480.43
39.50060,456.13,480.92
39.52148,455.34,483.83
39.54082,453.90,482.77
39.56092,457.28,481.50
39.58096,456.51,483.53
39.59987,456.59,482.20
39.62040,454.29,480.86
39.63982,456.52,483.20
39.65978,454.62,481.57
39.68088,454.62,483.91
39.70137,456.21,480.06
39.71990,453.83,482.21
39.74035,454.28,479.76
39.76021,454.76,480.40
39.78026,457.15,482.39
39.80001,453.59,480.64
39.82017,456.01,478.20
39.83953,452.56,478.85
39.86107,455.37,478.56
39.88109,451.62,477.64
39.90143,455.08,477.60
39.92102,454.73,478.16
39.93943,454.69,478.19
39.96004,454.94,478.29
39.97958,454.85,481.99
40.00012,456.71,478.56
40.02053,453.45,479.52
40.04044,457.74,480.51
40.06061,456.11,481.80
40.08096,455.06,482.06
40.10003,455.35,480.97
40.11998,457.54,481.77
40.14028,456.57,480.08
40.16117,457.10,480.30
40.18067,454.74,480.91
40.20053,456.60,479.24
40.22097,455.38,477.20
40.24103,456.43,480.78
40.26165,456.43,480.05
40.28123,454.06,479.66
40.30035,453.29,479.30
40.32123,454.10,478.55
40.33997,454.61,480.64
40.36051,452.12,480.81
40.38141,454.47,478.61
40.40135,455.40,482.09
40.42073,456.07,482.00
40.43948,455.03,478.51
40.46092,456.24,479.77
40.47999,456.83,480.14
40.50051,456.18,479.50
40.51997,453.33,480.47
40.53998,457.37,479.02
40.56044,455.16,480.33
40.58105,456.69,480.26
40.60036,458.06,478.96
40.61981,455.44,476.48
40.64043,455.79,476.81
40.66090,458.31,478.64
40.68126,456.02,477.04
40.69987,457.42,479.10
40.72053,456.96,477.66
40.73994,458.69,478.24
40.76003,457.26,479.06
40.78174,460.27,479.71
40.80143,457.24,482.29
40.82071,458.22,479.45
40.84201,458.20,480.83
40.86120,459.97,479.76
40.88028,458.60,477.73
40.90196,460.93,480.46
40.92087,458.70,478.59
40.94156,457.80,479.13
40.96089,459.98,479.62
40.98211,458.35,479.94
41.00069,456.11,478.22
41.02207,455.69,477.87
41.04168,455.44,479.76
41.06216,458.48,480.52
41.08223,457.27,480.37
41.10194,457.00,479.52
41.12085,456.27,478.69
41.14135,459.09,477.38
41.16217,457.56,478.21
41.18224,458.75,480.12
41.20153,458.64,480.87
41.22068,457.73,479.33
41.24157,458.29,479.78
41.26175,458.51,476.63
41.28199,458.17,478.35
41.30058,455.94,476.41
41.32234,453.90,480.54
41.34167,458.18,495.07
41.36168,456.39,515.48
41.38125,456.52,540.99
41.40114,455.63,558.79
41.42217,457.17,568.54
41.44200,457.63,570.25
41.46135,458.99,570.98
41.48160,458.92,565.14
41.50113,457.19,563.48
41.52079,456.02,553.81
41.54134,459.09,547.19
41.56124,459.89,541.09
41.58168,460.34,534.16
41.60177,464.49,529.12
41.62106,462.85,523.26
41.64166,463.56,520.30
41.66163,465.82,519.34
41.68051,464.42,515.24
41.70143,462.27,511.24
41.72166,459.70,504.16
41.74209,458.78,501.99
41.76182,459.48,500.11
41.78073,459.78,505.59
41.80182,458.53,502.88
41.82157,460.60,508.42
41.84210,460.01,507.79
41.86223,460.71,505.65
41.88193,460.50,503.91
41.90245,458.26,503.06
41.92214,461.50,500.28
41.94200,458.66,499.18
41.96156,460.58,499.07
41.98207,458.96,493.93
42.00134,460.96,493.17
42.02309,458.32,494.73
42.04239,461.97,493.17
42.06335,460.83,491.19
42.08193,458.75,490.08
42.10253,460.13,488.60
42.12220,460.20,486.13
42.14148,459.46,486.37
42.16249,459.14,486.53
42.18225,462.08,485.78
42.20311,461.26,486.89
42.22295,459.85,489.98
42.24149,461.79,497.69
42.26232,462.25,505.47
42.28118,459.85,494.01
42.30168,456.21,467.22
42.32323,453.23,433.31
42.34186,454.83,404.13
42.36219,453.19,383.72
42.38199,453.21,373.68
42.40191,453.49,369.43
42.42231,453.94,366.92
42.44302,455.18,371.45
42.46279,453.69,374.64
42.48139,455.47,384.96
42.50203,457.16,391.76
42.52187,456.71,400.20
42.54150,457.80,407.47
42.56287,458.95,417.71
42.58169,457.91,426.02
42.60233,458.88,433.56
42.62179,461.40,438.06
42.64238,462.38,442.42
42.66358,458.84,447.33
42.68255,461.65,454.20
42.70271,460.88,456.21
42.72312,461.41,462.16
42.74209,463.23,460.89
42.76141,463.62,465.59
42.78201,464.14,466.72
42.80188,463.36,470.18
42.82286,464.45,471.33
42.84231,466.19,471.36
42.86327,465.62,471.89
42.88325,463.90,475.31
42.90233,463.90,472.84
42.92299,464.44,472.51
42.94407,464.27,474.50
42.96396,463.85,475.84
42.98288,464.85,476.91
43.00312,465.92,476.93
43.02402,465.15,477.59
43.04440,463.25,478.78
43.06441,467.91,480.58
43.08542,467.98,479.75
43.10542,467.91,476.95
43.12425,468.02,480.86
43.14602,468.21,480.98
43.16517,468.17,480.20
43.18561,469.81,478.57
43.20479,467.54,479.56
43.22433,470.76,480.51
43.24436,468.26,482.67
43.26563,469.86,479.68
43.28458,471.20,482.01
43.30432,473.15,480.93
43.32610,472.24,480.76
43.34624,473.26,481.67
43.36536,473.74,483.00
43.38505,470.27,484.35
43.40479,470.57,482.82
43.42583,471.01,483.19
43.44481,470.81,480.66
43.46468,473.99,480.99
43.48514,472.56,478.09
43.50563,471.57,479.08
43.52473,471.34,480.58
43.54496,469.81,481.73
43.56453,470.70,483.94
43.58512,472.07,482.79
43.60475,470.53,484.40
43.62507,471.77,483.09
43.64437,472.74,483.24
43.66490,472.35,482.30
43.68596,469.47,484.37
43.70453,471.71,484.71
43.72587,470.88,481.61
43.74610,470.98,483.87
43.76616,474.19,483.20
43.78580,474.19,480.41
43.80557,471.87,483.46
43.82582,471.24,484.04
43.84599,470.34,483.35
43.86550,474.44,485.85
43.88585,470.11,484.22
43.90582,473.01,483.99
43.92558,473.19,485.30
43.94619,468.80,484.70
43.96553,468.83,482.36
43.98568,468.63,483.96
44.00557,469.50,485.82
44.02539,470.08,487.05
44.04477,472.29,487.61
44.06433,474.05,485.38
44.08443,470.98,473.80
44.10563,475.25,459.43
44.12576,475.50,449.38
44.14531,477.63,442.55
44.16474,475.95,438.38
44.18474,478.41,437.99
44.20437,477.71,440.14
44.22626,478.34,442.87
44.24581,477.52,445.44
44.26597,477.14,451.46
44.28512,478.58,451.21
44.30460,474.28,455.74
44.32428,476.14,461.18
44.34513,478.02,465.43
44.36430,484.92,465.14
44.38450,489.93,471.09
44.40442,493.16,471.89
44.42580,493.30,474.87
44.44544,492.46,477.03
44.46585,494.49,482.00
44.48488,489.55,484.03
44.50612,491.39,485.82
44.52533,490.23,484.75
44.54507,485.65,486.86
44.56487,486.24,489.78
44.58423,485.91,490.86
44.60585,484.47,499.08
44.62427,483.47,504.45
44.64423,486.32,515.07
44.66514,484.83,530.66
44.68481,488.73,551.88
44.70526,489.35,574.12
44.72442,492.68,591.80
44.74453,490.84,603.57
44.76586,490.65,614.36
44.78556,485.61,620.91
44.80618,483.10,624.84
44.82585,480.23,623.27
44.84461,476.61,618.15
44.86508,471.30,609.05
44.88619,468.49,594.26
44.90461,463.79,573.46
44.92436,463.19,545.59
44.94531,460.30,514.28
44.96621,453.77,483.01
44.98523,452.62,458.87
45.00499,446.38,443.53
45.02409,443.54,435.61
45.04424,444.69,449.92
45.06495,448.95,475.84
45.08483,451.85,496.63
45.10555,453.95,506.92
45.12450,450.17,499.21
45.14559,440.45,482.75
45.16406,431.73,456.06
45.18513,426.89,430.10
45.20446,421.86,409.09
45.22546,422.75,390.04
45.24538,424.00,380.12
45.26525,427.32,372.24
45.28469,433.07,372.68
45.30491,434.54,372.65
45.32602,440.29,378.51
45.34539,445.13,383.69
45.36550,447.32,389.70
45.38656,451.74,396.20
45.40587,456.51,401.50
45.42551,459.57,412.27
45.44605,465.41,421.09
45.46536,467.50,429.73
45.48575,470.08,439.54
45.50712,470.11,446.98
45.52725,473.32,453.42
