Program Time [s],data 0,data 1
5.23052,425.09,471.50
5.25006,422.63,469.70
5.27083,425.88,470.92
5.29125,426.62,472.38
5.31117,427.88,472.06
5.33134,425.06,470.47
5.35031,424.92,473.78
5.37012,425.34,473.27
5.39124,422.75,474.75
5.41099,422.37,471.50
5.43047,424.89,473.05
5.45112,421.07,476.31
5.47166,424.06,475.72
5.49256,424.18,473.87
5.51088,421.30,475.29
5.53167,420.16,475.85
5.55300,421.44,474.97
5.57228,420.10,473.39
5.59106,418.90,473.19
5.61231,417.29,473.46
5.63312,418.04,471.87
5.65382,416.89,469.76
5.67212,418.35,468.82
5.69208,416.83,470.42
5.71328,417.56,469.96
5.73240,416.59,467.07
5.75234,415.83,466.49
5.77220,416.05,466.50
5.79213,414.72,466.83
5.81266,414.73,465.35
5.83192,417.20,467.88
5.85213,415.67,465.91
5.87242,416.03,464.32
5.89276,418.95,466.28
5.91364,419.82,464.22
5.93357,418.87,462.79
5.95380,416.35,463.80
5.97277,417.20,463.34
5.99400,415.09,461.53
6.01267,413.65,460.67
6.03235,414.24,463.16
6.05323,418.30,460.19
6.07211,414.70,466.41
6.09371,412.85,482.31
6.11289,416.78,505.15
6.13321,415.04,525.94
6.15280,417.37,547.13
6.17391,418.38,556.70
6.19373,415.98,561.58
6.21373,417.11,561.91
6.23198,419.29,557.83
6.25274,417.85,545.07
6.27313,418.80,540.76
6.29227,417.00,532.65
6.31178,417.16,525.43
6.33348,419.58,520.96
6.35356,417.80,515.27
6.37318,417.47,509.64
6.39205,420.64,503.29
6.41220,419.61,501.62
6.43232,420.46,493.47
6.45337,420.20,491.06
6.47277,418.97,489.48
6.49249,417.58,487.28
6.51257,419.95,486.32
6.53335,418.82,483.48
6.55211,421.39,484.26
6.57318,421.38,482.75
6.59274,417.95,478.89
6.61273,417.41,480.45
6.63274,420.03,479.81
6.65268,419.67,476.33
6.67348,420.61,478.82
6.69261,418.78,475.60
6.71384,419.03,477.03
6.73217,418.36,476.98
6.75319,421.15,478.64
6.77174,421.35,480.88
6.79294,420.15,479.50
6.81339,420.77,473.30
6.83224,420.28,477.03
6.85197,419.41,474.97
6.87272,416.17,473.94
6.89379,417.92,473.50
6.91341,415.64,472.90
6.93193,416.49,474.47
6.95375,416.27,474.33
6.97344,419.64,475.84
6.99303,419.46,472.53
7.01336,419.24,472.17
7.03355,418.17,471.26
7.05248,416.98,475.21
7.07344,419.15,473.01
7.09198,418.71,473.87
7.11308,416.80,469.12
7.13387,418.25,460.38
7.15250,418.71,445.85
7.17285,416.15,428.85
7.19241,418.15,407.27
7.21300,418.94,391.39
7.23223,418.36,385.49
7.25251,416.18,381.41
7.27331,419.31,378.94
7.29328,417.73,383.00
7.31247,416.54,384.26
7.33204,418.65,393.32
7.35370,416.39,399.10
7.37205,417.83,402.66
7.39278,416.11,406.88
7.41215,416.61,415.60
7.43322,419.55,420.14
7.45329,419.64,424.12
7.47430,417.45,430.49
7.49568,419.23,434.30
7.51563,424.16,438.16
7.53525,423.44,443.20
7.55652,424.85,448.47
7.57693,424.76,452.57
7.59950,427.59,456.11
7.61871,432.03,459.06
7.63890,430.58,459.75
7.65916,432.81,462.08
7.68043,431.83,459.99
7.70034,434.99,462.14
7.72004,434.28,461.49
7.73941,435.98,463.92
7.75927,433.07,466.46
7.78025,434.53,466.31
7.80067,433.62,466.34
7.82088,432.35,466.69
7.84077,432.30,467.19
7.85983,435.43,463.17
7.87979,432.62,466.30
7.90069,434.49,466.33
7.91901,437.13,467.85
7.94028,434.34,468.86
7.96020,438.20,471.47
7.98099,435.32,470.89
8.00063,436.80,473.14
8.02124,438.14,473.00
8.04194,438.09,473.98
8.06183,438.11,476.03
8.08100,437.30,475.14
8.10158,436.75,475.95
8.12061,435.41,476.75
8.14114,439.99,475.45
8.15985,437.93,477.24
8.18098,435.38,476.87
8.20207,438.69,478.50
8.22102,437.75,478.74
8.24212,436.59,476.92
8.26278,437.18,477.07
8.28142,435.41,476.83
8.30249,435.71,474.20
8.32160,436.24,474.42
8.34276,437.54,473.82
8.36150,434.69,475.89
8.38172,437.05,477.66
8.40261,439.17,476.64
8.42256,436.44,472.75
8.44363,437.10,474.24
8.46312,435.23,475.52
8.48241,436.19,474.58
8.50365,437.64,473.46
8.52202,436.19,474.28
8.54353,434.32,475.96
8.56448,433.25,472.20
8.58384,433.09,472.35
8.60362,435.35,473.96
8.62458,432.89,475.31
8.64445,436.47,473.75
8.66770,436.25,474.14
8.68465,436.67,473.06
8.70308,435.39,475.29
8.72302,433.35,471.81
8.74488,435.91,472.67
8.76301,432.10,475.67
8.78308,432.08,472.50
8.80417,432.03,471.38
8.82378,434.78,473.25
8.84465,433.57,471.11
8.86407,432.01,472.85
8.88427,433.73,470.18
8.90366,430.88,469.86
8.92288,431.86,471.69
8.94428,432.34,472.70
8.96378,434.12,472.31
8.98330,431.98,470.26
9.00450,431.63,471.13
9.02454,431.45,472.77
9.04341,431.90,473.41
9.06278,432.62,470.30
9.08426,432.37,470.21
9.10457,433.12,470.80
9.12402,431.27,469.90
9.14354,431.85,467.39
9.16445,429.42,468.59
9.18372,431.65,470.67
9.20300,429.23,471.18
9.22444,430.47,468.24
9.24440,429.55,469.73
9.26303,427.63,468.89
9.28352,431.81,468.18
9.30468,431.00,469.16
9.32338,428.84,471.96
9.34414,430.79,470.97
9.36430,429.23,472.26
9.38518,427.26,470.73
9.40544,430.96,473.17
9.42562,427.76,471.34
9.44423,429.79,470.68
9.46448,430.80,470.79
9.48394,427.20,472.72
9.50485,430.53,472.84
9.52436,427.30,469.06
9.54502,429.71,472.04
9.56421,428.96,470.60
9.58396,430.23,470.34
9.60445,430.41,470.65
9.62407,427.34,472.85
9.64455,429.83,473.34
9.66420,429.96,473.28
9.68444,428.17,474.36
9.70578,430.16,470.76
9.72403,429.45,473.58
9.74549,428.59,472.99
9.76486,429.67,472.72
9.78376,430.88,473.90
9.80474,430.76,473.60
9.82558,428.02,472.94
9.84573,429.16,473.41
9.86467,427.43,474.60
9.88461,428.38,472.16
9.90475,425.71,471.99
9.92527,424.46,473.02
9.94480,426.11,473.28
9.96492,425.41,469.77
9.98452,423.11,472.31
10.00507,425.45,470.34
10.02502,426.34,467.28
10.04550,427.46,470.17
10.06418,424.64,469.14
10.08384,426.85,477.75
10.10563,425.44,491.83
10.12405,427.22,509.20
10.14562,426.25,533.24
10.16478,425.97,554.30
10.18492,427.81,576.61
10.20522,424.71,587.32
10.22512,424.94,588.77
10.24575,425.05,586.98
10.26468,427.29,582.09
10.28408,428.48,570.00
10.30502,426.04,560.71
10.32484,424.83,549.40
10.34553,424.80,537.18
10.36570,427.57,530.36
10.38531,424.16,523.35
10.40414,426.67,509.66
10.42562,427.22,505.23
10.44617,425.65,498.53
10.46664,425.32,495.54
10.48689,428.62,492.57
10.50733,426.43,485.95
10.52738,426.77,484.54
10.54602,426.16,480.56
10.56625,425.79,481.34
10.58700,423.35,478.41
10.60684,422.36,477.06
10.62696,421.92,476.99
10.64707,418.40,472.85
10.66572,419.90,475.68
10.68589,419.49,473.28
10.70690,419.09,471.36
10.72820,418.89,471.19
10.74874,418.63,474.31
10.76863,420.82,475.46
10.78770,422.39,474.99
10.80731,418.98,470.86
10.82758,421.42,473.62
10.84680,419.32,473.29
10.86884,417.38,472.33
10.88813,418.98,474.22
10.90682,416.98,471.59
10.92849,417.04,469.88
10.94824,418.79,467.34
10.96825,418.58,468.92
10.98698,417.88,470.28
11.00775,420.82,469.20
11.02747,419.46,470.37
11.04874,421.45,468.01
11.06779,420.52,465.21
11.08805,420.31,460.49
11.10796,423.23,442.26
11.12775,421.88,418.56
11.14966,418.44,397.70
11.16977,418.11,382.22
11.18860,417.80,371.29
11.20856,416.43,368.00
11.22937,414.59,371.72
11.24823,412.84,371.58
11.26831,412.87,376.85
11.28912,415.92,383.81
11.30929,413.45,393.91
11.32926,416.01,398.27
11.34926,414.36,404.85
11.36894,413.36,409.00
11.38931,415.06,414.32
11.40918,418.81,420.39
11.42883,416.18,425.01
11.44808,417.78,428.57
11.46907,418.43,433.01
11.48848,419.60,434.69
11.50963,416.26,439.09
11.52958,420.08,444.61
11.54898,420.67,446.99
11.56934,418.07,448.78
11.58884,417.86,451.78
11.60855,420.36,452.45
11.62821,417.42,456.16
11.64941,418.52,458.17
11.66788,419.32,458.63
11.68948,419.64,462.96
11.70950,421.03,462.51
11.72870,421.03,464.31
11.74806,420.25,462.61
11.76909,419.67,463.38
11.78933,418.39,466.56
11.80796,417.61,464.20
11.82895,419.62,466.84
11.84781,419.37,467.37
11.86830,421.04,464.57
11.88819,418.45,465.77
11.90842,418.49,466.25
11.92787,418.08,465.28
11.94814,421.25,465.18
11.96894,419.37,463.16
11.98851,419.45,465.47
12.00873,419.17,463.51
12.02787,418.25,466.36
12.04931,419.90,465.78
12.06885,421.49,466.43
12.08908,420.39,467.72
12.10917,419.55,467.63
12.12849,420.08,469.95
12.14795,421.00,470.71
12.16799,419.43,469.12
12.18956,421.35,469.75
12.20860,421.80,467.39
12.22879,421.20,465.94
12.24890,419.68,466.08
12.26895,419.43,468.37
12.28753,423.07,465.76
12.30879,421.59,466.77
12.32830,421.65,463.90
12.34842,420.87,465.67
12.36784,421.52,467.35
12.38855,422.13,464.03
12.40964,422.55,465.30
12.42919,420.16,465.85
12.44948,420.38,464.94
12.46919,419.83,468.65
12.48843,421.71,466.11
12.50898,418.56,469.79
12.52939,421.21,470.19
12.54890,419.50,468.38
12.56860,421.48,464.33
12.58794,419.86,464.96
12.60860,422.60,469.24
12.62820,421.87,468.44
12.64948,418.83,464.50
12.66990,421.03,464.06
12.68827,420.64,467.44
12.70832,419.67,464.97
12.72853,419.93,465.08
12.74951,422.86,465.08
12.76856,420.89,465.04
12.78973,421.29,465.96
12.80894,421.63,468.52
12.82973,419.85,464.95
12.84968,419.45,468.80
12.86938,422.51,469.68
12.88973,419.39,466.82
12.90868,422.68,467.28
12.92807,420.66,466.33
12.94900,421.38,467.36
12.96788,419.81,468.74
12.98923,421.45,468.76
13.00903,420.51,466.73
13.02921,420.77,466.90
13.04852,424.32,468.16
13.06845,423.28,467.89
13.08972,422.44,468.51
13.10918,424.48,469.33
13.12801,424.05,469.05
13.14958,423.22,469.27
13.16960,422.01,468.93
13.18951,425.40,468.60
13.20962,422.87,470.46
13.22972,421.79,468.61
13.24828,421.61,467.60
13.26863,423.06,466.10
13.28840,420.58,465.61
13.30969,422.77,464.20
13.32882,420.82,467.26
13.34874,422.71,463.89
13.36926,420.53,465.18
13.38787,420.11,466.63
13.40827,420.54,464.85
13.42978,422.11,465.37
13.44864,420.91,464.21
13.46889,422.23,468.35
13.48862,423.08,466.61
13.50969,420.37,466.21
13.52837,422.49,467.77
13.54938,422.58,465.90
13.56840,422.37,466.41
13.58868,421.92,466.28
13.60808,422.15,467.60
13.62942,420.41,467.64
13.64804,423.86,465.93
13.66869,423.83,468.71
13.68880,422.61,468.16
13.70878,423.36,469.21
13.72919,421.50,466.94
13.74819,422.76,465.14
13.76953,421.22,468.44
13.78847,421.79,466.47
13.80815,423.80,467.61
13.82802,421.92,467.08
13.84855,422.89,466.63
13.86776,425.77,465.31
13.88924,426.37,464.02
13.90823,424.77,463.22
13.92858,427.81,465.62
13.94823,425.46,464.69
13.96931,425.68,465.07
13.98885,428.56,466.06
14.00967,426.73,464.99
14.02928,427.16,465.59
14.04808,426.72,465.43
14.06823,427.35,465.85
14.08877,423.14,467.85
14.10964,426.18,468.25
14.12797,422.47,471.58
14.14931,423.18,471.26
14.16850,421.17,469.70
14.18821,422.15,471.65
14.20884,422.60,471.54
14.22960,424.69,482.03
14.24891,425.64,494.46
14.26908,427.63,510.76
14.28832,427.87,529.52
14.30817,426.90,540.03
14.32792,428.08,541.31
14.34833,426.31,540.02
14.36795,428.69,535.35
14.38828,428.19,526.37
14.40955,424.32,518.59
14.42790,424.76,511.19
14.44957,426.31,508.58
14.46938,425.76,511.55
14.48982,427.71,520.89
14.50899,429.24,527.64
14.52846,430.42,534.14
14.54788,431.93,538.34
14.56852,431.10,540.12
14.58781,430.62,534.34
14.60951,432.54,526.52
14.62905,432.23,523.22
14.64941,432.07,516.24
14.66792,431.70,509.94
14.68898,432.75,503.73
14.70922,430.79,499.94
14.72936,430.26,497.89
14.74803,429.99,493.16
14.76844,428.56,492.02
14.78823,430.06,489.69
14.80789,430.59,486.52
14.82789,429.12,484.51
14.84902,429.35,481.83
14.86899,429.87,479.26
14.88785,427.74,477.89
14.90916,429.96,477.53
14.92943,427.97,478.49
14.94924,429.09,476.14
14.96941,428.32,474.01
14.98903,427.87,475.37
15.00793,429.06,471.87
15.02952,430.98,472.21
15.04915,429.71,470.50
15.06910,428.94,473.41
15.08814,430.40,470.98
15.10855,428.44,467.93
15.12835,429.02,469.08
15.14858,430.01,470.92
15.16923,430.02,471.34
15.18859,431.10,470.55
15.20891,427.54,473.04
15.22849,428.00,464.15
15.24794,425.38,445.07
15.26831,422.75,418.70
15.28946,420.30,394.41
15.30788,421.15,375.86
15.32938,419.09,362.22
15.34770,420.82,355.74
15.36805,419.70,359.49
15.38929,419.61,359.66
15.40855,421.83,366.22
15.42820,423.45,373.14
15.44865,425.39,382.05
15.46825,423.24,390.00
15.48944,424.65,398.56
15.50878,422.02,403.23
15.52907,426.10,412.78
15.54886,428.50,417.57
15.56808,428.08,426.42
15.58916,426.88,430.32
15.60831,427.73,433.81
15.62809,428.09,440.33
15.64827,430.14,448.20
15.66967,431.65,449.05
15.68797,428.82,451.77
15.70908,430.77,455.65
15.72939,429.86,458.66
15.74831,429.27,459.86
15.76922,431.54,462.62
15.78828,430.91,464.94
15.80955,428.98,463.48
15.82932,429.42,465.14
15.84792,432.07,467.42
15.86899,431.00,468.51
15.88793,431.89,466.61
15.90795,432.65,466.96
15.92958,431.38,467.34
15.94849,431.32,468.35
15.96924,432.54,469.25
15.98785,431.44,466.51
16.00915,433.97,469.48
16.02817,431.13,469.88
16.04836,432.19,468.63
16.06834,433.76,470.67
16.08867,433.73,469.72
16.10924,432.05,470.12
16.12969,432.18,466.56
16.14892,430.07,470.36
16.16768,433.00,466.76
16.18863,430.30,470.21
16.20899,431.74,468.42
16.22950,429.39,467.07
16.24811,429.52,465.27
16.26896,431.48,468.96
16.28927,432.38,465.07
16.30813,433.40,466.61
16.32773,434.73,468.27
16.34855,431.93,469.48
16.36919,434.00,468.68
16.38920,434.22,466.28
16.40939,431.71,466.10
16.42937,431.18,468.60
16.44780,435.21,467.07
16.46830,432.61,467.97
16.48797,433.77,468.84
16.50917,432.87,468.75
16.52825,433.45,470.51
16.54950,431.42,470.31
16.56960,433.40,469.66
16.58949,433.43,470.34
16.60821,431.37,470.64
16.62889,431.20,469.61
16.64822,431.03,469.25
16.66900,432.29,470.50
16.68931,432.68,465.55
16.70829,430.73,468.76
16.72771,433.09,468.04
16.74895,433.14,471.40
16.76866,431.71,469.18
16.78823,434.89,470.32
16.80881,433.60,469.36
16.82831,435.04,469.61
16.84955,433.73,470.87
16.86805,436.75,470.72
16.88969,435.24,471.91
16.90866,434.93,472.10
16.92887,433.14,470.12
16.94809,434.86,470.92
16.96812,437.62,471.63
16.98835,436.85,472.02
17.00789,435.57,469.44
17.02861,438.47,471.93
17.04854,438.75,470.76
17.06859,438.47,472.44
17.08878,435.47,472.29
17.10902,435.48,471.00
17.12935,436.83,472.54
17.14896,436.35,469.83
17.16815,436.74,470.84
17.18812,434.18,468.93
17.20777,437.89,469.21
17.22875,435.82,470.49
17.24913,435.64,468.16
17.26802,433.26,467.02
17.28803,435.19,466.68
17.30915,437.27,463.52
17.32962,433.83,463.67
17.34898,434.61,466.70
17.36910,438.31,466.51
17.38901,437.08,466.95
17.40945,436.68,464.84
17.42914,435.87,465.11
17.44814,436.41,468.83
17.46858,437.97,467.17
17.48855,437.38,467.04
17.50862,438.07,467.08
17.52886,434.75,466.20
17.54875,436.56,467.51
17.56856,438.55,469.39
17.58819,436.60,470.93
17.60889,438.83,469.29
17.62852,436.20,469.75
17.64932,437.36,469.98
17.66792,435.99,468.52
17.68771,438.49,471.26
17.70913,438.70,471.02
17.72931,438.20,468.90
17.74908,436.77,469.42
17.76798,438.47,467.33
17.78840,439.11,467.32
17.80810,436.81,467.40
17.82801,440.05,469.36
17.84951,435.70,469.66
17.86898,436.55,467.17
17.88818,438.36,470.79
17.90890,435.42,472.15
17.92956,437.71,471.36
17.94955,436.80,471.91
17.96969,436.55,471.32
17.98772,434.86,471.81
18.00892,437.74,472.63
18.02896,441.01,470.96
18.04977,440.76,472.81
18.06944,439.35,472.68
18.08809,438.29,469.57
18.10823,440.68,471.63
18.12949,436.30,472.07
18.14786,437.50,471.90
18.16932,436.40,470.59
18.18770,436.82,477.60
18.20912,436.30,494.76
18.22841,435.03,507.54
18.24771,435.12,526.48
18.26856,434.83,535.89
18.28849,435.11,546.95
18.30915,436.06,554.10
18.32943,435.95,554.96
18.34866,440.10,554.10
18.36826,438.05,550.36
18.38890,440.68,544.31
18.40835,439.40,532.97
18.42946,438.26,525.66
18.44881,436.61,518.72
18.46838,439.10,511.99
18.53140,436.80,506.36
18.53153,435.34,501.32
18.53202,435.62,496.59
18.54767,435.62,491.74
18.56776,435.83,488.28
18.58940,434.78,490.98
18.60835,436.12,485.54
18.62960,434.85,484.53
18.64857,436.13,480.76
18.66967,439.35,479.83
18.68963,437.24,479.31
18.70888,439.75,479.41
18.72782,441.02,478.31
18.74925,437.61,476.08
18.76851,436.37,476.28
18.78885,438.33,476.41
18.80888,437.89,477.32
18.82913,434.45,476.32
18.84907,436.22,477.93
18.86782,434.42,474.14
18.88859,434.88,475.47
18.90961,435.37,474.84
18.92923,438.32,474.98
18.94806,434.59,472.28
18.96775,436.98,472.08
18.98826,435.64,472.49
19.00799,436.00,474.42
19.02767,435.33,472.77
19.04779,438.67,472.19
19.06902,438.80,471.44
19.08828,437.02,472.13
19.10945,434.97,474.02
19.12781,434.26,474.29
19.14889,434.32,475.88
19.16833,434.29,472.69
19.18835,433.94,470.27
19.20853,435.40,469.67
19.22830,435.56,472.10
19.24896,436.08,472.15
19.26927,436.63,471.71
19.28909,434.03,468.91
19.30809,435.26,471.06
19.32882,434.35,470.66
19.34952,435.07,471.68
19.37040,434.27,469.80
19.38906,434.68,472.36
19.40884,437.01,470.68
19.42939,433.60,473.83
19.44919,434.54,474.80
19.46867,434.92,474.01
19.49148,436.58,472.51
19.51096,434.97,478.59
19.53068,436.82,470.71
19.55046,431.26,453.14
19.56969,430.69,431.28
19.59039,430.54,411.37
19.61045,428.75,396.46
19.63049,429.06,387.01
19.65056,426.92,387.25
19.67151,428.37,391.95
19.69139,427.85,393.07
19.71008,429.76,397.21
19.73001,430.65,403.33
19.75103,430.58,411.59
19.77098,429.05,418.87
19.79018,430.47,424.61
19.81121,431.79,427.83
19.83038,431.38,433.82
19.84993,432.17,438.75
19.87079,429.90,444.63
19.88972,432.99,447.92
19.91027,431.99,450.62
19.93038,434.04,454.23
19.95035,433.14,458.32
19.97088,434.12,460.13
19.99044,434.83,462.65
20.01040,432.90,463.51
20.03145,431.58,467.75
20.05152,436.05,468.39
20.07113,435.49,467.32
20.09165,434.65,468.79
20.11153,432.48,468.20
20.13055,432.71,467.75
20.15066,434.98,467.33
20.17132,432.96,468.77
20.19007,434.91,471.61
20.20981,433.25,470.90
20.23022,433.11,471.77
20.25043,432.93,472.27
20.26984,434.73,470.12
20.29056,433.89,470.41
20.31132,432.96,472.27
20.33072,433.49,470.12
20.35132,434.07,470.78
20.36973,433.28,471.78
20.39053,434.34,469.24
20.41054,433.51,470.29
20.43015,434.14,469.67
20.45124,432.47,472.39
20.47146,432.94,471.58
20.49163,433.87,473.61
20.50988,432.86,472.54
20.53003,431.12,470.87
20.55068,431.38,470.59
20.57132,433.39,470.54
20.58998,432.22,473.23
20.61036,429.38,472.52
20.62996,430.01,469.15
20.65021,430.09,469.99
20.67084,430.54,470.51
20.69114,428.27,471.46
20.71096,429.81,471.74
20.72956,428.18,473.24
20.75007,431.36,471.36
20.77006,428.61,470.98
20.79056,430.61,471.41
20.81064,429.26,471.21
20.83031,431.39,469.00
20.85152,430.35,472.44
20.87020,432.14,471.57
20.89145,430.65,471.64
20.91138,432.61,472.25
20.93062,432.99,471.25
20.94971,430.61,473.14
20.97137,429.90,472.72
20.99149,430.47,472.34
21.01040,431.81,473.63
21.03155,429.57,472.43
21.05047,433.17,472.31
21.07159,433.21,473.73
21.09056,432.34,472.76
21.10994,432.87,470.25
21.13033,429.99,470.24
21.15052,430.07,467.88
21.17101,430.80,469.91
21.19141,430.29,470.04
21.20964,430.46,468.60
21.23155,428.50,467.30
21.24991,427.48,470.56
21.27091,427.78,471.91
21.28974,427.70,468.96
21.31022,429.73,470.42
21.33097,429.79,469.86
21.34948,431.57,471.15
21.36965,429.15,470.56
21.39105,429.55,470.75
21.41011,429.28,470.14
21.42990,430.54,470.94
21.45106,429.64,469.13
21.47097,429.74,469.18
21.49039,427.87,469.91
21.50974,427.73,471.07
21.53002,429.30,471.19
21.54986,427.41,470.87
21.56964,426.80,471.58
21.59072,428.79,471.02
21.61087,428.88,471.16
21.62979,427.35,473.79
21.64941,428.21,472.98
21.67022,428.35,473.75
21.69051,428.08,471.14
21.71030,426.97,471.57
21.73095,428.46,471.57
21.74983,430.38,474.31
21.77087,428.66,475.07
21.79078,432.39,473.75
21.81072,431.11,471.11
21.83031,429.56,472.32
21.84975,429.25,473.24
21.86972,429.20,470.95
21.88951,429.06,471.26
21.91060,427.34,469.61
21.93011,428.85,471.89
21.95041,428.87,468.88
21.97035,429.24,471.75
21.99109,426.35,472.53
22.01085,427.82,472.61
22.03047,425.75,471.26
22.05072,428.05,470.94
22.06965,425.66,471.15
22.08976,425.38,470.14
22.10990,427.39,471.40
22.13136,426.93,470.74
22.14965,425.91,471.95
22.17130,427.29,472.73
22.18954,426.50,469.59
22.21070,425.99,471.23
22.23044,428.96,470.51
22.24954,428.23,470.81
22.27121,426.01,472.05
22.29119,426.47,469.55
22.30941,424.21,472.10
22.33102,428.11,470.96
22.35099,426.72,469.47
22.37061,425.98,480.12
22.39075,428.50,494.84
22.40961,428.46,511.17
22.42989,427.06,529.13
22.44995,425.59,542.82
22.46932,423.65,549.11
22.49092,423.00,553.30
22.51120,422.72,552.25
22.52978,421.69,545.90
22.55107,424.32,537.95
22.57121,423.49,532.80
22.58945,424.40,526.03
22.61082,426.64,520.88
22.63045,426.78,514.24
22.64957,427.91,506.88
22.66961,428.03,502.48
22.68994,426.87,499.10
22.71066,429.47,498.75
22.73010,427.30,492.30
22.75089,427.81,492.12
22.77019,425.22,487.48
22.79098,426.72,483.76
22.81076,424.98,482.55
22.83129,425.32,481.49
22.85106,421.30,484.54
22.87053,421.95,481.29
22.88975,422.61,480.03
22.91119,422.57,477.46
22.92995,423.05,476.71
22.95117,420.62,480.49
22.97046,423.96,479.52
22.98933,422.82,478.96
23.01083,424.88,476.52
23.03035,424.64,476.67
23.04974,424.36,476.89
23.07154,422.95,476.46
23.09093,424.67,473.00
23.11146,424.21,476.90
23.13012,421.73,477.06
23.15052,421.59,477.79
23.17044,424.01,479.03
23.19053,419.18,479.35
23.21035,420.12,478.34
23.23114,422.21,479.14
23.24967,421.83,479.17
23.26999,423.60,474.08
23.29093,422.72,476.11
23.31108,423.08,473.52
23.32985,422.37,473.19
23.35086,423.29,474.26
23.37037,422.25,474.66
23.39098,421.81,472.75
23.40977,423.59,476.87
23.43075,421.75,471.97
23.45067,424.18,476.99
23.46973,421.69,476.62
23.49072,422.97,474.38
23.51070,422.94,471.74
23.53032,425.86,471.91
23.55110,423.47,473.17
23.57103,424.92,477.84
23.59066,422.93,476.84
23.61040,420.92,474.09
23.62991,420.20,460.50
23.64994,420.88,441.66
23.67130,419.62,419.58
23.69038,416.90,399.75
23.70986,418.16,386.45
23.73067,415.63,382.91
23.74943,414.73,378.80
23.76989,416.13,379.93
23.79138,415.78,386.76
23.81069,416.38,391.91
23.83061,416.72,397.38
23.85005,417.36,406.40
23.86964,417.30,410.16
23.89063,420.05,416.28
23.91149,417.50,422.06
23.93132,419.91,428.46
23.95144,420.10,435.80
23.97009,417.77,437.28
24.07915,419.82,444.66
24.08014,418.10,447.60
24.07975,419.09,449.84
24.08002,420.35,452.31
24.07956,420.37,459.40
24.10019,423.54,457.65
24.12091,425.36,462.46
24.13979,428.71,463.42
24.16089,430.13,466.11
24.18043,430.09,465.11
24.19993,431.95,465.84
24.22035,434.52,465.52
24.24021,433.30,468.98
24.26116,432.62,470.34
24.28067,435.58,468.25
24.30075,432.45,468.54
24.32115,434.30,470.25
24.33978,434.01,468.07
24.36004,436.56,470.04
24.37960,434.03,471.19
24.40020,436.01,471.20
24.42037,436.52,467.89
24.44044,438.08,467.68
24.45956,435.18,467.99
24.48032,434.07,470.80
24.50102,434.29,469.13
24.51985,435.19,469.32
24.53986,437.07,469.88
24.56124,433.84,467.81
24.58018,437.76,470.66
24.60121,436.55,469.75
24.62077,439.02,470.64
24.63936,437.53,472.25
24.65972,436.64,470.19
24.67971,439.26,473.24
24.70079,437.83,470.68
24.71977,436.56,472.11
24.73995,437.53,471.82
24.76013,439.79,471.58
24.77980,439.40,472.94
24.79969,439.95,471.60
24.81947,439.46,471.00
24.83944,436.58,473.85
24.85980,436.93,475.15
24.87980,435.09,472.51
24.90104,436.13,474.80
24.92077,437.53,476.17
24.93945,438.89,476.36
24.96086,438.61,472.62
24.98022,437.84,472.28
24.99938,436.46,474.80
25.02084,437.91,473.12
25.04094,438.41,473.57
25.06038,437.84,470.32
25.08008,435.64,471.01
25.09947,437.78,471.76
25.12125,437.13,473.76
25.13983,438.09,473.85
25.15984,439.28,473.85
25.18126,437.33,471.83
25.20009,439.27,473.12
25.22033,437.93,470.07
25.24084,439.91,472.01
25.26068,439.48,472.40
25.28076,441.02,472.62
25.30119,438.41,471.97
25.32080,437.31,471.02
25.34106,437.26,471.10
25.36163,435.37,473.28
25.38229,435.15,473.39
25.40252,436.93,472.97
25.42356,438.68,469.74
25.44527,436.78,471.28
25.46434,435.51,471.97
25.48479,435.13,471.85
25.50492,431.80,470.01
25.52581,432.17,471.98
25.54523,432.22,471.88
25.56570,431.44,471.24
25.58462,431.22,474.46
25.60515,430.64,470.99
25.62561,430.88,472.28
25.64463,432.94,473.20
25.66590,430.24,473.04
25.68440,431.31,471.89
25.70564,430.29,471.11
25.72464,428.67,473.08
25.74628,427.77,473.20
25.76490,430.82,473.49
25.78478,430.14,471.51
25.80535,428.64,473.76
25.82535,427.68,474.09
25.84484,428.85,472.26
25.86545,427.90,474.74
25.88439,426.99,472.81
25.90470,426.92,475.44
25.92544,427.46,474.45
25.94679,428.12,473.72
25.96723,426.95,470.61
25.98611,427.29,469.30
26.00711,427.11,472.41
26.02547,425.59,470.50
26.04673,425.86,469.90
26.06675,424.69,469.66
26.08618,421.52,470.90
26.10564,423.30,471.40
26.12728,422.02,470.83
26.14570,423.21,470.85
26.16552,425.31,468.72
26.18719,423.29,469.73
26.20684,423.44,468.78
26.22668,422.04,471.23
26.24733,421.78,471.43
26.26748,424.02,469.77
26.28787,423.14,470.94
26.30640,423.90,469.45
26.32752,422.39,471.80
26.34730,422.84,471.31
26.36723,421.19,470.94
26.38679,421.87,469.99
26.40726,419.50,467.14
26.42687,420.02,467.70
26.44834,419.78,470.63
26.46818,418.86,467.63
26.48698,418.61,468.14
26.50717,416.15,467.78
26.52714,415.94,470.31
26.54756,415.73,469.46
26.56804,417.72,470.48
26.58682,417.57,466.58
26.60622,420.05,466.98
26.62666,419.67,470.79
26.64774,420.91,467.77
26.66820,421.35,467.09
26.68833,418.44,465.83
26.70741,420.89,464.38
26.72808,420.26,467.63
26.74829,417.05,482.57
26.76668,415.90,503.33
26.78688,417.37,526.08
26.80747,416.14,537.90
26.82692,418.87,545.41
26.84629,417.54,548.32
26.86744,419.42,545.52
26.88778,419.88,544.51
26.90677,422.64,539.61
26.92659,422.26,533.63
26.94735,421.33,522.14
26.96803,420.21,517.05
26.98739,422.78,510.93
27.00710,420.86,504.68
27.02735,421.34,502.84
27.04704,419.45,494.43
27.06653,420.69,493.67
27.08725,418.45,487.70
27.10619,421.04,487.62
27.12797,420.17,486.73
27.14725,418.98,481.31
27.16734,420.60,478.82
27.18638,418.73,479.82
27.20752,418.66,478.23
27.22650,418.17,477.43
27.24791,419.58,476.54
27.26649,420.91,474.41
27.28677,420.35,476.68
27.30668,416.39,474.72
27.32846,419.53,475.67
27.34745,420.02,475.48
27.36722,418.97,475.30
27.38683,418.48,473.07
27.40684,419.79,473.18
27.42737,418.40,470.81
27.44734,421.05,473.55
27.46668,421.29,473.62
27.48692,420.50,470.47
27.50756,422.32,472.13
27.52765,419.22,469.12
27.54792,422.63,471.60
27.56795,420.46,467.55
27.58672,420.18,470.00
27.60675,418.69,468.84
27.62831,420.38,470.33
27.64725,418.12,468.69
27.66781,417.52,469.30
27.68764,420.05,468.96
27.70758,419.09,470.54
27.72780,418.75,469.45
27.74708,422.04,469.95
27.76796,418.52,468.38
27.78776,418.19,464.47
27.80798,417.52,454.19
27.82733,418.30,434.68
27.84816,417.11,413.91
27.86774,412.77,395.23
27.88699,412.63,385.45
27.90825,412.84,381.91
27.92697,412.26,383.28
27.94640,415.12,383.86
27.96721,413.68,390.21
27.98706,414.93,392.03
28.00697,413.02,398.27
28.02837,415.26,407.52
28.04626,415.97,411.78
28.06681,414.49,416.27
28.08745,417.57,422.95
28.10701,416.09,429.40
28.12727,420.59,434.32
28.14810,420.32,439.77
28.16712,421.00,443.22
28.18716,420.84,444.94
28.20704,422.32,449.07
28.22641,421.45,452.79
28.24745,421.77,455.55
28.26720,421.62,455.69
28.28672,422.26,457.33
28.30655,421.16,457.65
28.32829,420.04,463.13
28.34768,419.77,464.61
28.36712,419.31,464.55
28.38723,418.85,463.89
28.40784,420.76,464.84
28.42776,420.10,465.03
28.44700,422.00,465.69
28.46799,421.81,463.85
28.48684,420.26,465.29
28.50694,419.71,465.42
28.52770,418.35,465.77
28.54691,416.24,467.89
28.56661,418.97,467.88
28.58746,416.64,470.48
28.60744,418.91,470.17
28.62753,418.46,469.00
28.64692,418.63,468.09
28.66685,417.01,469.98
28.68638,420.54,470.50
28.70771,418.02,468.32
28.72984,419.71,468.88
28.75002,419.54,470.44
28.76860,422.12,470.92
28.79094,419.60,468.54
28.80965,422.86,469.22
28.82986,421.14,470.34
28.85076,422.31,470.65
28.87027,422.73,469.58
28.88978,422.19,468.21
28.91005,421.88,471.23
28.93094,423.16,470.57
28.95056,420.33,468.36
28.96978,422.51,469.26
28.99077,421.20,468.01
29.01000,422.71,467.68
29.03070,423.52,468.05
29.04952,420.79,468.61
29.07032,424.76,469.05
29.08938,424.49,469.51
29.11027,424.20,470.34
29.12981,424.88,469.89
29.15065,423.79,469.34
29.17007,424.66,467.68
29.19107,425.85,469.25
29.21122,423.59,469.11
29.23054,424.11,470.42
29.25026,423.83,469.78
29.26998,424.64,468.80
29.29087,423.44,469.97
29.30943,426.44,470.62
29.32941,425.54,469.97
29.35159,427.20,469.37
29.37151,426.02,468.45
29.39236,427.92,472.92
29.41418,428.97,471.51
29.43355,433.58,471.72
29.45285,434.12,472.86
29.47256,433.14,468.80
29.49249,434.96,472.72
29.51292,433.53,471.72
29.53394,433.24,470.18
29.55415,433.98,470.86
29.57350,433.04,468.84
29.59452,435.77,469.58
29.61515,436.10,471.00
29.63505,436.91,468.91
29.65510,437.17,470.30
29.67461,437.18,470.26
29.69511,440.12,469.47
29.71361,436.40,471.34
29.73515,437.28,470.60
29.75464,441.19,473.64
29.77440,440.39,472.08
29.79583,438.88,471.83
29.81811,436.55,474.88
29.83847,437.63,474.56
29.85773,434.85,470.91
29.87998,436.30,474.11
29.89879,433.81,474.93
29.91992,431.80,472.60
29.94087,430.81,472.55
29.96056,432.63,475.11
29.97953,429.88,474.28
29.99965,429.65,473.85
30.02085,429.08,471.62
30.04033,428.43,473.20
30.06137,429.30,472.04
30.07959,430.47,473.52
30.10063,431.59,472.07
30.12089,429.87,473.66
30.13968,430.53,473.99
30.16061,429.33,472.70
30.18059,430.11,474.91
30.19914,430.48,472.83
30.22106,430.10,472.09
30.23940,428.62,473.63
30.26041,430.25,473.26
30.28154,426.75,471.47
30.30195,429.69,470.52
30.32029,427.47,473.76
30.34241,425.34,471.25
30.36158,424.68,472.86
30.38231,422.75,473.83
30.40266,423.40,472.50
30.42261,420.33,471.73
30.44412,419.19,472.47
30.46577,422.62,473.36
30.48588,421.10,468.56
30.50608,421.33,471.05
30.52566,422.18,467.76
30.54563,420.92,467.69
30.56700,418.67,467.14
30.58629,418.16,467.39
30.60600,418.90,467.15
30.62600,417.78,462.40
30.64643,419.32,462.68
30.66688,420.64,464.36
30.68601,417.47,465.07
30.70671,419.41,460.88
30.72574,419.34,460.01
30.74520,418.87,460.02
30.76579,417.31,461.48
30.78526,418.12,483.00
30.80568,419.39,509.24
30.82695,420.80,540.21
30.84702,423.13,569.22
30.86557,427.19,593.03
30.88513,429.29,594.86
30.90513,433.05,596.51
30.92714,432.56,586.98
30.94581,430.76,576.29
30.96715,432.66,563.87
30.98614,428.41,546.50
31.00615,427.10,535.62
31.02571,422.72,521.60
31.04594,422.03,508.99
31.06647,421.38,499.71
31.08592,421.81,492.75
31.10557,419.69,486.63
31.12552,418.02,482.19
31.14648,418.17,478.42
31.16554,419.18,478.31
31.18547,418.58,472.81
31.20648,419.80,471.23
31.22624,419.76,472.77
31.24701,420.02,472.26
31.26724,419.80,470.56
31.28565,419.04,473.75
31.30686,419.85,471.29
31.32547,421.83,472.25
31.34553,417.58,470.74
31.36565,419.44,471.77
31.38682,419.90,471.75
31.40606,418.80,471.85
31.42649,419.78,471.66
31.44610,420.17,470.09
31.46588,420.75,472.19
31.48677,418.93,472.64
31.50725,421.48,470.70
31.52531,422.56,472.65
31.54634,420.68,473.55
31.56686,421.38,468.29
31.58716,421.80,464.97
31.60639,421.72,458.21
31.62690,421.01,444.96
31.64627,421.10,427.43
31.66641,420.13,405.25
31.68675,416.11,388.18
31.70525,416.23,376.54
31.72614,416.30,373.50
31.74677,417.50,371.68
31.76691,416.63,370.90
31.78668,415.23,377.77
31.80574,419.37,383.52
31.82602,418.18,389.13
31.84634,419.11,394.53
31.86697,418.17,402.46
31.88602,417.32,409.63
31.90633,417.60,416.33
31.92668,417.15,421.22
31.94582,420.11,428.05
31.96609,421.53,431.31
31.98673,418.69,437.71
32.00533,423.67,437.84
32.02645,421.95,445.94
32.04586,420.50,450.00
32.06535,420.70,450.42
32.08562,421.17,451.88
32.10546,421.08,453.43
32.12704,421.76,456.11
32.14611,423.98,459.42
32.16691,423.52,461.35
32.18671,422.73,460.56
32.20704,421.33,463.31
32.22556,424.39,464.51
32.24570,423.89,462.45
32.26574,424.09,462.05
32.28710,425.46,463.93
32.30518,424.29,462.90
32.32562,421.78,460.80
32.34671,423.76,462.64
32.36601,424.79,462.28
32.38608,423.49,461.40
32.40758,426.28,464.36
32.42664,423.07,466.90
32.44763,426.46,466.13
32.46817,426.13,470.80
32.48786,424.69,470.72
32.50685,426.26,467.56
32.52637,424.02,469.32
32.54765,427.86,470.09
32.56706,424.97,470.95
32.58721,426.27,470.83
32.60643,429.61,471.18
32.62725,426.01,469.87
32.64741,426.44,470.99
32.66798,427.00,469.89
32.68656,428.88,470.10
32.70658,430.61,467.94
32.72691,428.05,468.69
32.74765,429.34,470.10
32.76639,428.62,469.49
32.78640,427.74,467.47
32.80772,429.36,466.47
32.82708,428.98,466.97
32.84786,430.24,466.28
32.86625,430.20,469.39
32.88687,428.63,470.35
32.90612,430.42,467.11
32.92636,427.21,469.66
32.94729,428.28,468.72
32.96800,431.01,471.66
32.98746,428.66,469.72
33.00822,433.44,467.61
33.02728,432.73,469.41
33.04710,430.65,469.65
33.06811,433.70,469.44
33.08619,432.50,467.84
33.10712,429.92,466.68
33.12748,430.68,466.98
33.14771,430.79,466.63
33.16809,430.05,468.07
33.18709,431.94,467.14
33.20797,428.35,466.75
33.22636,429.92,469.99
33.24791,427.24,468.76
33.26772,428.06,468.96
33.28807,428.92,467.95
33.30710,426.68,469.88
33.32651,430.49,470.83
33.34688,427.20,468.72
33.36794,430.54,469.58
33.38769,430.06,469.20
33.40752,429.64,469.45
33.42634,430.13,471.76
33.44798,430.78,470.13
33.46681,428.56,472.45
33.48697,431.45,470.86
33.50793,432.23,470.25
33.52642,431.13,470.60
33.54810,431.48,472.39
33.56790,428.09,469.59
33.58731,432.25,469.33
33.60735,430.53,472.41
33.62757,429.11,473.06
33.64624,429.93,470.12
33.66751,432.42,470.46
33.68729,432.18,473.07
33.70774,430.25,469.58
33.72756,433.40,470.08
33.74715,430.59,471.85
33.76636,429.56,471.91
33.78648,430.93,468.93
33.80747,430.20,470.80
33.82775,431.42,469.29
33.84756,430.83,471.21
33.86744,431.49,471.64
33.88774,431.20,469.12
33.90687,432.64,470.06
33.92800,430.68,469.07
33.94805,431.37,469.63
33.96798,429.88,470.07
33.98754,429.76,466.57
34.00739,430.85,466.93
34.02739,427.89,468.83
34.04625,429.01,469.58
34.06680,430.80,467.34
34.08741,428.60,467.45
34.10790,431.82,467.52
34.12781,429.97,466.83
34.14714,431.23,468.15
34.16779,432.30,466.51
34.18646,429.78,469.13
34.20829,430.96,466.13
34.22817,431.39,468.94
34.24729,432.17,467.23
34.26814,432.62,466.62
34.28817,433.36,467.45
34.30816,433.03,471.31
34.32801,436.45,468.14
34.34751,435.19,469.08
34.36882,434.93,468.30
34.38762,438.46,470.56
34.40789,434.83,469.27
34.42897,438.75,470.86
34.44834,439.42,470.20
34.46809,437.49,469.81
34.48748,435.93,470.08
34.50800,434.92,469.94
34.52757,433.47,471.57
34.54801,432.93,470.16
34.56905,435.22,467.21
34.58779,435.60,469.30
34.60919,436.61,467.64
34.62785,436.66,468.18
34.64842,438.92,469.16
34.66849,438.67,465.68
34.68910,438.16,467.46
34.70817,438.04,465.66
34.72806,439.09,465.12
34.74839,438.06,468.38
34.76805,436.49,469.81
34.78954,438.62,469.42
34.81071,438.05,471.33
34.83020,436.57,468.83
34.84969,436.79,469.67
34.87037,439.63,468.94
34.89042,436.50,468.81
34.91098,437.16,481.65
34.92997,439.37,497.80
34.95086,440.24,518.40
34.97073,438.09,537.50
34.99107,438.23,553.74
35.01018,441.06,564.89
35.03023,440.83,566.42
35.05164,438.03,565.04
35.07188,441.30,559.89
35.09080,438.51,554.15
35.11186,440.88,542.55
35.13235,437.70,533.66
35.15162,438.57,527.10
35.17046,438.41,516.80
35.19145,437.89,513.21
35.21170,437.07,508.29
35.23103,436.64,501.13
35.25124,434.04,500.60
35.27198,436.52,494.69
35.29122,436.28,492.12
35.31087,434.33,488.85
35.33149,435.85,488.55
35.35089,435.14,484.14
35.37168,434.45,484.52
35.39200,432.88,483.48
35.41081,435.53,482.10
35.43173,435.22,477.22
35.45047,430.82,477.55
35.47013,431.92,479.02
35.49054,432.56,476.78
35.51041,431.83,478.23
35.53140,432.37,477.25
35.55113,435.73,474.30
35.57050,434.59,478.02
35.59053,435.10,477.39
35.61053,431.93,474.56
35.63210,433.11,474.91
35.65185,436.10,476.15
35.67186,435.40,477.24
35.69158,435.28,474.92
35.71079,433.51,475.51
35.73171,433.25,477.33
35.75065,435.04,474.63
35.77084,436.28,473.41
35.79048,435.77,473.54
35.81133,435.04,473.06
35.83050,433.13,472.54
35.85140,434.51,475.99
35.87128,434.45,474.27
35.89159,430.81,471.17
35.91071,430.75,474.32
35.93118,432.01,473.25
35.95078,430.64,472.62
35.97148,434.14,472.23
35.99038,431.53,472.93
36.01110,434.56,476.79
36.03136,433.35,477.23
36.05098,431.89,474.82
36.07101,433.83,457.87
36.09140,436.34,438.87
36.11020,435.85,415.92
36.13175,435.21,397.32
36.15066,432.26,384.74
36.17092,430.76,383.65
36.19122,434.28,383.59
36.21163,433.24,383.59
36.23080,431.35,389.90
36.25113,430.88,391.99
36.27198,429.22,397.50
36.29051,428.87,403.04
36.31028,428.71,411.81
36.33106,431.84,418.97
36.35047,428.88,424.59
36.37111,429.03,434.23
36.39037,432.27,441.43
36.41099,430.67,444.64
36.43040,430.94,448.68
36.45134,429.63,453.79
36.47149,430.31,455.51
36.49135,429.55,455.50
36.51147,428.82,460.63
36.53096,432.04,460.78
36.55106,432.13,462.79
36.57167,429.60,463.85
36.59045,429.84,467.54
36.61174,432.06,467.74
36.63133,432.77,468.05
36.65038,430.62,467.87
36.67176,431.97,470.09
36.69021,430.54,469.05
36.71169,431.80,470.26
36.73050,431.28,470.32
36.75130,430.28,473.05
36.77092,432.58,472.94
36.79139,432.54,473.79
36.81101,433.21,474.25
36.83025,430.58,476.60
36.85066,429.79,473.38
36.87204,429.00,473.95
36.89064,427.57,473.42
36.91194,427.44,472.57
36.93142,430.28,474.88
36.95164,428.99,471.95
36.97015,429.50,472.90
36.99064,428.22,470.60
37.01142,430.69,472.42
37.03169,427.02,470.23
37.05180,429.23,470.94
37.07102,429.73,470.68
37.09178,429.30,470.23
37.11180,429.62,469.40
37.13165,429.94,470.16
37.15172,428.66,471.73
37.17134,429.37,470.93
37.19160,427.18,471.48
37.21103,427.42,471.61
37.23027,428.83,473.80
37.25179,425.99,473.45
37.27025,429.36,471.51
37.29133,427.45,471.01
37.31047,428.61,471.24
37.33209,428.26,474.26
37.35204,427.96,473.44
37.37010,429.32,471.73
37.39056,430.40,471.67
37.41041,430.20,471.71
37.43020,428.86,470.28
37.45172,429.68,470.41
37.47083,428.11,471.85
37.49167,429.38,473.54
37.51201,426.02,472.74
37.53170,428.92,472.72
37.55142,424.34,472.95
37.57252,425.88,472.78
37.59205,422.55,472.11
37.61156,425.55,475.41
37.63228,422.50,473.93
37.65132,424.96,472.18
37.67222,421.83,475.35
37.69134,425.55,474.70
37.71100,425.45,473.36
37.73195,423.94,474.25
37.75308,423.33,470.38
37.77253,425.57,474.18
37.79213,424.68,474.95
37.81140,422.89,471.94
37.83222,424.88,470.40
37.85140,422.92,471.88
37.87116,422.69,470.74
37.89107,422.40,471.68
37.91260,421.52,471.87
37.93247,420.10,472.74
37.95197,423.33,471.21
37.97187,422.50,469.43
37.99153,421.65,469.73
38.01139,423.27,470.71
38.03289,422.86,470.60
38.05221,421.43,469.11
38.07101,422.13,468.14
38.09220,420.31,468.36
38.11170,420.74,470.49
38.13174,423.38,468.18
38.15225,420.79,470.60
38.17117,421.04,469.24
38.19130,424.30,470.90
38.21107,423.65,469.15
38.23262,423.18,471.02
38.25187,421.13,470.52
38.27286,422.70,472.82
38.29170,421.20,469.46
38.31224,416.57,470.44
38.33275,416.68,468.40
38.35143,418.42,472.64
38.37135,416.80,470.84
38.39216,418.25,472.72
38.41243,418.15,473.81
38.43246,419.61,471.20
38.45180,418.31,471.53
38.47189,419.49,471.81
38.49222,420.52,471.96
38.51115,418.41,473.46
38.53260,418.08,471.18
38.55173,419.90,472.51
38.57155,419.82,471.47
38.59282,420.86,472.01
38.61173,419.77,471.23
38.63143,419.35,472.31
38.65261,422.25,471.87
38.67232,420.23,473.03
38.69162,418.82,472.90
38.71217,420.06,471.75
38.73214,421.20,470.65
38.75159,421.27,468.54
38.77273,420.44,467.72
38.79205,418.87,466.40
38.81258,418.83,468.63
38.83140,420.21,468.09
38.85126,419.12,469.41
38.87155,417.49,466.74
38.89166,420.14,470.69
38.91202,418.95,467.59
38.93304,418.11,471.33
38.95217,420.88,469.05
38.97261,421.73,471.40
38.99216,421.48,466.72
39.01337,421.75,467.52
39.03319,419.56,471.07
39.05219,419.22,467.98
39.07399,417.46,466.11
39.09453,416.20,469.29
39.11315,414.22,466.32
39.13362,416.15,466.76
39.15420,417.12,466.67
39.17468,417.51,466.43
39.19314,415.61,465.88
39.21462,417.05,466.75
39.23361,417.20,463.99
39.25413,417.48,463.47
39.27364,419.13,462.60
39.29439,420.87,464.00
39.31457,418.28,463.58
39.33484,418.51,463.23
39.35473,415.79,464.46
39.37455,417.46,464.19
39.39334,417.16,465.57
39.41474,417.42,462.31
39.43510,416.34,462.67
39.45397,420.69,464.35
39.47357,420.35,476.02
39.49314,420.35,492.40
39.51319,421.04,516.22
39.53330,421.89,534.59
39.55490,424.81,549.71
39.57331,422.42,559.66
39.59415,420.76,558.23
39.61324,422.56,557.21
39.63409,422.64,552.65
39.65460,422.45,544.10
39.67483,423.90,530.26
39.69426,421.04,523.97
39.71404,420.50,512.95
39.73462,420.90,506.39
39.75495,421.55,500.67
39.77444,422.97,496.59
39.79361,418.78,491.88
39.81320,418.51,491.48
39.83402,417.82,487.38
39.85452,415.89,483.62
39.87385,414.95,482.52
39.89407,415.38,477.87
39.91328,417.82,479.27
39.93455,413.67,477.36
39.95347,413.60,474.95
39.97351,414.80,474.26
39.99400,415.12,472.11
40.01388,417.22,472.51
40.03375,418.71,471.96
40.05293,418.84,470.64
40.07373,418.25,471.94
40.09396,417.94,473.28
40.11432,421.90,468.96
40.13345,420.17,469.50
40.15327,421.26,468.67
40.17376,420.16,469.55
40.19374,421.58,470.01
40.21431,422.62,469.74
40.23408,422.17,469.59
40.25488,422.18,468.68
40.27315,421.27,468.68
40.29373,420.25,469.67
40.31483,419.75,468.65
40.33452,420.69,470.06
40.35325,419.85,467.26
40.37384,421.31,470.06
40.39358,422.12,467.29
40.41360,418.89,466.81
40.43398,419.49,468.03
40.45319,419.93,465.98
40.47412,419.65,463.52
40.49466,419.59,465.32
40.51319,418.07,468.07
40.53310,418.02,466.24
40.55321,420.41,468.92
40.57293,418.74,468.97
40.59364,420.31,471.33
40.61414,421.87,469.11
40.63390,422.40,470.81
40.65451,418.87,471.10
40.67316,421.22,470.22
40.69498,420.84,470.52
40.71357,421.52,467.89
40.73428,422.97,463.40
40.75465,420.83,454.62
40.77462,423.41,435.98
40.79439,422.85,415.88
40.81375,419.91,400.66
40.83447,420.55,389.13
40.85503,420.38,381.35
40.87328,419.93,376.48
40.89424,419.71,377.97
40.91476,417.87,381.92
40.93454,417.89,390.07
40.95311,416.73,395.58
40.97433,418.90,401.64
40.99322,419.56,410.34
41.01297,422.33,412.70
41.03301,424.87,417.11
41.05474,424.44,423.23
41.07432,423.29,428.21
41.09383,424.55,429.22
41.11449,423.46,433.75
41.13560,423.13,439.51
41.15554,421.91,443.67
41.17497,423.33,448.55
41.19545,424.73,451.19
41.21611,425.93,456.12
41.23667,426.43,457.76
41.25616,430.53,457.59
41.27655,428.98,461.26
41.29667,431.75,463.54
41.31754,432.31,462.26
41.33655,431.92,465.33
41.35797,430.86,467.31
41.37631,432.02,465.61
41.39771,434.37,465.82
41.41736,433.04,466.91
41.43740,435.45,465.15
41.45727,433.74,465.81
41.47630,433.48,466.11
41.49646,433.14,466.59
41.51611,433.43,466.03
41.53722,433.82,467.88
41.55958,431.95,467.89
41.57811,433.53,469.83
41.59876,432.41,470.59
41.61823,433.69,472.88
41.63842,432.59,473.13
41.65821,431.79,473.36
41.67870,432.59,470.09
41.69831,432.05,471.30
41.71976,435.68,471.31
41.73935,432.67,469.71
41.75803,432.26,472.82
41.77860,434.30,468.82
41.79913,432.17,469.81
41.81835,433.60,470.54
41.83792,431.80,471.95
41.85835,432.02,471.70
41.87963,435.37,470.41
41.89822,433.47,469.59
41.91951,436.40,471.99
41.93946,435.58,470.46
41.95871,436.08,470.71
41.97835,434.35,474.45
41.99893,437.52,472.09
42.01873,437.46,470.19
42.04080,438.03,472.18
42.06083,435.91,469.47
42.07960,436.47,472.60
42.09984,437.80,471.51
42.12102,436.13,472.31
42.13933,437.86,470.04
42.16098,437.24,469.88
42.18095,437.00,471.24
42.19919,435.19,472.85
42.22027,436.31,473.88
42.24019,435.92,475.06
42.26080,437.40,475.04
42.27966,434.17,471.18
42.30054,436.64,474.59
42.31954,433.49,471.25
42.34060,432.12,473.76
42.36187,435.44,473.09
42.38049,436.21,472.64
42.40139,434.55,471.21
42.42013,433.42,470.51
42.44147,435.99,474.82
42.46092,433.31,473.62
42.48084,435.47,471.45
42.50161,432.78,472.56
42.52162,434.07,471.92
42.54058,436.18,473.55
42.56010,433.69,475.82
42.58036,435.92,479.46
42.60188,440.26,488.88
42.62018,442.91,503.50
42.64141,446.10,517.90
42.66006,448.48,531.82
42.68081,451.33,547.58
42.70087,451.28,558.84
42.72079,450.99,570.02
42.74116,455.33,571.60
42.76192,454.23,570.37
42.78120,455.35,562.56
42.80073,454.19,544.94
42.82174,454.60,528.09
42.84120,449.59,506.00
42.86277,449.05,485.22
42.88125,444.17,467.21
42.90198,444.02,446.36
42.92285,437.71,427.12
42.94114,433.33,409.58
42.96120,426.11,396.40
42.98170,423.36,387.49
43.00133,423.57,384.17
43.02156,420.52,389.58
43.04208,422.05,408.29
43.06242,426.84,437.97
43.08354,429.27,472.40
43.10211,434.85,505.84
43.12285,438.98,535.23
43.14380,443.66,552.11
43.16329,445.57,560.85
43.18344,449.87,569.93
43.20321,448.78,576.72
43.22263,452.04,582.27
43.24244,453.14,582.03
43.26270,452.58,580.28
