Program Time [s],data 0,data 1
10.56335,569.31,610.79
10.58293,566.89,613.22
10.60278,565.76,615.34
10.62417,565.11,613.58
10.64342,567.48,614.66
10.66521,566.84,611.96
10.68365,563.71,611.66
10.70507,565.38,610.61
10.72487,560.53,610.22
10.74524,560.66,609.63
10.76399,562.88,610.40
10.78385,562.00,608.06
10.80360,561.81,607.18
10.82403,559.48,608.09
10.84363,560.57,606.28
10.86404,559.26,606.48
10.88493,559.71,607.21
10.90477,560.69,608.23
10.92409,561.00,609.61
10.94393,563.05,610.87
10.96405,560.92,614.46
10.98526,561.08,613.78
11.00354,559.35,616.57
11.02462,558.67,617.10
11.04372,558.37,615.94
11.06471,559.87,613.83
11.08443,558.15,615.10
11.10331,561.26,615.82
11.12389,557.73,616.86
11.14524,560.12,617.05
11.16322,558.40,618.75
11.18369,558.29,615.45
11.20463,561.55,616.54
11.22377,559.17,618.06
11.24331,561.05,619.10
11.26345,562.60,616.49
11.28581,560.54,616.91
11.30521,559.60,618.52
11.32414,559.12,617.56
11.34477,559.60,621.49
11.36586,563.41,636.07
11.38461,569.40,662.00
11.40441,569.17,705.33
11.42457,576.48,741.27
11.44557,578.04,765.86
11.46573,577.46,762.44
11.48538,572.61,745.58
11.50618,571.49,715.32
11.52581,566.67,686.18
11.54649,563.64,653.87
11.56569,559.91,626.85
11.58626,557.02,606.62
11.60619,557.79,590.12
11.62639,555.70,575.78
11.64566,551.57,569.66
11.66688,555.20,564.11
11.68615,557.68,563.40
11.70662,554.74,562.32
11.72588,556.48,561.88
11.74714,554.77,568.45
11.76647,555.81,582.29
11.78707,562.14,607.81
11.80602,565.75,638.29
11.82596,575.14,684.15
11.84709,583.01,729.63
11.86720,591.19,770.89
11.88602,589.92,798.75
11.90556,588.61,815.33
11.92628,586.80,816.59
11.94594,582.25,813.37
11.96611,573.76,790.47
11.98622,569.85,752.97
12.00644,563.27,711.01
12.02668,559.27,664.19
12.04673,554.94,625.66
12.06632,549.27,593.28
12.08551,544.69,564.80
12.10667,542.79,546.67
12.12594,542.23,529.01
12.14603,540.09,517.61
12.16642,538.51,511.74
12.18575,538.34,508.50
12.20646,538.46,508.49
12.22683,540.48,512.67
12.24592,543.84,515.53
12.26583,546.60,519.97
12.28538,547.40,525.02
12.30542,549.17,533.49
12.32736,551.48,539.10
12.34646,551.90,547.02
12.36532,553.31,555.05
12.38525,552.94,559.64
12.40647,553.35,567.62
12.42602,555.61,573.89
12.44530,554.24,579.92
12.46521,556.41,585.11
12.48515,559.00,591.13
12.50656,557.19,596.82
12.52553,557.34,598.49
12.54715,556.72,606.47
12.56638,559.03,609.11
12.58706,559.87,610.52
12.60595,562.51,612.97
12.62666,560.06,617.09
12.64725,561.50,618.67
12.66566,560.79,617.39
12.68574,561.78,618.13
12.70592,560.31,616.38
12.72599,560.18,620.36
12.74684,558.88,621.14
12.76534,560.00,619.86
12.78637,560.56,623.02
12.80707,561.90,621.96
12.82616,561.89,621.09
12.84584,560.02,621.02
12.86591,562.62,621.20
12.88656,563.54,622.41
12.90608,562.42,621.72
12.92608,564.77,623.16
12.94667,564.52,623.83
12.96519,561.54,625.34
12.98658,561.76,624.45
13.00590,562.63,625.66
13.02638,560.44,624.36
13.04638,562.53,627.06
13.06633,560.85,626.67
13.08580,558.42,629.38
13.10560,559.42,628.95
13.12549,559.53,629.06
13.14592,558.80,628.43
13.16556,558.59,627.56
13.18622,561.52,629.38
13.20589,560.69,629.30
13.22606,557.91,629.41
13.24600,558.98,629.54
13.26590,561.21,628.05
13.28621,563.75,626.27
13.30719,565.29,625.13
13.32663,562.66,623.95
13.34641,563.39,627.92
13.36702,566.52,624.59
13.38640,564.77,625.40
13.40569,563.14,623.02
13.42696,563.25,624.84
13.44536,564.41,624.11
13.46523,565.89,623.95
13.48677,563.26,624.90
13.50627,565.84,622.52
13.52560,565.45,621.73
13.54684,562.61,625.18
13.56696,561.78,624.80
13.58566,562.28,621.45
13.60646,562.63,622.70
13.62651,566.23,622.07
13.64658,564.26,620.73
13.66687,563.19,622.71
13.68567,563.48,622.18
13.70701,564.34,621.68
13.72646,567.48,620.66
13.74701,566.83,621.18
13.76713,565.68,621.82
13.78770,563.46,624.39
13.80748,563.05,625.70
13.82766,572.63,627.78
13.84752,597.43,636.60
13.86792,630.73,648.93
13.88702,665.98,658.51
13.90692,696.98,660.36
13.92721,719.42,659.57
13.94805,732.77,655.35
13.96895,736.48,645.55
13.98862,734.23,636.18
14.00725,730.04,627.88
14.02798,719.81,619.92
14.04740,710.43,614.67
14.06899,697.58,609.87
14.08842,688.31,604.81
14.10846,675.30,605.98
14.12748,663.29,604.62
14.14898,655.16,602.90
14.16895,644.87,605.77
14.18861,633.80,603.65
14.20763,627.73,607.84
14.22777,618.90,607.55
14.24817,612.17,605.30
14.26732,607.51,607.56
14.28914,602.50,608.88
14.30737,596.54,613.22
14.32715,594.78,613.21
14.34883,588.82,616.69
14.36913,584.46,613.33
14.39023,580.07,616.53
14.40945,582.45,614.29
14.42927,577.52,615.67
14.44938,577.94,616.67
14.46853,576.71,619.74
14.48919,575.10,618.87
14.50885,571.92,621.99
14.53015,571.45,618.92
14.55022,570.67,619.14
14.56891,571.49,622.81
14.58998,571.48,620.80
14.60939,572.38,618.74
14.62959,569.23,618.90
14.64833,568.61,617.88
14.66936,567.97,618.25
14.68948,569.13,619.88
14.70942,568.36,617.73
14.72994,568.02,618.26
14.74966,565.78,618.05
14.76964,565.88,617.14
14.78947,566.45,615.83
14.80813,564.75,617.31
14.82992,565.41,615.12
14.84918,564.04,620.26
14.87022,563.33,633.70
14.88993,556.34,658.00
14.91017,540.30,689.33
14.93041,519.31,715.06
14.95017,495.47,730.21
14.97047,464.22,726.18
14.98968,429.66,703.99
15.01042,399.52,668.54
15.02953,372.13,631.37
15.05096,355.44,594.84
15.06957,352.06,570.43
15.09062,357.98,554.41
15.11036,369.09,540.96
15.13117,387.27,536.87
15.15116,399.52,534.13
15.17105,413.64,533.60
15.19115,433.37,538.95
15.21078,449.48,542.12
15.23216,460.67,545.33
15.25106,474.02,550.53
15.27100,485.88,553.74
15.29150,496.99,563.11
15.31146,504.19,566.64
15.33192,512.49,573.10
15.35111,520.48,574.73
15.37008,526.29,578.63
15.39203,531.01,581.42
15.41200,536.20,587.98
15.43042,540.10,588.32
15.45186,545.53,591.03
15.47052,545.76,594.17
15.49103,548.62,598.25
15.51070,555.25,601.54
15.53165,557.16,600.30
15.55194,556.89,602.99
15.57042,559.48,605.13
15.59074,558.67,606.89
15.61077,562.52,605.53
15.63023,562.35,604.41
15.65100,564.28,604.97
15.67177,562.48,606.14
15.69084,566.05,607.07
15.71091,563.93,607.05
15.73025,564.11,603.09
15.75072,564.64,602.70
15.77076,567.75,601.94
15.79035,567.19,603.22
15.81119,570.02,603.67
15.83069,569.86,603.50
15.85131,570.46,602.08
15.87182,567.29,603.85
15.89299,568.84,600.31
15.91148,568.91,600.92
15.93223,569.37,601.16
15.95214,566.82,603.26
15.97216,566.34,604.22
15.99198,566.75,604.35
16.01144,564.99,605.64
16.03200,565.61,604.96
16.05112,565.56,607.56
16.07295,562.19,607.35
16.09114,564.38,608.12
16.11164,563.60,608.33
16.13130,564.21,607.86
16.15151,563.40,606.26
16.17305,564.99,605.54
16.19266,564.89,604.83
16.21128,567.60,604.96
16.23235,566.37,603.75
16.25136,563.59,605.64
16.27286,564.34,604.29
16.29295,566.39,605.51
16.31181,564.74,603.97
16.33265,567.77,604.72
16.35155,565.98,604.93
16.37213,566.58,605.10
16.39148,563.90,604.35
16.41285,566.64,605.75
16.43209,567.06,606.57
16.45268,567.78,605.66
16.47378,563.76,608.11
16.49277,563.53,606.92
16.51368,566.31,607.54
16.53273,565.82,608.14
16.55211,567.79,609.15
16.57291,564.98,608.45
16.59263,564.65,607.15
16.61429,562.23,609.06
16.63389,564.79,607.59
16.65362,564.19,606.99
16.67347,566.80,605.25
16.69509,565.40,609.10
16.71375,566.74,608.51
16.73516,565.32,607.68
16.75435,565.50,606.24
16.77351,565.72,606.02
16.79331,566.84,608.67
16.81490,565.45,608.14
16.83503,565.70,606.38
16.85506,567.05,607.72
16.87505,564.35,607.61
16.89334,566.49,606.51
16.91437,565.16,605.26
16.93338,564.89,608.19
16.95487,565.78,605.55
16.97292,569.86,608.21
16.99316,566.53,608.09
17.01466,566.65,609.22
17.03458,565.58,609.01
17.05317,566.45,605.41
17.07365,566.21,607.60
17.09454,562.43,605.11
17.11527,561.69,607.90
17.13464,563.07,608.87
17.15570,565.92,608.79
17.17592,564.76,607.53
17.19501,563.57,609.37
17.21632,563.45,607.50
17.23511,563.69,606.33
17.25597,561.70,607.22
17.27694,562.42,608.29
17.29731,564.17,609.93
17.31907,562.67,610.67
17.33948,562.03,613.19
17.36154,561.24,612.77
17.38020,559.27,612.97
17.40053,561.55,615.56
17.42110,560.40,617.78
17.44191,559.30,618.59
17.46279,558.64,616.94
17.48328,562.29,618.01
17.50371,558.91,619.47
17.52429,561.69,616.23
17.54636,560.37,613.86
17.56552,562.98,612.49
17.58681,561.95,613.44
17.60604,565.61,612.30
17.62660,562.88,613.58
17.64662,561.86,615.58
17.66617,573.76,620.14
17.68644,592.79,627.07
17.70572,624.83,640.20
17.72707,658.56,653.74
17.74685,692.93,666.65
17.76537,723.46,668.75
17.78637,747.36,668.87
17.80527,760.97,662.38
17.82548,764.39,657.52
17.84576,764.08,648.59
17.86521,759.84,640.23
17.88669,751.53,628.79
17.90613,741.18,624.34
17.92635,727.96,616.50
17.94612,713.73,608.63
17.96616,698.42,607.14
17.98540,685.08,607.79
18.00617,670.47,603.84
18.02615,655.95,605.36
18.04578,644.07,602.68
18.06532,634.17,605.04
18.08542,625.82,607.37
18.10651,619.84,606.43
18.12579,612.86,608.56
18.14556,606.24,608.01
18.16619,601.26,608.65
18.18671,592.94,610.25
18.20639,590.67,610.45
18.22617,586.10,611.54
18.24706,582.78,610.46
18.26692,579.78,609.28
18.28678,578.50,612.28
18.30587,576.01,614.24
18.32704,575.45,611.51
18.34586,573.89,611.81
18.36607,571.24,612.68
18.38525,572.39,611.32
18.40577,570.80,610.55
18.42655,572.99,613.45
18.44561,568.85,614.34
18.46698,568.01,613.53
18.48622,569.62,611.20
18.50651,567.23,613.36
18.52638,565.55,612.27
18.54553,564.08,613.01
18.56530,564.20,614.32
18.58699,561.90,619.89
18.60666,558.94,618.06
18.62660,560.36,621.48
18.64675,563.01,620.70
18.66643,561.29,615.85
18.68701,561.27,613.04
18.70540,564.95,611.36
18.72638,564.05,609.98
18.74639,563.68,609.78
18.76548,568.55,608.02
18.78532,568.55,607.13
18.80712,568.77,611.01
18.82631,561.02,621.26
18.84572,551.13,635.66
18.86640,530.07,645.27
18.88509,500.29,649.77
18.90557,466.81,641.14
18.92561,434.92,622.83
18.94627,407.73,604.09
18.96565,379.95,585.69
18.98520,366.53,569.01
19.00579,364.27,560.49
19.02526,368.86,553.26
19.04608,378.70,548.36
19.06628,391.46,549.60
19.08595,408.23,548.70
19.10603,421.95,551.56
19.12553,434.94,553.12
19.14688,450.22,556.18
19.16664,465.14,563.13
19.18583,476.43,565.69
19.20521,485.97,569.16
19.22568,494.80,573.14
19.24617,502.49,576.26
19.26670,514.74,579.59
19.28585,522.98,583.23
19.30533,525.96,584.62
19.32710,535.20,588.87
19.34669,537.20,590.23
19.36641,541.07,597.13
19.38702,543.14,595.47
19.40591,542.44,598.71
19.42518,547.09,600.11
19.44594,548.54,599.41
19.46626,548.12,602.14
19.48574,551.85,602.19
19.50577,553.87,607.31
19.52582,554.32,604.33
19.54692,556.66,605.53
19.56633,557.44,607.51
19.58636,557.92,607.08
19.60574,557.57,603.99
19.62700,559.00,605.56
19.64681,561.65,606.93
19.66536,558.20,607.35
19.68703,561.36,609.31
19.70575,562.31,607.94
19.72688,560.76,609.88
19.74508,562.51,608.83
19.76634,563.35,605.72
19.78589,565.81,605.34
19.80546,565.81,605.68
19.82626,567.36,606.99
19.84622,568.01,606.90
19.86636,567.29,604.47
19.88699,569.38,604.78
19.90547,565.69,603.61
19.92553,564.27,604.87
19.94673,562.99,604.66
19.96659,565.26,604.48
19.98518,564.76,606.14
20.00564,566.70,603.51
20.02698,565.83,606.77
20.04534,566.45,606.14
20.06601,568.21,607.17
20.08535,568.19,605.75
20.10646,569.79,603.91
20.12695,568.40,604.27
20.14596,567.03,605.51
20.16551,565.38,603.56
20.18670,566.74,602.77
20.20670,564.89,604.12
20.22623,563.52,602.02
20.24643,563.92,601.91
20.26669,565.05,605.44
20.28682,567.11,606.12
20.30521,566.40,605.52
20.32637,566.23,603.72
20.34556,569.47,602.43
20.36681,570.78,605.19
20.38589,570.67,605.30
20.40622,569.78,603.77
20.42547,566.35,604.14
20.44647,568.19,604.43
20.46575,564.39,606.41
20.48697,565.70,604.90
20.50522,562.75,605.17
20.52591,563.88,603.29
20.54644,562.01,603.50
20.56567,562.02,602.18
20.58716,563.29,603.45
20.60740,562.15,604.28
20.62612,563.01,605.84
20.64732,563.65,604.07
20.66778,564.85,605.29
20.68592,563.47,605.82
20.70764,565.58,605.03
20.72731,562.70,604.45
20.74752,566.36,605.45
20.76711,565.99,606.99
20.78666,563.69,606.31
20.80789,567.40,609.25
20.82622,565.65,607.25
20.84794,567.31,606.18
20.86907,564.22,607.87
20.88823,565.60,604.64
20.90777,564.62,604.96
20.92878,565.73,607.28
20.94711,568.26,608.30
20.96889,566.11,608.46
20.98874,565.94,608.32
21.00877,565.32,609.12
21.02769,563.82,609.45
21.04809,566.79,609.91
21.06841,563.66,608.81
21.08739,565.72,610.07
21.10921,562.22,607.79
21.12923,563.68,608.05
21.14864,563.26,611.22
21.17014,563.36,608.21
21.19058,563.08,606.80
21.21060,563.41,610.11
21.23164,562.42,609.73
21.25154,562.97,608.12
21.27168,564.42,611.73
21.29282,566.21,613.28
21.31340,583.47,619.65
21.33346,611.37,631.44
21.35306,648.13,644.06
21.37280,685.25,654.04
21.39234,715.64,656.99
21.41376,737.90,654.48
21.43240,753.05,651.03
21.45337,759.27,648.39
21.47353,759.79,640.33
21.49412,758.05,635.20
21.51374,749.18,627.89
21.53280,735.14,621.68
21.55373,722.64,615.74
21.57335,712.70,613.07
21.59373,697.08,610.38
21.61387,683.09,613.31
21.63372,670.37,612.75
21.65294,655.55,613.80
21.67327,645.31,611.30
21.69333,633.62,612.85
21.71347,625.26,612.27
21.73201,616.35,614.66
21.75308,610.00,612.60
21.77474,601.09,615.97
21.79402,595.29,615.06
21.81509,591.11,618.20
21.83507,584.72,616.03
21.85502,579.40,617.14
21.87653,575.59,618.40
21.89501,573.91,618.14
21.91561,571.26,618.46
21.93618,570.28,620.44
21.95750,569.91,621.80
21.97809,570.84,621.06
21.99707,568.83,621.36
22.01876,569.20,621.12
22.03760,569.44,623.47
22.05704,565.57,625.41
22.07820,568.80,623.68
22.09880,566.99,623.06
22.11874,563.48,624.64
22.13851,563.02,624.08
22.15874,564.96,622.59
22.17805,564.05,622.94
22.19748,563.67,624.35
22.21795,564.22,623.18
22.23958,558.62,623.88
22.25866,543.27,619.56
22.28087,518.11,609.97
22.30075,485.37,596.68
22.31985,451.73,586.50
22.34125,420.68,579.13
22.36015,386.53,573.74
22.38005,362.97,566.80
22.40124,348.40,569.55
22.42059,347.39,569.19
22.44059,354.49,570.20
22.46068,367.11,570.29
22.48058,381.57,573.55
22.50093,399.71,577.48
22.52140,414.39,581.53
22.54151,432.02,586.65
22.56059,447.90,589.38
22.58136,462.07,593.01
22.60008,473.25,596.28
22.62001,485.48,599.06
22.64126,495.02,602.92
22.66007,507.27,605.58
22.68089,518.00,605.83
22.70076,526.14,606.04
22.72001,534.03,609.32
22.74140,541.66,608.78
22.76173,543.06,611.06
22.78117,547.88,609.61
22.79988,547.02,609.25
22.82091,553.14,608.05
22.84187,552.69,612.86
22.86175,556.11,609.34
22.88048,556.62,609.86
22.90104,558.75,610.91
22.92132,558.44,613.10
22.94174,558.52,613.34
22.96099,562.38,611.48
22.98147,561.94,614.37
23.00155,563.48,614.86
23.02099,564.09,611.95
23.04109,563.45,610.92
23.06087,565.51,611.37
23.08020,565.12,612.50
23.10180,562.37,613.02
23.12151,564.09,611.69
23.14207,561.97,609.04
23.16167,563.87,608.67
23.18124,562.14,608.69
23.20103,561.87,607.41
23.22050,564.99,609.39
23.24016,564.02,608.89
23.26193,565.09,609.22
23.27996,564.38,608.70
23.30137,562.04,611.54
23.32154,562.38,609.47
23.34143,562.62,608.75
23.36020,563.98,612.00
23.38157,564.07,611.91
23.40043,565.55,611.02
23.42170,564.39,607.99
23.44187,564.99,611.39
23.45985,562.45,609.42
23.48084,566.10,611.49
23.50183,562.72,612.23
23.52089,564.58,610.42
23.54104,563.58,609.18
23.56051,566.48,610.23
23.58101,564.79,609.97
23.60143,566.45,609.35
23.62068,567.81,608.19
23.64132,567.42,611.13
23.66075,566.57,611.53
23.68050,570.33,611.53
23.70128,571.08,610.60
23.72103,568.69,611.66
23.74185,568.29,609.57
23.76176,566.38,611.59
23.78054,564.24,611.31
23.80199,567.03,609.43
23.82031,566.60,609.61
23.84041,563.52,611.11
23.86122,564.96,610.02
23.88199,564.94,608.77
23.90126,565.49,609.89
23.92009,569.50,610.27
23.94165,567.45,609.29
23.96011,567.50,608.74
23.98083,564.69,610.57
24.00033,566.03,609.27
24.02087,563.47,610.17
24.04163,563.35,611.78
24.06166,564.67,607.55
24.08084,567.48,610.18
24.10127,565.87,607.24
24.12125,568.78,607.43
24.14099,566.67,606.33
24.16200,567.99,608.97
24.18029,568.01,605.71
24.20014,568.28,606.66
24.22152,569.52,608.83
24.23998,568.61,607.39
24.26053,567.70,606.67
24.28003,564.08,606.86
24.30076,567.50,605.31
24.32012,564.57,603.83
24.34055,568.99,605.64
24.36075,568.09,603.73
24.38111,565.08,605.16
24.40077,562.20,602.44
24.42118,562.76,603.62
24.44022,563.75,604.38
24.46025,570.12,605.99
24.47992,583.22,609.00
24.50066,611.99,619.60
24.52165,645.77,624.07
24.54017,677.10,626.20
24.56161,708.60,629.03
24.58010,730.12,627.13
24.60097,742.31,628.97
24.62103,751.74,628.56
24.64095,755.42,627.15
24.66050,753.59,624.79
24.68086,748.33,621.83
24.70033,737.29,618.26
24.72172,726.50,613.96
24.74175,715.24,611.05
24.76037,701.39,609.06
24.78061,690.52,605.81
24.80093,677.00,605.15
24.82107,665.32,608.42
24.84071,651.08,608.55
24.86132,642.91,606.32
24.88050,630.86,606.68
24.89995,623.44,606.06
24.92058,619.46,605.99
24.94019,609.49,605.14
24.96187,604.78,605.57
24.98156,600.08,608.27
25.00189,593.41,609.13
25.01996,589.63,606.35
25.04018,587.84,609.47
25.06111,584.99,606.50
25.08101,580.54,609.15
25.10068,579.00,609.25
25.12021,577.42,608.07
25.14149,573.87,608.46
25.15993,572.01,607.87
25.18187,572.70,609.75
25.20103,570.14,607.60
25.22098,572.33,605.79
25.24116,572.11,606.65
25.26108,568.67,606.37
25.28072,569.36,606.89
25.30148,568.45,604.08
25.32183,567.51,603.49
25.34014,566.59,602.72
25.36184,566.91,604.29
25.38084,564.61,601.93
25.40042,566.03,601.79
25.42127,566.37,605.36
25.44003,566.63,606.47
25.45986,562.96,609.78
25.47993,556.71,617.06
25.50035,541.29,624.41
25.52098,516.43,628.98
25.54076,485.40,627.95
25.56094,451.36,615.47
25.58112,417.37,606.76
25.60117,388.11,592.81
25.62126,365.18,578.93
25.64122,358.80,570.82
25.66153,357.11,564.87
25.68145,366.70,561.84
25.70132,379.29,561.33
25.72144,392.02,561.20
25.73998,409.96,566.40
25.76175,426.99,568.82
25.78018,443.55,571.20
25.80189,455.95,574.47
25.82060,468.86,578.14
25.84080,483.29,581.34
25.86166,494.76,586.16
25.88181,502.35,587.19
25.90087,511.00,590.66
25.92140,519.42,593.07
25.94148,525.69,592.78
25.96025,532.10,595.28
25.98113,537.54,596.97
26.00052,539.95,601.89
26.02159,543.94,603.85
26.03995,547.53,603.92
26.06059,551.82,608.29
26.08001,554.92,606.31
26.10177,556.08,609.22
26.12194,559.51,608.98
26.14107,558.68,608.58
26.16016,560.78,607.85
26.18159,563.36,607.01
26.20274,564.53,605.48
26.22228,561.59,605.83
26.24157,561.86,604.39
26.26289,565.97,607.29
26.28130,564.06,604.27
26.30199,563.56,606.25
26.32104,565.12,605.80
26.34238,567.36,608.05
26.36243,565.34,606.87
26.38124,567.77,607.24
26.40129,566.34,605.86
26.42121,567.51,607.94
26.44196,568.19,609.02
26.46158,566.71,606.49
26.48173,566.87,606.89
26.50130,566.25,607.54
26.52149,564.65,608.23
26.54204,567.66,605.90
26.56246,565.58,607.48
26.58252,565.96,605.80
26.60170,565.69,606.50
26.62163,568.18,604.30
26.64214,565.47,604.64
26.66214,565.08,607.23
26.68298,566.02,605.75
26.70334,567.06,607.38
26.72440,566.34,606.99
26.74390,565.53,608.33
26.76519,567.54,611.50
26.78522,567.49,608.69
26.80493,565.05,612.21
26.82377,564.91,611.80
26.84387,563.47,611.17
26.86393,566.23,611.04
26.88381,564.34,612.87
26.90417,563.73,613.45
26.92578,563.39,611.62
26.94472,564.65,610.46
26.96517,564.77,610.46
26.98479,563.44,609.48
27.00371,563.77,608.60
27.02507,565.12,608.72
27.04546,565.97,610.06
27.06398,566.31,610.56
27.08395,566.51,607.33
27.10418,565.51,607.43
27.12506,565.81,609.55
27.14423,563.93,610.37
27.16522,565.75,611.76
27.18462,568.10,608.48
27.20481,565.16,607.41
27.22554,565.65,609.15
27.24386,565.24,609.74
27.26535,564.92,611.22
27.28424,564.69,610.58
27.30470,562.35,611.29
27.32441,562.38,612.93
27.34514,564.60,614.17
27.36384,562.41,611.82
27.38523,565.63,611.22
27.40565,565.75,610.38
27.42477,566.21,610.23
27.44437,564.88,612.21
27.46440,564.54,611.52
27.48391,564.71,612.33
27.50571,563.29,610.88
27.52420,563.39,612.48
27.54397,564.57,611.41
27.56422,565.96,610.25
27.58599,563.01,612.58
27.60578,562.12,611.92
27.62434,562.86,613.88
27.64401,563.52,611.67
27.66433,562.68,612.42
27.68435,563.07,609.17
27.70412,564.51,608.33
27.72584,562.85,610.46
27.74415,565.63,611.15
27.76434,566.42,609.24
27.78505,567.46,608.61
27.80548,566.96,611.33
27.82471,567.62,607.21
27.84431,565.43,606.67
27.86450,567.06,610.24
27.88569,565.47,608.75
27.90504,565.23,609.41
27.92562,561.42,610.56
27.94553,563.97,608.26
27.96502,561.39,610.24
27.98382,563.46,609.28
28.00584,563.10,610.92
28.02405,562.28,610.91
28.04519,561.33,610.32
28.06472,560.88,611.07
28.08441,563.54,611.60
28.10468,561.84,613.51
28.12427,569.37,613.70
28.14502,590.49,622.26
28.16455,620.89,632.30
28.18481,654.61,643.55
28.20572,688.50,652.96
28.22575,717.51,660.86
28.24516,740.36,665.02
28.26501,750.89,663.06
28.28516,760.68,659.12
28.30488,759.01,649.47
28.32547,755.21,642.27
28.34491,749.96,631.71
28.36554,736.59,623.55
28.38561,723.46,617.56
28.40411,711.25,607.61
28.42557,695.54,603.84
28.44536,681.23,602.42
28.46442,666.03,598.59
28.48423,652.40,597.51
28.50502,641.32,595.68
28.52559,632.41,598.45
28.54473,625.23,599.15
28.56539,617.53,601.17
28.58496,610.01,601.93
28.60560,600.77,601.10
28.62461,594.25,603.00
28.64573,592.41,602.26
28.66391,587.50,603.52
28.68558,582.81,603.35
28.70544,578.69,604.17
28.72517,577.03,606.02
28.74556,574.14,606.58
28.76435,571.27,611.05
28.78418,571.16,608.59
28.80543,568.20,610.11
28.82419,565.64,611.19
28.84526,565.89,611.41
28.86543,562.39,610.29
28.88392,562.86,609.56
28.90543,560.34,608.16
28.92511,560.67,611.15
28.94460,560.04,611.23
28.96489,558.21,614.47
28.98436,558.19,613.37
29.00421,560.48,612.89
29.02541,563.71,612.79
29.04449,550.93,608.83
29.06596,534.06,605.25
29.08485,508.90,601.56
29.10546,477.23,598.72
29.12540,440.26,596.17
29.14415,406.67,591.57
29.16444,378.53,589.09
29.18559,358.79,587.96
29.20492,355.77,586.31
29.22567,360.60,585.86
29.24402,370.04,586.17
29.26525,381.58,585.04
29.28412,396.74,589.61
29.30516,412.87,592.45
29.32590,431.53,593.23
29.34482,444.98,597.18
29.36473,460.32,600.61
29.38430,472.99,604.00
29.40409,486.58,606.65
29.42449,492.31,604.81
29.44421,502.21,606.69
29.46548,511.30,610.94
29.48452,516.80,610.81
29.50525,522.53,609.14
29.52557,528.10,608.52
29.54559,533.99,608.82
29.56760,538.53,612.42
29.58757,540.94,610.99
29.60695,542.96,614.43
29.62630,543.78,613.99
29.64668,547.66,616.22
29.66578,547.44,615.64
29.68717,550.94,614.96
29.70685,551.26,616.66
29.72734,551.17,617.67
29.74680,553.50,616.45
29.76780,554.19,615.49
29.78764,555.85,614.84
29.80733,553.47,617.20
29.82724,556.91,616.73
29.84669,556.93,618.54
29.86706,556.56,618.63
29.88622,557.86,615.41
29.90624,559.22,614.87
29.92730,560.50,617.80
29.94603,557.71,616.07
29.96705,558.92,617.46
29.98618,559.70,616.19
30.00730,559.31,616.94
30.02581,557.81,617.28
30.04623,559.89,614.13
30.06750,559.35,614.12
30.08859,558.30,616.19
30.10725,556.81,615.75
30.12847,558.83,617.66
30.14738,556.38,617.24
30.16855,557.85,618.46
30.18804,559.09,618.07
30.20815,557.16,618.55
30.22984,557.76,617.64
30.24904,556.82,618.54
30.26989,557.83,618.33
30.28926,561.10,617.35
30.30823,560.08,619.37
30.32881,558.80,617.68
30.34816,558.45,616.99
30.36849,558.76,620.11
30.38777,555.47,617.02
30.40964,558.43,618.85
30.42858,557.50,618.42
30.44824,557.41,619.85
30.46861,555.89,618.94
30.48965,556.35,622.63
30.50995,557.42,622.71
30.52805,557.20,622.09
30.54914,557.13,621.67
30.56969,558.46,621.47
30.58867,557.60,620.62
30.60895,559.44,619.90
30.62946,557.95,617.62
30.64881,560.55,620.66
30.66780,559.99,618.16
30.68919,559.79,620.55
30.70869,562.23,619.78
30.72855,560.77,618.67
30.74922,558.29,619.20
30.76944,558.33,618.48
30.78835,560.89,619.54
30.80877,562.30,618.83
30.82892,560.57,617.55
30.84923,559.12,617.91
30.86920,558.99,616.86
30.88967,558.78,616.90
30.90789,557.19,620.09
30.92941,559.64,618.27
30.94782,558.04,618.35
30.96888,557.51,620.27
30.98940,557.23,617.31
31.00801,558.96,619.33
31.02920,560.08,619.05
31.04798,559.27,617.40
31.06885,560.00,621.14
31.08882,559.00,619.08
31.10872,558.06,621.55
31.12852,558.82,622.44
31.14955,559.60,619.07
31.16792,558.49,620.09
31.18968,558.87,620.30
31.20837,559.37,619.71
31.22963,559.27,620.87
31.24786,558.41,621.61
31.26770,557.57,620.45
31.28925,561.65,620.37
31.30794,561.87,625.73
31.32847,561.97,626.99
31.34875,558.50,625.84
31.36966,560.42,623.76
31.39055,558.07,624.89
31.41029,560.59,623.11
31.43031,562.08,623.28
31.45095,559.25,623.09
31.47015,561.29,623.36
31.49227,560.31,623.14
31.51350,561.34,622.67
31.53314,561.54,622.49
31.55453,561.23,620.95
31.57417,563.19,620.56
31.59437,563.83,617.11
31.61489,562.68,615.79
31.63456,574.58,619.06
31.65476,602.82,624.56
31.67372,635.38,638.01
31.69457,672.80,645.91
31.71589,707.96,654.65
31.73477,736.78,659.66
31.75484,755.90,657.02
31.77496,762.85,653.99
31.79470,766.48,647.13
31.81496,761.95,640.10
31.83391,753.01,630.74
31.85531,744.37,622.74
31.87577,728.64,619.13
31.89438,716.95,613.61
31.91421,705.71,611.72
31.93433,689.97,605.72
31.95489,679.84,606.58
31.97465,664.57,601.76
31.99443,653.58,602.02
32.01365,638.89,602.25
32.03586,629.37,600.81
32.05572,623.52,600.82
32.07497,612.49,601.67
32.09569,608.36,602.85
32.11439,601.09,601.52
32.13487,597.81,605.43
32.15495,589.92,607.57
32.17408,586.62,604.06
32.19485,583.36,605.88
32.21506,582.13,605.89
32.23585,580.49,606.10
32.25562,577.33,604.30
32.27484,577.85,603.31
32.29647,576.35,604.07
32.31461,573.46,605.30
32.33492,572.27,603.87
32.35524,570.36,604.24
32.37492,573.11,605.55
32.39594,570.94,606.44
32.41523,570.75,606.91
32.43753,569.87,606.19
32.45688,570.83,610.08
32.47794,571.76,610.93
32.49775,569.57,607.90
32.51835,570.47,608.26
32.53781,567.26,608.77
32.55952,561.38,609.53
32.58041,548.15,610.61
32.59879,526.56,614.00
32.61922,496.46,613.58
32.63929,465.35,607.49
32.66078,431.13,601.41
32.68027,398.02,593.45
32.70153,369.91,581.77
32.72047,350.23,574.30
32.74289,347.41,570.97
32.76178,354.29,571.52
32.78104,365.28,572.86
32.80189,378.77,571.45
32.82272,391.01,573.95
32.84186,407.12,576.11
32.86180,423.44,580.00
32.88218,441.42,585.63
32.90151,454.81,589.19
32.92273,470.24,592.13
32.94287,480.24,594.55
32.96216,493.13,597.39
32.98220,503.35,597.94
33.00091,509.09,602.98
33.02224,517.40,601.67
33.04136,524.35,605.58
33.06074,529.01,606.48
33.08220,533.42,608.18
33.10233,539.94,606.01
33.12257,538.95,608.52
33.14350,544.49,607.35
33.16183,546.75,606.36
33.18317,548.18,609.74
33.20356,549.17,609.30
33.22479,550.53,607.58
33.24393,550.95,612.06
33.26327,552.19,610.07
33.28341,552.80,612.26
33.30293,553.11,613.83
33.32462,553.38,613.49
33.34439,552.72,614.99
33.36277,556.20,615.06
33.38296,554.48,615.44
33.40428,554.55,616.09
33.42432,556.89,613.38
33.44408,552.58,614.83
33.46407,555.52,615.32
33.48391,552.66,614.16
33.50397,552.55,614.13
33.52394,554.02,614.41
33.54480,552.72,616.07
33.56303,551.20,617.82
33.58377,554.00,617.58
33.60390,554.67,617.58
33.62512,554.16,617.73
33.64560,556.96,617.14
33.66578,556.67,617.26
33.68695,555.02,615.13
33.70640,555.02,616.02
33.72785,559.05,618.19
33.74666,557.70,616.84
33.76871,557.58,617.81
33.78957,558.03,621.57
33.80900,562.38,620.65
33.83050,560.88,619.01
33.85003,559.86,618.38
33.86999,562.10,620.35
33.88927,563.09,619.37
33.91055,563.69,622.11
33.92886,563.14,619.89
33.94998,560.64,621.28
33.96931,561.07,619.37
33.99054,565.65,623.05
34.00958,566.80,621.58
34.02917,566.38,620.67
34.04939,567.10,618.82
34.06909,565.10,621.62
34.08994,565.90,622.93
34.11063,566.46,621.28
34.12961,564.88,618.65
34.15014,561.27,620.72
34.16890,560.73,619.45
34.18913,563.87,618.86
34.21037,561.67,618.10
34.23009,562.82,620.31
34.25056,562.52,619.32
34.26968,564.08,617.46
34.28994,562.24,616.44
34.30992,559.92,617.32
34.33007,563.49,616.15
34.34924,561.89,616.80
34.36951,562.68,616.86
34.38987,563.50,615.56
34.41046,563.66,617.50
34.42997,562.90,617.05
34.44919,564.48,615.51
34.46985,563.93,618.63
34.48968,565.25,617.78
34.50943,563.72,620.38
34.53076,567.16,618.47
34.55066,566.96,617.37
34.56903,563.46,620.60
34.59015,565.03,617.77
34.60898,566.74,620.37
34.62898,566.39,618.18
34.65021,563.83,618.63
34.66981,563.22,616.08
34.68900,565.02,618.37
34.70924,563.08,618.61
34.72970,565.48,617.68
34.74967,568.46,618.68
34.76889,564.71,617.82
34.78984,564.90,618.27
34.80892,565.84,618.01
34.83066,564.61,617.86
34.85042,568.46,616.13
34.86934,565.65,614.98
34.89067,564.01,614.85
34.90965,564.51,616.36
34.93067,565.34,618.01
34.95005,563.75,617.30
34.96895,566.34,615.47
34.99043,563.06,616.63
35.01079,563.86,615.65
35.03056,572.31,619.13
35.05044,595.59,626.81
35.07038,627.43,636.93
35.09084,657.33,648.09
35.11135,687.07,657.30
35.13014,712.89,659.86
35.15001,734.35,663.25
35.16981,745.72,662.31
35.19014,754.12,656.72
35.21108,755.44,650.62
35.23143,752.79,639.81
35.25162,744.68,630.37
35.26980,733.04,623.67
35.29172,720.48,618.76
35.31061,708.38,614.85
35.33144,695.70,608.82
35.35096,687.13,606.46
35.37025,672.25,606.21
35.39156,658.48,603.43
35.40980,647.09,604.31
35.43028,635.24,604.82
35.45035,626.79,604.49
35.47133,620.68,605.11
35.49108,611.22,606.58
35.51189,604.13,602.90
35.53129,598.78,604.54
35.55196,596.52,605.96
35.57239,593.40,603.50
35.59184,589.56,602.35
35.61357,585.50,603.75
35.63295,582.46,601.61
35.65213,580.94,603.47
35.67190,577.06,603.92
35.69288,576.73,604.43
35.71382,575.29,604.67
35.73315,569.25,603.27
35.75328,570.24,602.85
35.77438,567.77,605.15
35.79258,569.21,603.12
35.81424,568.87,603.17
35.83410,570.12,603.24
35.85428,567.51,602.47
35.87486,567.41,602.05
35.89360,568.94,600.93
35.91452,567.91,603.37
35.93581,568.53,601.90
35.95749,567.24,603.66
35.97691,564.16,603.25
35.99714,556.51,606.90
36.01674,535.79,611.07
36.03696,509.45,610.53
36.05665,475.89,608.58
36.07801,441.16,602.53
36.09866,407.95,595.36
36.11674,380.52,584.87
36.13813,360.48,578.35
36.15757,352.28,578.03
36.17763,357.31,576.50
36.19760,368.01,578.84
36.21847,382.34,576.45
36.23665,397.53,579.37
36.25852,413.99,580.50
36.27689,429.19,587.19
36.29691,443.75,587.42
36.31735,456.58,587.78
36.33853,471.41,590.91
36.35858,481.75,596.27
36.37788,492.98,596.49
36.39685,503.10,599.29
36.41698,510.87,601.35
36.43787,516.72,599.45
36.45722,522.97,601.77
36.47725,528.65,600.81
36.49658,535.81,602.25
36.51792,538.29,600.67
36.53808,544.49,604.77
36.55811,546.70,604.68
36.57797,546.92,605.93
36.59806,552.25,606.04
36.61742,553.67,606.21
36.63697,554.49,604.89
36.65802,555.21,604.63
36.67724,558.83,606.26
36.69680,559.85,602.90
36.71766,562.34,604.59
36.73820,562.76,608.81
36.75707,562.34,609.33
36.77792,562.11,606.62
36.79765,562.04,606.17
36.81845,565.26,608.86
36.83737,566.06,610.88
36.85715,562.12,607.04
36.87855,565.80,608.11
36.89663,562.42,608.47
36.91814,563.00,608.09
36.93855,564.37,608.34
36.95702,563.12,612.21
36.97688,562.54,612.39
36.99800,564.89,611.42
37.01862,562.46,610.11
37.03808,564.63,608.75
37.05770,560.68,608.38
37.07675,562.47,608.94
37.09742,564.73,609.30
37.11687,562.21,608.47
37.13840,564.89,611.02
37.15657,563.65,610.19
37.17819,566.08,612.41
37.19768,567.75,611.67
37.21878,567.29,608.94
37.23759,568.52,608.10
37.25855,567.64,611.01
37.27730,565.14,608.06
37.29809,566.63,611.20
37.31845,568.20,607.45
37.33697,564.63,609.05
37.35798,567.64,609.20
37.37727,564.03,610.22
37.39835,563.73,611.49
37.41770,563.15,611.11
37.43809,564.53,611.82
37.45702,564.48,611.17
37.47781,561.39,609.27
37.49670,564.09,609.56
37.51704,563.13,609.74
37.53772,563.26,610.10
37.55845,562.93,611.29
37.57796,561.77,612.80
37.59739,564.17,609.12
37.61679,564.13,612.26
37.63778,559.70,611.35
37.65845,563.20,609.39
37.67721,563.36,611.34
37.69756,564.34,609.49
37.71678,564.47,610.86
37.73735,566.61,610.46
37.75671,567.01,610.95
37.77783,564.51,610.34
37.79817,564.22,611.96
37.81807,564.12,610.93
37.83709,562.00,611.15
37.85856,562.61,611.47
37.87862,563.70,611.65
37.89757,563.38,611.62
37.91803,565.06,609.78
37.93851,564.91,610.18
37.95747,566.08,611.70
37.97833,565.63,612.95
37.99728,567.33,613.92
38.01781,566.87,613.73
38.03864,565.97,612.14
38.05745,567.58,613.72
38.07872,566.93,611.37
38.09748,564.85,611.44
38.11822,563.40,614.43
38.13808,560.82,611.34
38.15737,562.38,612.51
38.17708,562.85,610.48
38.19770,563.33,610.33
38.21749,560.69,606.63
38.23828,564.51,606.14
38.25822,561.85,606.67
38.27742,565.13,607.22
38.29673,565.03,605.71
38.31702,565.11,605.85
38.33821,579.36,606.67
38.35834,598.06,610.80
38.37745,625.13,612.56
38.39778,652.40,617.78
38.41866,677.65,619.56
38.43797,694.85,619.50
38.45823,710.44,619.90
38.47696,722.43,619.50
38.49664,728.77,621.98
38.51698,734.93,620.78
38.53750,735.75,621.86
38.55845,730.23,622.91
38.57846,725.31,619.65
38.59714,718.89,618.97
38.61825,709.54,616.46
38.63752,699.58,617.69
38.65697,690.24,615.92
38.67674,678.48,612.92
38.69683,666.77,613.00
38.71695,657.93,610.44
38.73736,649.18,611.04
38.75742,638.69,609.76
38.77728,630.90,608.31
38.79825,621.74,609.00
38.81685,614.09,608.96
38.83692,604.88,609.08
38.85653,598.62,608.35
38.87791,595.62,609.46
38.89818,593.62,607.25
38.91816,589.25,609.60
38.93920,587.12,608.74
38.95975,584.40,608.41
38.97978,580.90,612.07
39.00112,576.10,612.55
39.02196,572.98,611.64
39.04348,569.33,612.56
39.06240,567.11,615.59
39.08155,565.14,615.18
39.10341,563.19,616.54
39.12265,562.31,614.52
39.14200,560.88,615.20
39.16353,562.01,615.83
39.18356,559.28,616.59
39.20224,560.61,618.32
39.22258,561.81,617.46
39.24337,560.14,616.21
39.26365,562.38,619.79
39.28197,561.99,619.49
39.30338,559.07,619.58
39.32245,561.61,617.50
39.34298,559.92,619.23
39.36203,559.09,619.45
39.38345,559.68,619.44
39.40284,557.66,617.76
39.42285,556.17,620.76
39.44246,558.78,619.50
39.46319,556.99,617.55
39.48328,555.48,617.77
39.50298,541.69,621.94
39.52241,520.29,622.88
39.54442,494.42,622.33
39.56491,461.15,619.41
39.58533,434.39,612.80
39.60366,404.05,606.57
39.62464,379.62,598.89
39.64443,359.12,588.91
39.66537,347.96,585.06
39.68531,350.66,584.06
39.70415,360.81,582.27
39.72418,374.86,583.63
39.74395,388.35,585.27
39.76460,403.84,586.48
39.78433,419.36,587.64
39.80441,436.77,591.63
39.82413,451.80,593.50
39.84453,465.12,595.71
39.86548,479.42,598.19
39.88432,487.51,601.24
39.90465,499.85,602.54
39.92452,508.10,603.76
39.94376,517.72,604.46
39.96441,522.73,604.22
39.98477,526.74,608.55
40.00389,531.78,608.16
40.02513,537.03,609.73
40.04639,542.88,612.30
40.06471,545.26,612.80
40.08501,544.27,612.66
40.10538,547.44,615.70
40.12613,552.47,617.33
40.14456,555.38,616.97
40.16597,555.90,616.96
40.18480,558.87,614.36
40.20495,559.06,615.71
40.22523,557.37,618.02
40.24559,559.99,618.75
40.26622,556.51,617.91
40.28509,558.99,618.63
40.30596,558.47,618.51
40.32498,559.13,614.65
40.34653,558.89,615.81
40.36522,560.53,615.80
40.38527,558.70,614.64
40.40495,557.77,613.97
40.42504,558.41,613.86
40.44540,560.21,611.88
40.46505,559.54,612.53
40.48636,560.16,614.62
40.50511,559.10,610.67
40.52474,561.76,610.63
40.54522,564.18,614.02
40.56625,562.59,614.68
40.58541,563.62,615.44
40.60614,562.80,614.29
40.62573,563.84,615.46
40.64599,563.11,616.09
40.66455,559.29,616.66
40.68503,557.85,618.96
40.70537,561.31,619.36
40.72569,563.05,616.33
40.74499,562.17,618.10
40.76631,561.30,619.17
40.78727,561.73,618.23
40.80637,562.03,616.44
40.82658,563.06,618.41
40.84744,564.66,614.85
40.86564,562.78,614.16
40.88636,563.10,615.19
40.90624,565.08,612.14
40.92725,567.94,612.53
40.94704,565.75,612.91
40.96729,565.74,612.13
40.98716,566.74,612.03
41.00645,566.49,613.11
41.02592,566.57,613.53
41.04695,563.75,615.65
41.06713,566.57,614.24
41.08704,565.90,614.19
41.10584,562.93,613.48
41.12557,562.64,615.94
41.14621,565.96,612.37
41.16605,564.80,613.12
41.18592,566.88,614.09
41.20655,564.80,614.82
41.22557,567.89,618.05
41.24726,567.50,618.38
41.26706,568.37,615.49
41.28781,567.38,615.90
41.30722,569.48,613.66
41.32800,568.64,615.15
41.34856,567.36,613.33
41.36812,571.80,610.80
41.38677,570.65,610.90
41.40812,569.40,611.03
41.42767,568.23,608.60
41.44792,566.40,606.98
41.46713,567.57,609.31
41.48793,568.37,605.66
41.50856,569.04,608.47
41.52727,567.02,606.93
41.54733,568.14,608.57
41.56659,567.92,607.17
41.58844,569.47,609.12
41.60660,570.36,608.33
41.62653,569.92,608.56
41.64818,565.94,609.35
41.66791,566.64,608.06
41.68805,565.32,609.06
41.70825,569.55,607.81
41.72789,569.93,610.76
41.75050,567.60,606.54
41.76910,568.92,608.00
41.78925,569.28,609.36
41.80890,568.21,608.56
41.82939,568.24,607.13
41.85021,567.26,605.78
41.87016,568.56,609.20
41.88896,568.29,606.88
41.91004,565.55,609.13
41.92917,566.00,608.33
41.95000,567.64,610.50
41.96884,569.07,611.15
41.98966,568.18,609.32
42.01033,567.91,609.46
42.02885,569.53,607.98
42.05044,568.55,606.59
42.06974,569.23,606.33
42.08997,567.05,607.12
42.11024,567.95,607.63
42.13033,569.39,608.32
42.15026,566.93,607.27
42.16857,569.81,608.18
42.18983,565.76,609.95
42.20955,565.16,608.29
42.22854,566.67,608.79
42.25048,568.44,608.24
42.26957,569.94,607.60
42.28989,568.91,611.14
42.30848,568.84,608.54
42.33002,568.98,607.05
42.34867,569.62,608.52
42.36954,570.38,608.12
42.38967,567.65,608.54
42.40979,566.87,607.23
42.43023,567.02,606.25
42.44883,569.83,608.82
42.46988,568.72,606.39
42.48886,565.13,609.01
42.50888,566.49,610.61
42.52875,568.07,608.00
42.55053,568.85,609.90
42.56925,566.22,607.65
42.58884,567.06,609.69
42.61005,566.34,607.31
42.63037,567.46,608.04
42.64863,564.20,606.03
42.67068,565.05,605.00
42.69059,565.09,605.62
42.70905,563.75,606.72
42.72999,561.55,607.88
42.74964,563.64,606.12
42.76855,563.74,607.19
42.78982,565.16,608.22
42.80855,563.87,605.37
42.82980,565.10,608.56
42.85009,564.97,604.55
42.86971,564.12,607.60
42.89007,562.18,606.78
42.90930,563.35,606.85
42.92974,563.21,605.18
42.95018,563.66,603.61
42.97029,563.47,606.14
42.99100,562.71,604.86
43.01246,564.86,608.43
43.03250,575.33,613.71
43.05211,604.00,627.47
43.07403,635.63,643.39
43.09465,674.76,657.41
43.11466,706.23,668.49
43.13372,735.08,670.30
43.15402,756.02,666.61
43.17414,765.88,661.67
43.19471,766.81,649.19
43.21423,764.12,639.12
43.23491,757.07,632.32
43.25413,741.17,621.46
43.27348,730.36,615.95
43.29433,713.49,607.54
43.31348,699.58,602.57
43.33464,685.61,600.35
43.35503,672.66,595.85
43.37361,660.70,594.58
43.39359,650.75,594.12
43.41363,637.31,592.95
43.43467,629.94,594.55
43.45462,618.88,596.03
43.47707,610.65,598.47
43.49636,600.28,601.81
43.51622,594.72,603.22
43.53700,591.56,606.50
43.55636,584.66,607.99
43.57589,580.91,607.98
43.59623,576.96,609.03
43.61659,576.97,613.37
43.63606,574.51,614.93
43.65673,568.66,616.64
43.67758,569.93,615.14
43.69629,567.83,614.21
43.71640,563.33,615.43
43.73673,562.01,616.18
43.75622,560.48,617.07
43.77688,561.11,614.93
43.79558,560.97,616.00
43.81759,558.22,618.29
43.83606,559.25,616.70
43.85692,556.88,614.09
43.87646,555.21,614.24
43.89660,543.34,619.24
43.91732,521.00,621.98
43.93686,493.99,623.28
43.95757,463.09,619.49
43.97717,428.40,615.37
43.99799,397.00,603.54
44.01666,369.31,598.50
44.03851,347.76,593.06
44.05705,344.66,588.78
44.07681,347.31,589.13
44.09664,360.05,585.90
44.11828,371.58,587.18
44.13728,386.80,587.43
44.15720,400.50,592.63
44.17786,418.13,594.58
44.19830,432.15,594.98
44.21755,447.76,596.69
44.23843,463.38,599.61
44.25785,472.87,602.15
44.27785,485.82,602.36
44.29740,496.31,603.61
44.31710,502.41,604.45
44.33804,509.82,604.28
44.35721,514.78,607.27
44.37669,523.47,609.02
44.39707,528.00,608.78
44.41747,530.42,612.77
44.43683,536.41,612.05
44.45694,537.47,613.47
44.47755,540.84,615.35
44.49751,541.46,616.10
44.51844,543.06,616.66
44.53759,545.34,616.62
44.55847,547.75,614.20
44.57706,549.33,613.41
44.59762,549.11,615.03
44.61706,548.41,614.36
44.63674,552.15,616.06
44.65847,551.30,616.50
44.67793,552.56,617.63
44.69857,552.67,614.48
44.71906,556.34,614.53
44.73866,553.53,615.72
44.75914,554.08,615.01
44.77940,557.93,617.32
44.79801,555.76,619.46
44.81775,555.82,616.79
44.83944,557.02,618.04
44.85882,556.60,619.60
44.87751,556.94,616.36
44.89985,558.77,619.32
44.91963,557.00,617.87
44.93957,559.40,621.79
44.95975,560.72,619.45
44.98188,561.07,619.23
45.00030,561.32,621.07
45.02218,560.53,619.30
45.04046,560.52,620.01
45.06079,558.76,620.20
45.08182,558.41,618.25
45.10183,561.76,619.88
45.12227,560.35,619.81
45.14214,561.81,623.21
45.16082,564.14,622.10
45.18241,563.90,624.65
45.20105,564.32,621.22
45.22100,562.85,622.00
45.24085,563.40,622.41
45.26159,565.61,620.16
45.28229,566.55,623.84
45.30146,564.46,621.63
45.32173,567.44,622.13
45.34130,562.49,622.98
45.36104,563.65,621.36
45.38118,565.60,622.84
45.40198,563.71,621.28
45.42314,565.14,620.69
45.44414,565.29,621.05
45.46247,566.95,617.37
45.48411,563.70,615.44
45.50626,568.65,615.07
45.52631,566.36,613.95
45.54605,568.26,610.06
45.56745,568.99,608.93
45.58790,566.19,609.87
45.60767,569.15,610.33
45.62688,566.42,607.89
45.64654,564.41,609.37
45.66686,564.84,606.53
45.68683,563.50,609.89
45.70834,566.46,606.31
45.72814,564.11,607.91
45.74809,563.13,606.70
45.76687,565.90,607.02
45.78780,563.01,605.49
45.80888,564.48,608.55
45.82918,565.94,605.38
45.84743,565.43,606.05
45.86805,565.13,604.62
45.88872,566.39,606.32
45.90834,567.19,607.31
45.92948,566.73,606.99
45.94905,567.37,606.28
45.96929,562.90,608.13
45.98791,565.54,604.15
46.00797,567.14,603.80
46.02892,566.42,604.58
46.04912,564.20,605.77
46.07023,564.99,606.29
46.09064,567.47,604.12
46.10997,563.45,607.67
46.13022,562.81,604.49
46.15035,567.45,606.80
46.17121,567.04,604.98
46.18980,567.04,606.09
46.21127,566.16,607.24
46.23035,564.99,603.78
46.25109,567.28,606.68
46.27117,565.03,606.26
46.29129,566.61,606.84
46.31001,562.73,608.70
46.33137,563.54,607.33
46.34962,567.26,606.66
46.37124,567.47,609.08
46.38994,566.87,609.06
46.40969,567.47,608.19
46.43061,567.02,610.91
46.45148,566.96,608.47
46.47097,565.55,606.98
46.49054,568.03,608.54
46.51107,566.75,607.38
46.52988,564.47,607.69
46.55067,565.36,609.02
46.56989,564.17,609.62
46.59018,564.96,609.63
46.61173,566.03,609.40
46.63125,566.08,608.96
46.65110,568.52,608.94
46.67165,567.08,608.33
46.69181,563.72,610.48
46.71148,565.15,611.00
46.73084,564.04,608.31
46.75150,561.74,611.44
46.77198,565.63,612.35
46.79246,563.91,610.65
46.81091,563.90,609.97
46.83064,562.06,608.85
46.85097,564.31,609.55
46.87123,563.11,609.99
46.89241,562.58,611.34
46.91121,562.18,607.59
46.93149,565.06,609.28
46.95252,562.08,608.68
46.97214,563.48,609.67
46.99152,564.62,609.42
47.01171,560.80,608.43
47.03148,563.22,610.45
47.05093,562.10,606.96
47.07186,561.66,605.66
47.09115,563.34,608.57
47.11087,565.03,606.10
47.13050,566.65,608.52
47.15218,569.62,609.31
47.17057,577.59,613.40
47.19121,599.82,623.17
47.21148,628.41,638.86
47.23086,653.05,654.08
47.25209,681.46,667.07
47.27068,704.29,675.49
47.29054,723.47,679.87
47.31143,738.72,683.01
47.33161,746.21,678.74
47.35128,750.25,671.31
47.37152,747.84,662.18
47.39185,739.46,649.92
47.41236,732.85,636.61
47.43262,718.17,623.56
47.45144,707.98,613.68
47.47180,696.32,604.87
47.49250,680.62,598.60
47.51233,668.56,589.83
47.53232,659.98,585.43
47.55295,643.18,582.66
47.57332,632.68,580.04
47.59150,620.25,576.82
47.61227,611.48,576.76
47.63331,607.08,580.02
47.65175,601.59,579.29
47.67252,593.07,582.75
47.69182,588.78,583.93
47.71319,584.88,590.28
47.73350,582.85,594.10
47.75214,583.30,594.14
47.77320,583.27,599.40
47.79286,580.85,600.95
47.81173,575.56,603.29
47.83136,576.29,605.21
47.85284,571.44,607.07
47.87286,570.71,605.41
47.89260,567.35,607.64
47.91212,561.86,606.66
47.93188,558.37,607.00
47.95228,557.43,607.40
47.97255,557.14,606.80
47.99312,557.42,606.90
48.01246,559.49,608.42
48.03338,561.51,609.28
48.05274,559.10,610.52
48.07207,558.77,612.77
48.09233,557.37,612.00
48.11143,549.94,614.54
48.13165,533.50,616.05
48.15274,509.57,619.54
48.17151,483.02,623.09
48.19336,449.08,622.14
48.21155,418.35,615.26
48.23276,392.69,611.23
48.25327,371.85,598.82
48.27284,355.11,592.95
48.29218,351.48,584.50
48.31155,353.77,581.56
48.33221,363.05,580.94
48.35214,378.40,579.15
48.37355,389.97,580.37
48.39318,406.50,577.72
48.41137,423.89,579.44
48.43181,439.22,584.40
48.45325,449.53,585.08
48.47225,462.64,587.31
48.49258,472.68,587.72
48.51270,484.17,590.12
48.53312,493.55,592.43
48.55163,502.84,591.71
48.57335,509.10,595.72
48.59185,516.59,596.80
48.61232,525.06,600.61
48.63306,526.97,598.64
48.65289,531.95,600.62
48.67256,532.97,602.52
48.69252,539.01,603.01
48.71220,543.25,602.23
48.73223,542.86,605.59
48.75278,546.40,604.63
48.77253,547.29,606.30
48.79325,548.93,606.51
48.81186,547.80,606.13
48.83256,550.51,606.82
48.85324,551.92,609.96
48.87171,553.19,608.63
48.89240,555.06,612.25
48.91315,554.54,608.74
48.93381,555.33,609.32
48.95279,554.32,613.31
48.97378,555.64,611.76
48.99272,555.64,611.26
49.01437,555.30,613.41
49.03278,556.39,616.82
49.05436,558.65,616.08
49.07425,557.85,617.45
49.09262,555.62,615.91
49.11390,556.44,612.75
49.13476,557.40,613.32
49.15350,556.18,613.31
49.17402,553.48,613.92
49.19332,556.69,614.97
49.21338,556.85,614.19
49.23508,555.31,617.62
49.25616,556.06,617.36
49.27552,558.04,618.24
49.29513,560.41,616.61
49.31546,559.56,617.78
49.33629,562.13,619.98
49.35585,559.42,619.86
49.37461,562.72,618.49
49.39617,558.41,620.39
49.41615,556.78,617.71
49.43477,559.20,622.11
49.45507,558.04,619.42
49.47625,556.95,620.72
49.49455,558.42,619.54
49.51638,556.01,618.37
49.53582,557.01,621.09
49.55636,557.72,619.65
49.57527,555.32,616.91
49.59461,556.83,619.76
49.61613,555.14,618.82
49.63562,556.56,618.91
49.65595,558.20,616.42
49.67447,557.90,618.74
49.69583,556.64,615.86
49.71445,556.54,617.61
49.73481,557.52,619.53
49.75639,559.99,616.10
49.77582,558.65,615.66
49.79593,561.07,617.20
49.81584,560.16,617.29
49.83605,558.17,616.62
49.85572,561.19,617.65
49.87622,560.87,618.37
49.89594,559.20,617.41
49.91663,561.39,616.13
49.93675,561.03,619.30
49.95665,558.91,617.36
49.97860,562.54,617.72
49.99914,560.49,620.60
50.01925,558.70,619.49
50.03842,562.30,620.10
50.05757,563.26,618.44
50.07856,562.82,616.73
50.09909,563.28,617.99
50.11956,565.03,616.97
50.13944,566.02,617.81
50.15956,568.66,618.87
50.17877,569.33,617.00
50.19969,564.13,616.89
50.21872,567.67,619.38
50.24039,567.07,618.33
50.25882,568.96,619.87
50.28012,566.39,618.64
50.30004,565.41,616.49
50.32033,565.62,618.08
50.34016,565.27,614.88
50.36105,565.47,615.54
50.38074,562.96,616.27
50.40130,567.36,613.36
50.42108,563.69,614.76
50.44178,564.85,611.54
50.46202,565.56,612.37
50.48209,567.58,611.31
50.50117,566.67,607.94
50.52236,565.81,607.66
50.54196,562.98,611.36
50.56079,562.27,607.19
50.58158,562.71,609.54
50.60171,565.69,609.63
50.62151,563.75,607.53
50.64133,565.96,610.53
50.66067,566.96,609.11
50.68165,564.41,608.28
50.70045,565.68,608.58
50.72181,565.28,606.20
50.74201,565.87,609.42
50.76207,563.23,609.63
50.78194,575.74,615.54
50.80321,599.82,625.50
50.82237,633.65,641.77
50.84197,669.43,656.02
50.86190,704.82,667.12
50.88345,727.27,669.00
50.90199,746.78,667.13
50.92314,757.56,659.59
50.94248,763.74,651.05
50.96334,759.56,643.42
50.98151,754.71,633.58
51.00274,744.03,622.44
51.02236,729.96,612.92
51.04243,716.83,609.69
51.06338,705.28,602.62
51.08167,689.20,596.81
51.10237,676.65,592.93
51.12418,664.77,594.12
51.14419,651.97,594.89
51.16251,641.18,593.91
51.18407,631.63,593.05
51.20330,621.10,591.17
51.22388,615.94,594.20
51.24299,609.84,593.37
51.26416,602.97,591.82
51.28248,597.96,593.97
51.30335,593.12,593.74
51.32365,589.07,594.52
51.34303,585.84,597.38
51.36331,580.17,598.89
51.38231,580.77,599.87
51.40300,577.51,600.62
51.42376,577.93,602.50
51.44370,575.46,602.29
51.46360,574.57,605.16
51.48372,572.47,605.73
51.50311,571.30,605.32
51.52363,571.16,603.93
51.54241,569.94,603.75
51.56284,572.41,606.54
51.58267,572.76,604.97
51.60423,571.36,608.41
51.62372,568.90,604.75
51.64364,569.96,608.11
51.66256,570.38,604.17
51.68371,561.81,606.84
51.70354,546.40,606.16
51.72255,526.58,610.18
51.74297,499.91,610.35
51.76253,470.54,605.47
51.78359,437.07,595.66
51.80283,407.57,584.05
51.82341,383.54,576.14
51.84413,370.93,567.21
51.86285,369.42,564.91
51.88350,377.70,563.28
51.90330,385.46,567.29
51.92266,399.07,568.41
51.94244,412.68,572.35
51.96414,430.57,574.44
51.98383,443.88,578.78
52.00360,460.34,582.41
52.02377,472.00,584.37
52.04367,484.99,589.37
52.06234,494.92,591.36
52.08341,503.71,595.62
52.10266,511.95,596.11
52.12271,522.17,599.39
52.14341,526.34,600.13
52.16338,533.61,601.32
52.18397,535.09,602.90
52.20382,543.18,604.98
52.22311,546.68,602.47
52.24244,548.48,604.20
52.26241,550.21,605.24
52.28460,553.22,604.48
52.30476,556.03,604.75
52.32452,556.03,605.54
52.34495,557.47,604.01
52.36460,558.66,606.74
52.38486,559.32,607.78
52.40508,562.93,606.70
52.42366,563.81,606.22
52.44432,564.92,604.78
52.46464,562.60,603.88
52.48432,564.10,603.53
52.50537,566.16,605.22
52.52467,565.18,605.98
52.54458,565.73,606.73
52.56372,567.38,607.48
52.58477,568.68,606.50
52.60490,569.63,607.69
52.62335,566.39,604.97
52.64486,567.80,607.09
