Program Time [s],data 0,data 1
4.03792,546.54,594.16
4.05864,545.09,592.57
4.07908,547.03,589.78
4.09866,545.80,590.96
4.11801,547.17,593.32
4.13839,547.91,592.92
4.15819,545.41,593.50
4.17810,547.56,591.16
4.19863,548.27,593.74
4.21868,549.18,590.89
4.23947,549.76,590.38
4.25941,551.34,591.23
4.27860,550.50,590.01
4.29900,549.50,592.80
4.31905,547.41,592.24
4.33796,547.25,591.79
4.35897,546.21,588.80
4.37861,546.09,589.73
4.39969,547.21,589.15
4.41923,547.78,589.43
4.43792,546.02,592.07
4.45818,548.38,589.14
4.47756,546.41,590.94
4.49776,548.95,588.64
4.52044,545.58,587.25
4.54023,546.26,589.43
4.55967,546.44,588.46
4.58170,543.31,591.26
4.60022,546.80,590.72
4.62117,545.73,589.42
4.64204,546.16,586.31
4.66214,547.25,587.59
4.68250,545.33,587.90
4.70348,542.60,586.08
4.72354,544.23,587.14
4.74306,543.16,588.20
4.76265,544.42,588.02
4.78204,542.03,587.25
4.80215,542.10,587.67
4.82263,541.56,589.91
4.84276,538.99,587.48
4.86174,541.99,585.96
4.88314,542.46,585.00
4.90242,543.44,595.02
4.92200,548.89,617.95
4.94190,554.94,638.63
4.96206,558.75,649.91
4.98282,557.50,650.66
5.00266,554.81,644.87
5.02324,556.22,638.62
5.04334,554.69,634.60
5.06354,551.34,629.47
5.08283,549.34,624.83
5.10298,548.49,617.15
5.12343,546.96,616.01
5.14272,545.91,612.49
5.16399,546.84,606.50
5.18347,546.91,603.43
5.20333,545.56,602.82
5.22298,542.85,600.50
5.24269,541.03,598.88
5.26280,542.46,596.00
5.28302,538.43,597.11
5.30290,538.64,596.63
5.32367,541.85,596.87
5.34457,538.47,599.13
5.36408,555.50,599.25
5.38306,579.55,600.07
5.40289,611.61,606.01
5.42435,640.52,614.89
5.44336,669.37,620.22
5.46317,692.07,624.83
5.48396,710.64,624.92
5.50443,717.49,623.00
5.52437,719.42,616.82
5.54301,717.37,612.96
5.56312,709.65,603.70
5.58267,700.44,601.88
5.60379,691.11,597.82
5.62353,676.65,596.14
5.64467,662.71,591.53
5.66452,649.41,590.17
5.68569,638.47,589.38
5.70471,628.88,588.06
5.72487,616.79,585.78
5.74598,608.32,589.34
5.76611,597.66,590.67
5.78605,591.79,591.08
5.80753,583.31,588.93
5.82587,575.05,591.92
5.84714,573.01,591.23
5.86691,565.44,593.87
5.88565,564.38,589.64
5.90639,559.31,590.61
5.92694,555.10,591.17
5.94735,554.16,593.88
5.96678,555.14,591.39
5.98796,551.79,593.35
6.00787,550.60,594.75
6.02840,550.21,594.19
6.04769,548.08,595.49
6.06856,545.37,597.94
6.08698,545.74,595.73
6.10675,543.49,597.16
6.12837,541.74,599.57
6.14684,543.67,598.60
6.16715,543.16,597.51
6.18701,542.93,597.55
6.20751,545.39,596.49
6.22773,544.98,598.29
6.24694,542.04,597.20
6.26804,544.21,598.12
6.28657,544.76,597.95
6.30801,544.93,596.76
6.32750,543.16,594.76
6.34795,543.23,597.32
6.36696,544.05,593.55
6.38796,541.42,594.88
6.40780,543.33,596.16
6.42708,543.08,596.61
6.44827,543.59,596.28
6.46733,543.64,597.35
6.48751,545.34,595.29
6.50831,534.87,595.13
6.52860,515.52,595.69
6.54749,483.85,592.81
6.56692,446.55,589.83
6.58783,410.12,582.42
6.60795,375.26,572.57
6.62718,353.97,566.31
6.64755,348.51,562.50
6.66682,348.76,561.39
6.68655,358.14,558.64
6.70735,369.09,559.49
6.72730,380.71,564.23
6.74669,397.39,567.08
6.76796,409.31,566.18
6.78657,424.81,568.71
6.80753,438.24,572.54
6.82762,449.44,574.92
6.84681,460.21,579.11
6.86759,469.60,580.11
6.88724,482.56,581.81
6.90860,489.79,585.14
6.92930,495.53,582.81
6.94933,501.59,583.74
6.96878,510.09,584.97
6.98939,512.83,586.57
7.00823,521.10,587.50
7.02924,520.48,587.90
7.04899,522.43,589.39
7.06892,527.99,587.16
7.09056,528.64,586.85
7.11083,533.30,587.85
7.13021,537.14,588.33
7.15208,535.86,588.22
7.17148,538.11,586.23
7.19094,538.92,588.39
7.21192,541.38,587.48
7.23097,544.20,588.67
7.25072,543.62,585.31
7.27119,542.92,585.03
7.29087,543.64,585.69
7.31067,547.71,583.03
7.33106,548.00,584.15
7.35140,545.49,583.59
7.37174,548.70,583.63
7.39235,546.99,584.09
7.41334,547.98,581.89
7.43278,545.86,583.48
7.45226,546.81,581.33
7.47285,545.32,582.47
7.49317,545.21,583.78
7.51454,545.50,583.45
7.53424,546.33,585.71
7.55260,547.23,583.90
7.57416,545.61,587.17
7.59330,545.64,588.14
7.61359,548.68,585.09
7.63393,547.86,586.40
7.65409,547.90,587.66
7.67315,549.53,587.94
7.69441,549.42,589.59
7.71303,547.09,588.38
7.73300,548.01,588.26
7.75454,548.05,588.32
7.77414,548.56,587.80
7.79340,548.88,586.84
7.81371,550.39,586.07
7.83373,548.09,585.87
7.85433,550.13,585.57
7.87406,548.73,585.79
7.89345,546.91,587.17
7.91460,546.31,587.12
7.93429,547.93,585.92
7.95366,547.32,586.04
7.97376,547.81,586.25
7.99522,548.33,585.28
8.01413,547.70,587.64
8.03531,549.86,588.04
8.05350,548.91,584.41
8.07425,549.33,587.68
8.09385,547.50,585.64
8.11509,545.85,584.47
8.13508,544.43,585.00
8.15475,547.52,582.74
8.17563,548.34,582.73
8.19454,548.57,582.56
8.21421,550.25,582.20
8.23362,549.65,585.46
8.25494,548.45,585.47
8.27516,547.82,587.99
8.29455,548.49,587.51
8.31492,549.19,586.94
8.33426,551.16,588.77
8.35530,548.38,589.04
8.37489,550.40,591.26
8.39456,548.74,589.86
8.41428,550.22,592.61
8.43487,550.25,592.20
8.45370,548.68,593.60
8.47375,547.71,591.26
8.49506,545.64,589.99
8.51392,546.99,588.17
8.53396,548.77,590.71
8.55470,549.99,588.30
8.57487,550.24,587.41
8.59507,549.69,589.58
8.61499,548.51,590.44
8.63479,549.28,588.05
8.65404,549.75,590.27
8.67468,548.35,589.10
8.69525,550.45,588.22
8.71425,551.37,590.76
8.73424,548.53,587.10
8.75432,549.82,587.00
8.77505,548.49,590.52
8.79368,549.21,589.18
8.81543,548.35,587.53
8.83486,548.84,589.99
8.85380,545.48,587.36
8.87500,545.84,591.63
8.89547,548.76,591.08
8.91361,546.15,591.25
8.93407,547.77,591.78
8.95565,546.32,591.74
8.97388,545.66,590.22
8.99496,546.21,590.56
9.01385,546.09,591.82
9.03452,547.26,590.33
9.05392,549.04,588.21
9.07440,545.57,589.86
9.09397,549.94,590.63
9.11507,547.30,588.89
9.13495,547.40,590.93
9.15425,546.64,588.56
9.17501,549.35,588.56
9.19370,545.90,587.89
9.21552,546.59,588.48
9.23468,550.06,586.32
9.25507,551.67,588.52
9.27458,551.73,588.49
9.29438,570.30,590.67
9.31373,595.07,597.01
9.33507,628.65,606.82
9.35396,658.75,610.79
9.37462,686.62,614.70
9.39525,705.10,614.21
9.41450,716.25,615.46
9.43525,721.13,612.37
9.45556,717.74,610.19
9.47512,714.73,607.11
9.49500,708.75,608.14
9.51562,703.10,605.40
9.53593,694.53,604.12
9.55656,680.30,606.05
9.57591,667.55,603.04
9.59485,658.02,603.78
9.61500,643.93,601.60
9.63627,633.09,604.66
9.65607,621.83,604.37
9.67540,615.22,601.73
9.69471,605.22,603.63
9.71596,597.85,600.84
9.73543,591.86,600.78
9.75531,585.92,599.23
9.77538,580.12,599.78
9.79604,576.26,598.51
9.81662,572.41,597.57
9.83517,566.84,595.95
9.85622,564.70,597.32
9.87633,562.69,598.43
9.89588,559.82,599.68
9.91660,556.09,598.70
9.93523,557.14,597.73
9.95590,554.45,597.17
9.97478,552.96,597.75
9.99543,550.39,596.23
10.01498,551.04,598.98
10.03479,550.36,598.08
10.05593,549.68,597.86
10.07491,549.00,597.73
10.09517,547.82,600.22
10.11656,549.36,600.92
10.13562,550.65,597.60
10.15614,550.96,598.74
10.17585,549.27,600.63
10.19632,544.00,597.92
10.21712,532.29,594.34
10.23627,513.98,591.47
10.25669,487.76,586.98
10.27727,460.02,580.05
10.29593,426.36,569.34
10.31648,391.26,555.38
10.33668,366.09,542.41
10.35803,347.04,532.91
10.37859,342.25,530.39
10.39829,344.12,529.18
10.41729,353.68,533.32
10.43775,367.31,538.45
10.45766,383.93,543.13
10.47658,395.89,546.88
10.49857,410.79,555.19
10.51731,425.24,560.19
10.53721,440.25,567.48
10.55787,455.03,571.65
10.57690,466.24,575.33
10.59685,477.33,580.36
10.61710,483.20,583.27
10.63671,494.76,583.33
10.65737,498.31,584.89
10.67667,501.62,585.48
10.69831,508.68,589.71
10.71674,512.41,587.16
10.73719,516.18,589.84
10.75652,521.24,592.41
10.77847,525.06,592.69
10.79762,528.90,594.48
10.81653,531.19,598.16
10.83672,531.99,595.25
10.85672,533.70,597.27
10.87727,533.08,597.66
10.89745,537.91,596.27
10.91710,536.29,597.22
10.93665,538.25,597.59
10.95765,540.19,595.29
10.97783,539.17,597.63
10.99676,543.13,597.45
11.01951,542.11,600.37
11.03819,543.04,600.42
11.05818,538.91,601.07
11.07922,540.17,601.86
11.09899,539.07,602.26
11.11864,539.82,599.77
11.13908,539.23,601.64
11.15913,542.39,603.49
11.17932,543.33,602.74
11.19777,541.93,604.22
11.21821,543.39,603.82
11.23834,542.17,601.83
11.25839,543.87,604.86
11.27847,545.16,603.05
11.29737,543.74,603.72
11.31902,544.48,604.34
11.33785,545.24,603.84
11.35812,543.59,603.11
11.37863,545.99,599.07
11.39795,546.74,599.79
11.41849,545.24,598.07
11.43866,547.76,602.28
11.45768,545.85,599.93
11.47945,545.20,602.43
11.49815,543.25,603.09
11.51841,545.26,602.42
11.53780,546.71,601.47
11.55951,545.32,602.17
11.57862,546.65,600.41
11.59875,543.37,603.45
11.61789,546.65,600.99
11.63834,543.81,602.99
11.65891,547.08,603.86
11.67805,545.25,603.21
11.69775,545.87,605.18
11.71805,542.08,601.80
11.73963,547.06,605.69
11.75775,544.17,603.92
11.77913,545.73,603.19
11.79787,544.28,605.41
11.81890,545.50,607.44
11.83830,546.07,606.00
11.85919,546.08,605.24
11.87895,544.01,605.35
11.89888,546.08,606.44
11.91862,546.54,605.56
11.94034,546.32,606.37
11.96004,547.39,603.19
11.97946,550.05,603.52
11.99836,550.61,603.41
12.01969,548.37,604.13
12.04040,547.03,601.80
12.06113,548.05,602.45
12.07942,549.34,601.39
12.10142,549.23,603.95
12.12103,549.75,604.80
12.14084,548.02,601.99
12.16127,548.13,602.88
12.18018,550.13,603.30
12.20143,549.55,604.03
12.21977,547.74,605.11
12.24096,549.52,602.96
12.26185,547.71,601.51
12.28215,546.87,601.32
12.30233,549.81,600.32
12.32096,549.69,602.85
12.34198,548.68,601.83
12.36120,548.69,602.40
12.38229,546.14,602.88
12.40227,548.11,601.17
12.42067,547.02,599.85
12.44223,546.80,603.17
12.46097,549.33,599.86
12.48116,545.34,600.67
12.50069,548.15,601.05
12.52102,544.95,599.70
12.54094,545.30,600.37
12.56170,547.71,598.60
12.58159,543.77,598.42
12.60196,545.77,600.90
12.62090,546.13,601.71
12.64151,549.84,599.59
12.66193,547.70,602.93
12.68123,547.15,601.64
12.70142,549.03,599.05
12.72111,547.44,598.03
12.74102,548.91,599.93
12.76224,547.73,599.62
12.78148,547.15,599.68
12.80106,546.63,599.04
12.82325,544.16,599.62
12.84258,547.04,598.39
12.86210,547.74,598.17
12.88279,548.00,596.70
12.90175,549.76,596.80
12.92197,547.49,595.37
12.94312,547.52,597.05
12.96330,550.17,596.58
12.98340,547.68,597.06
13.00310,549.38,596.16
13.02170,548.99,594.41
13.04344,550.69,593.31
13.06218,551.14,593.77
13.08249,549.95,593.79
13.10171,549.84,595.98
13.12200,548.16,594.34
13.14296,547.81,593.92
13.16342,547.78,595.65
13.18260,548.22,593.02
13.20322,548.05,593.11
13.22283,548.73,593.00
13.24349,546.95,593.26
13.26428,546.51,590.80
13.28287,550.03,589.75
13.30404,549.63,592.02
13.32420,546.35,590.19
13.34272,545.83,590.00
13.36310,548.54,590.10
13.38310,548.72,587.61
13.40337,549.96,587.67
13.42405,548.40,587.69
13.44263,548.35,587.78
13.46440,548.90,588.51
13.48276,547.93,588.79
13.50424,549.36,587.11
13.52529,547.62,588.34
13.54453,549.05,585.68
13.56459,549.35,587.18
13.58405,547.48,589.10
13.60540,549.11,587.47
13.62357,546.27,584.88
13.64377,549.48,584.61
13.66476,549.55,585.19
13.68489,549.02,583.71
13.70452,551.42,579.88
13.72354,552.06,582.49
13.74462,550.34,579.66
13.76429,552.27,581.44
13.78369,552.10,579.42
13.80521,550.37,578.90
13.82504,552.20,577.93
13.84431,550.77,577.10
13.86537,550.06,577.13
13.88381,550.22,574.68
13.90545,551.84,576.34
13.92419,549.07,572.68
13.94420,558.18,577.20
13.96398,575.72,587.79
13.98535,607.38,599.14
14.00367,643.84,616.45
14.02436,674.81,629.48
14.04457,700.74,633.71
14.06504,718.21,635.70
14.08472,729.51,632.56
14.10392,731.27,626.50
14.12527,730.85,623.01
14.14489,723.82,618.48
14.16454,714.76,614.24
14.18409,702.48,611.71
14.20364,689.00,604.73
14.22394,677.68,602.00
14.24518,663.68,602.07
14.26469,650.90,598.44
14.28457,638.64,599.48
14.30339,625.78,597.55
14.32405,617.57,596.20
14.34358,606.10,593.43
14.36360,599.46,590.85
14.38394,594.55,593.26
14.40500,589.24,589.03
14.42359,581.26,592.07
14.44476,576.59,588.32
14.46403,574.46,590.92
14.48472,572.50,590.74
14.50349,566.92,590.16
14.52449,565.88,589.12
14.54365,564.39,585.52
14.56383,560.57,587.60
14.58465,561.80,586.12
14.60382,559.46,586.99
14.62454,556.75,587.77
14.64416,556.26,587.06
14.66378,557.88,589.66
14.68415,557.32,588.18
14.70412,554.08,589.10
14.72509,554.38,587.92
14.74428,551.56,589.78
14.76427,552.47,588.11
14.78514,547.98,589.04
14.80423,549.61,587.18
14.82358,548.77,588.76
14.84511,546.89,590.65
14.86535,547.81,587.00
14.88527,549.66,587.01
14.90456,547.44,585.71
14.92478,550.22,586.31
14.94506,550.15,587.40
14.96353,551.48,585.44
14.98437,548.99,584.21
15.00399,550.92,585.63
15.02490,549.20,588.25
15.04456,551.56,586.37
15.06513,552.88,588.28
15.08350,543.51,592.69
15.10494,522.02,595.14
15.12388,487.65,589.17
15.14458,450.98,579.27
15.16421,412.17,570.47
15.18518,382.58,555.50
15.20350,362.67,546.54
15.22509,356.10,542.15
15.24409,354.53,537.39
15.26486,363.71,539.53
15.28523,374.48,539.31
15.30526,388.37,543.91
15.32426,407.69,544.99
15.34513,422.41,550.00
15.36428,436.28,550.06
15.38359,447.77,556.46
15.40389,461.01,558.51
15.42349,473.87,560.75
15.44471,480.65,565.69
15.46430,491.97,569.19
15.48534,496.95,571.29
15.50474,506.04,574.12
15.52357,510.88,574.34
15.54547,517.96,579.78
15.56375,520.51,582.54
15.58438,527.15,582.88
15.60531,531.56,582.11
15.62478,530.61,583.02
15.64495,532.73,583.55
15.66432,536.28,586.02
15.68352,538.59,585.22
15.70520,538.99,586.15
15.72369,541.01,587.14
15.74412,543.64,586.39
15.76441,542.78,587.62
15.78484,546.18,586.10
15.80521,543.54,588.69
15.82355,543.27,587.78
15.84505,544.99,589.75
15.86482,543.70,588.02
15.88503,543.51,589.04
15.90503,544.42,589.02
15.92543,546.94,588.64
15.94457,547.59,587.46
15.96531,549.04,587.32
15.98487,546.98,586.94
16.00482,546.33,587.06
16.02521,548.50,588.18
16.04471,549.77,588.39
16.06410,548.35,586.81
16.08520,549.30,590.21
16.10428,547.84,589.32
16.12528,548.65,585.41
16.14468,549.86,585.89
16.16451,546.03,588.92
16.18506,546.46,588.26
16.20456,545.18,585.94
16.22524,548.54,587.08
16.24528,549.08,587.72
16.26389,549.48,588.87
16.28426,549.61,588.60
16.30524,549.35,587.71
16.32385,546.97,587.52
16.34480,547.27,589.70
16.36557,546.15,587.77
16.38521,544.76,588.02
16.40434,547.51,588.53
16.42511,547.08,588.91
16.44410,546.29,587.69
16.46413,548.21,587.75
16.48456,546.55,586.80
16.50354,548.89,587.95
16.52463,545.11,589.46
16.54504,546.91,588.52
16.56409,546.95,591.32
16.58458,548.72,590.39
16.60356,550.80,588.23
16.62470,548.43,590.50
16.64412,548.99,589.70
16.66463,551.21,591.50
16.68378,547.49,590.16
16.70465,550.17,589.45
16.72453,546.55,589.48
16.74503,551.46,589.05
16.76536,550.15,590.48
16.78538,548.74,590.29
16.80473,549.95,590.13
16.82487,551.77,591.98
16.84456,548.34,587.54
16.86391,548.73,591.19
16.88549,551.71,588.11
16.90492,548.53,587.65
16.92370,550.88,590.52
16.94488,550.34,591.03
16.96517,548.10,590.87
16.98452,549.76,590.40
17.00528,548.43,591.48
17.02462,548.00,589.32
17.04480,546.55,587.75
17.06497,548.39,588.51
17.08468,547.97,588.26
17.10511,550.73,590.59
17.12477,548.71,587.14
17.14484,548.85,589.64
17.16538,548.37,586.35
17.18461,549.18,587.30
17.20448,549.08,587.62
17.22483,548.55,585.58
17.24390,551.36,587.19
17.26533,548.80,588.09
17.28402,548.85,585.61
17.30568,547.40,588.26
17.32483,548.46,589.94
17.34500,548.01,586.44
17.36353,548.52,589.64
17.38505,547.15,587.41
17.40377,549.32,591.17
17.42494,550.37,590.52
17.44395,546.87,590.37
17.46381,548.83,589.12
17.48434,546.76,589.66
17.50432,548.17,588.18
17.52506,548.37,588.64
17.54396,545.96,586.36
17.56402,547.07,584.02
17.58480,545.99,586.36
17.60498,544.92,585.70
17.62364,547.56,587.53
17.64447,545.37,589.27
17.66537,547.57,590.70
17.68375,546.95,589.86
17.70350,547.95,589.74
17.72363,547.86,587.75
17.74514,547.97,589.43
17.76427,551.64,588.48
17.78592,549.77,589.52
17.80563,549.89,588.47
17.82444,548.31,590.06
17.84577,547.65,586.28
17.86487,547.78,586.93
17.88467,548.48,586.80
17.90598,548.89,587.09
17.92446,550.84,584.71
17.94510,550.34,584.28
17.96446,547.89,585.83
17.98568,550.72,586.76
18.00485,548.91,586.17
18.02469,547.31,584.71
18.04436,548.75,587.65
18.06509,548.61,586.11
18.08557,549.17,585.11
18.10536,547.83,585.53
18.12463,545.86,587.74
18.14559,547.00,585.78
18.16452,546.97,584.31
18.18463,544.74,587.40
18.20643,544.59,588.22
18.22594,543.85,587.66
18.24652,556.79,590.71
18.26680,583.61,597.84
18.28639,616.77,606.18
18.30714,651.72,614.65
18.32694,679.42,616.69
18.34605,699.56,618.46
18.36611,715.30,616.48
18.38533,726.84,614.14
18.40569,726.31,616.04
18.42601,723.57,613.42
18.44626,710.86,611.00
18.46721,699.79,609.90
18.48697,690.04,610.06
18.50688,676.20,609.19
18.52625,663.16,607.19
18.54697,652.69,603.68
18.56548,636.78,604.44
18.58596,625.36,603.91
18.60677,617.55,601.44
18.62639,608.95,602.20
18.64622,600.19,599.92
18.66668,593.67,597.97
18.68732,586.05,600.04
18.70715,578.96,600.41
18.72715,574.39,599.90
18.74552,573.47,597.55
18.76681,569.78,595.76
18.78698,565.69,597.04
18.80716,563.72,595.41
18.82611,565.27,597.44
18.84572,561.16,597.28
18.86591,558.13,596.61
18.88633,559.75,594.10
18.90704,556.81,592.97
18.92688,554.88,592.83
18.94614,553.92,597.02
18.96647,553.20,594.41
18.98674,550.83,596.18
19.00655,551.74,594.80
19.02722,552.68,595.96
19.04600,551.25,592.26
19.06558,548.49,594.26
19.08594,549.30,594.88
19.10639,551.48,594.83
19.12648,550.70,592.16
19.14667,549.53,591.85
19.16564,547.76,592.02
19.18637,546.80,593.85
19.20664,547.29,593.24
19.22612,546.46,591.92
19.24656,548.03,591.71
19.26663,548.35,595.26
19.28766,546.44,591.69
19.30652,546.15,595.19
19.32832,543.80,595.94
19.34671,545.29,596.05
19.36653,545.32,594.79
19.38648,546.02,593.42
19.40812,547.37,596.02
19.42891,550.36,595.71
19.44759,541.13,595.22
19.46859,517.99,592.18
19.48793,481.58,585.85
19.50925,446.23,580.39
19.52790,408.64,571.98
19.54908,378.66,565.80
19.56770,358.66,558.28
19.58774,351.76,556.89
19.60856,354.93,556.52
19.62856,359.96,560.59
19.64814,373.32,561.70
19.66892,389.83,565.10
19.68769,402.42,565.12
19.70933,419.09,567.20
19.72780,432.67,570.44
19.74924,443.11,575.08
19.76809,457.46,577.87
19.78755,466.78,578.15
19.80875,474.92,579.19
19.82842,486.90,581.99
19.84751,493.52,584.32
19.86922,498.28,586.41
19.88920,507.34,587.45
19.90886,513.61,587.06
19.92766,517.72,590.58
19.94877,520.58,592.06
19.96841,523.71,592.14
19.98881,526.33,593.05
20.00914,526.07,592.85
20.02818,531.56,597.64
20.04742,531.47,597.14
20.06825,534.72,595.48
20.08736,539.26,597.89
20.10951,538.11,599.03
20.13019,536.15,598.85
20.14863,537.19,601.51
20.16989,539.57,598.51
20.19003,541.32,598.49
20.21021,542.92,598.10
20.22987,540.56,600.03
20.25006,541.72,597.21
20.26881,538.68,595.69
20.28974,540.85,597.50
20.30943,540.65,597.03
20.32911,539.81,597.56
20.34915,542.32,596.79
20.36965,538.38,596.99
20.39023,537.94,599.92
20.40968,537.04,599.25
20.42993,540.49,598.45
20.44946,537.13,599.28
20.46895,538.46,599.41
20.48873,539.88,600.60
20.50983,539.63,600.98
20.53000,538.99,598.06
20.54884,539.02,598.70
20.56926,541.64,601.12
20.58859,542.99,598.96
20.60977,540.24,602.26
20.62992,542.78,598.46
20.64843,540.89,601.68
20.66891,542.63,599.96
20.68929,543.70,601.19
20.70899,543.15,602.16
20.73009,541.07,599.23
20.74992,541.99,601.17
20.76996,542.51,599.64
20.78998,541.54,598.73
20.80919,541.81,598.94
20.82920,541.03,597.28
20.84963,538.04,600.55
20.87006,539.94,598.65
20.88949,540.22,597.97
20.90863,539.99,598.92
20.93014,540.95,597.93
20.94951,540.59,599.12
20.96919,540.77,598.14
20.98848,541.97,602.10
21.00993,540.87,600.97
21.02821,540.19,601.73
21.04965,541.37,598.41
21.07012,541.34,596.54
21.08963,544.24,599.06
21.10897,541.74,599.20
21.12964,542.83,600.46
21.14948,542.83,598.85
21.16903,544.18,598.24
21.18955,542.60,600.81
21.20960,545.50,597.54
21.22942,541.86,600.81
21.24867,544.53,601.12
21.26866,544.97,600.32
21.28943,544.51,598.26
21.30909,544.34,598.34
21.32904,542.31,597.34
21.34942,542.01,598.18
21.36895,544.93,598.87
21.38970,543.41,602.15
21.40969,544.05,599.26
21.42957,542.14,601.64
21.44915,543.64,600.15
21.46946,544.34,602.72
21.48917,544.82,600.16
21.50879,543.64,603.23
21.52953,544.41,603.07
21.54941,540.98,600.81
21.56817,541.50,600.54
21.58916,542.05,600.96
21.60920,540.91,597.05
21.62922,540.61,600.51
21.64845,542.88,597.84
21.66933,542.90,601.22
21.68988,539.91,601.76
21.71001,543.55,601.34
21.72986,543.14,602.36
21.74886,540.80,603.15
21.76873,544.55,598.95
21.79001,541.66,599.08
21.81113,542.23,600.52
21.83075,542.94,599.54
21.84978,544.85,599.48
21.87042,546.55,600.99
21.89048,544.49,600.80
21.91118,545.63,597.88
21.93098,546.03,598.89
21.95194,545.21,597.67
21.97264,548.26,601.38
21.99218,546.03,602.31
22.01140,545.65,602.78
22.03140,545.91,601.86
22.05190,544.74,600.28
22.07130,544.72,600.38
22.09175,544.63,602.11
22.11298,545.96,600.53
22.13300,544.27,601.28
22.15162,544.72,599.96
22.17154,545.18,601.72
22.19158,546.14,603.29
22.21295,544.63,603.20
22.23317,545.01,600.87
22.25281,544.83,601.34
22.27197,544.85,603.31
22.29276,545.45,602.30
22.31308,543.41,602.47
22.33321,547.29,600.91
22.35306,545.21,604.44
22.37253,545.00,601.46
22.39144,544.49,601.61
22.41131,542.44,599.22
22.43232,542.98,600.89
22.45147,546.12,602.08
22.47267,544.79,600.99
22.49165,547.95,600.02
22.51196,545.61,600.05
22.53287,545.45,601.15
22.55151,545.06,600.80
22.57236,547.05,601.33
22.59216,546.81,600.55
22.61267,549.39,599.35
22.63374,548.28,602.27
22.65288,550.35,599.06
22.67398,546.06,597.61
22.69328,544.46,599.52
22.71398,546.61,599.34
22.73262,546.04,598.40
22.75388,545.52,596.32
22.77368,546.04,597.24
22.79297,545.97,596.50
22.81324,546.73,597.37
22.83427,545.55,600.71
22.85377,544.51,598.19
22.87441,547.17,599.47
22.89447,549.05,597.43
22.91366,547.55,597.20
22.93354,545.80,594.58
22.95521,546.55,596.18
22.97357,548.62,591.92
22.99500,548.23,591.02
23.01382,547.79,591.82
23.03406,547.10,592.87
23.05430,546.47,591.96
23.07510,545.61,590.82
23.09370,544.81,593.17
23.11482,548.20,593.51
23.13509,548.22,591.64
23.15342,547.33,593.05
23.17515,548.90,590.96
23.19413,545.24,590.80
23.21486,547.16,589.78
23.23473,548.80,594.33
23.25387,545.92,592.52
23.27405,545.97,593.17
23.29500,545.90,595.04
23.31380,548.54,594.63
23.33498,546.70,593.01
23.35370,546.38,596.22
23.37528,548.50,593.87
23.39475,546.03,595.27
23.41407,546.45,594.63
23.43344,548.49,592.17
23.45362,550.35,593.14
23.47550,549.66,590.17
23.49440,548.11,591.26
23.51621,548.12,589.13
23.53502,546.68,586.81
23.55542,546.48,587.37
23.57439,547.07,587.33
23.59490,545.47,588.15
23.61534,548.86,585.26
23.63483,547.62,586.21
23.65532,546.36,586.15
23.67589,548.35,586.79
23.69612,548.81,587.61
23.71570,551.46,584.42
23.73494,547.04,583.16
23.75413,546.17,584.26
23.77476,556.64,588.91
23.79514,577.28,600.81
23.81533,611.91,618.68
23.83526,656.08,637.94
23.85486,693.58,648.36
23.87612,724.62,650.04
23.89512,739.81,643.09
23.91447,746.36,632.37
23.93547,745.44,624.56
23.95506,739.58,615.18
23.97444,727.62,605.59
23.99460,716.56,598.23
24.01617,705.30,592.00
24.03527,693.26,587.38
24.05427,677.87,585.40
24.07484,663.74,585.31
24.09564,650.29,582.56
24.11564,637.36,584.46
24.13545,624.02,582.07
24.15496,615.77,584.19
24.17569,606.30,583.74
24.19531,595.85,586.22
24.21559,590.15,584.82
24.23597,586.51,587.21
24.25430,582.79,586.47
24.27597,578.89,589.52
24.29619,572.38,588.77
24.31539,570.43,586.23
24.33496,568.79,587.13
24.35487,566.75,585.01
24.37531,560.79,587.41
24.39578,557.61,588.61
24.41615,556.49,587.31
24.43614,556.73,588.90
24.45577,554.89,591.73
24.47483,554.72,590.87
24.49615,554.71,592.34
24.51482,551.48,589.76
24.53499,551.97,591.40
24.55475,551.44,587.59
24.57486,551.42,587.44
24.59571,553.94,585.43
24.61478,552.42,586.47
24.63469,551.00,589.62
24.65600,551.32,590.13
24.67498,551.93,591.49
24.69561,549.78,590.59
24.71445,548.40,588.28
24.73593,547.60,590.89
24.75451,545.15,592.24
24.77590,531.75,592.27
24.79546,505.58,594.04
24.81607,474.41,586.80
24.83506,438.08,573.28
24.85450,399.72,558.84
24.87505,370.88,548.17
24.89609,357.13,540.63
24.91546,352.79,539.08
24.93428,355.99,537.58
24.95488,367.03,536.64
24.97463,379.23,539.50
24.99523,393.12,543.39
25.01527,409.78,545.59
25.03535,421.97,550.55
25.05445,435.75,554.23
25.07471,451.08,555.58
25.09544,462.99,559.73
25.11609,471.79,562.64
25.13615,483.41,563.45
25.15522,493.47,566.02
25.17573,501.03,569.09
25.19627,506.95,571.66
25.21630,509.85,572.90
25.23437,517.21,575.14
25.25558,521.23,579.18
25.27550,525.94,577.25
25.29595,527.58,580.05
25.31486,527.98,580.34
25.33591,529.30,582.46
25.35545,532.03,582.88
25.37490,535.07,584.51
25.39522,536.07,583.42
25.41601,535.93,584.04
25.43505,535.65,583.65
25.45425,539.51,584.48
25.47603,540.68,586.26
25.49535,539.04,584.04
25.51480,542.89,581.80
25.53485,545.46,581.68
25.55519,546.75,581.38
25.57460,547.15,582.66
25.59625,546.25,582.72
25.61544,547.58,582.90
25.63438,548.23,582.46
25.65527,544.71,584.81
25.67472,549.43,585.89
25.69572,547.42,584.12
25.71482,549.63,586.93
25.73430,550.15,588.53
25.75488,547.87,585.79
25.77411,548.37,587.39
25.79557,546.34,587.84
25.81451,545.51,585.98
25.83609,546.57,585.92
25.85482,545.65,586.07
25.87473,546.73,584.10
25.89616,550.52,584.53
25.91597,550.24,586.43
25.93442,547.03,584.92
25.95627,549.16,584.68
25.97496,548.36,587.41
25.99470,547.81,582.93
26.01595,550.23,582.03
26.03564,547.80,584.84
26.05574,547.17,586.00
26.07575,546.16,582.21
26.09440,548.53,582.14
26.11556,546.88,581.78
26.13541,546.76,583.23
26.15422,548.76,579.95
26.17570,548.87,582.83
26.19629,548.23,583.77
26.21498,547.14,583.34
26.23505,548.26,584.49
26.25410,549.78,582.50
26.27546,549.59,586.05
26.29490,548.68,586.34
26.31539,549.27,583.99
26.33467,544.97,585.30
26.35541,547.67,585.87
26.37470,547.34,588.08
26.39604,544.31,586.55
26.41516,547.58,586.78
26.43443,546.54,587.89
26.45461,547.96,587.33
26.47479,547.72,586.08
26.49602,545.68,584.78
26.51601,549.74,587.48
26.53568,549.23,585.45
26.55614,551.65,585.62
26.57539,548.23,589.95
26.59512,546.71,587.36
26.61538,549.36,585.98
26.63454,545.20,587.76
26.65574,547.51,583.77
26.67610,547.19,583.26
26.69509,544.87,583.23
26.71497,546.09,581.72
26.73474,548.73,582.92
26.75476,548.36,583.01
26.77572,549.36,581.38
26.79577,548.39,583.04
26.81440,547.14,584.90
26.83588,549.43,584.86
26.85592,547.88,585.46
26.87422,547.93,582.74
26.89438,548.02,583.57
26.91443,545.84,583.03
26.93468,546.05,583.06
26.95477,548.15,583.79
26.97535,545.76,584.18
26.99538,548.00,586.87
27.01522,548.75,585.40
27.03499,549.75,587.40
27.05614,548.76,584.27
27.07477,549.47,584.78
27.09573,546.92,584.64
27.11615,550.27,588.45
27.13445,547.16,584.77
27.15472,546.92,586.43
27.17455,546.95,583.85
27.19577,546.33,584.82
27.21451,545.89,586.00
27.23495,546.68,586.42
27.25579,546.88,585.35
27.27501,546.71,586.26
27.29557,549.98,585.72
27.31455,548.43,585.33
27.33529,549.50,587.44
27.35618,548.51,585.37
27.37504,545.40,589.01
27.39580,546.33,587.44
27.41429,548.64,587.93
27.43502,548.61,587.65
27.45577,546.16,587.46
27.47483,546.33,586.98
27.49593,545.10,583.29
27.51566,548.74,585.13
27.53608,547.48,582.31
27.55534,544.83,582.09
27.57600,546.07,580.80
27.59614,545.90,580.74
27.61439,548.35,581.71
27.63483,548.26,582.21
27.65487,547.46,581.94
27.67581,544.99,578.89
27.69536,547.02,580.08
27.71584,546.85,582.25
27.73636,547.80,580.55
27.75643,546.89,581.15
27.77592,548.13,581.52
27.79628,549.37,584.15
27.81633,548.95,582.08
27.83663,552.46,582.26
27.85669,550.26,583.35
27.87579,549.34,587.07
27.89659,548.43,587.14
27.91525,551.89,584.77
27.93656,550.13,581.89
27.95578,548.63,583.49
27.97515,549.31,583.11
27.99556,549.74,582.00
28.01544,553.95,583.47
28.03579,551.47,583.82
28.05617,548.64,581.32
28.07708,549.92,584.65
28.09619,545.23,582.79
28.11606,550.16,584.44
28.13539,550.46,586.11
28.15598,549.80,585.78
28.17646,549.64,585.86
28.19577,549.95,584.59
28.21646,550.10,585.65
28.23637,550.53,584.95
28.25613,550.36,584.42
28.27608,552.59,584.65
28.29673,550.86,589.26
28.31660,551.17,588.86
28.33587,550.41,589.94
28.35627,548.38,588.85
28.37687,549.59,586.47
28.39721,547.30,588.74
28.41660,546.55,588.35
28.43649,545.89,584.14
28.45527,548.78,585.70
28.47683,545.39,586.08
28.49706,546.96,583.64
28.51652,547.33,583.76
28.53515,546.88,586.63
28.55628,545.25,586.59
28.57556,546.80,585.55
28.59571,547.36,587.80
28.61572,548.64,584.72
28.63600,546.83,583.57
28.65655,548.81,586.12
28.67707,549.43,586.23
28.69603,548.01,587.56
28.71628,546.09,585.59
28.73529,547.64,587.37
28.75639,546.30,587.68
28.77686,544.91,588.55
28.79545,548.02,588.65
28.81595,545.35,590.08
28.83590,548.03,588.38
28.85504,544.53,589.92
28.87665,547.75,589.32
28.89701,548.26,587.69
28.91605,547.81,589.06
28.93587,550.47,590.63
28.95584,552.06,587.78
28.97556,549.18,589.36
28.99691,551.17,586.95
29.01695,549.89,585.80
29.03590,548.97,587.95
29.05641,550.89,586.56
29.07623,550.74,585.98
29.09676,548.82,586.52
29.11545,548.73,588.32
29.13712,547.90,586.48
29.15626,548.88,587.58
29.17660,550.60,586.73
29.19698,550.12,586.86
29.21642,550.36,586.11
29.23664,549.94,585.66
29.25676,553.27,586.62
29.27534,552.73,584.01
29.29573,549.19,585.52
29.31528,551.64,585.60
29.33641,552.45,588.44
29.35677,567.62,590.67
29.37556,597.15,597.78
29.39595,630.10,607.69
29.41560,663.34,614.56
29.43550,693.23,618.73
29.45665,714.53,616.07
29.47525,725.89,613.74
29.49551,728.67,610.12
29.51693,729.54,607.33
29.53559,727.07,606.26
29.55666,718.27,604.44
29.57683,705.30,600.73
29.59657,694.16,596.89
29.61700,679.63,597.51
29.63600,664.63,598.06
29.65559,652.42,593.77
29.67529,639.29,596.59
29.69528,626.21,592.77
29.71662,619.33,593.17
29.73702,605.52,594.08
29.75612,599.75,593.18
29.77523,590.76,594.84
29.79575,586.22,595.41
29.81527,580.16,591.73
29.83660,575.68,595.42
29.85773,575.06,591.72
29.87773,569.02,592.78
29.89606,568.68,588.38
29.91692,567.09,590.92
29.93703,563.29,591.40
29.95653,562.91,589.48
29.97623,559.75,589.34
29.99640,559.87,586.31
30.01716,555.73,587.56
30.03640,554.80,590.34
30.05629,551.93,589.17
30.07712,553.80,588.85
30.09806,550.54,590.82
30.11829,552.93,590.63
30.13644,551.10,590.60
30.15606,552.14,587.51
30.17738,552.34,587.79
30.19773,551.42,588.35
30.21697,552.47,591.63
30.23735,551.28,592.55
30.25721,551.16,590.99
30.27720,550.28,588.57
30.29692,552.22,589.06
30.31610,547.75,587.54
30.33728,547.34,589.41
30.35736,548.17,590.08
30.37792,550.84,587.77
30.39755,550.53,586.44
30.41718,549.19,588.26
30.43740,547.00,587.73
30.45645,547.07,586.57
30.47681,546.09,585.70
30.49698,545.81,585.82
30.51657,531.49,582.80
30.53670,506.77,576.89
30.55792,470.16,569.00
30.57704,435.81,562.10
30.59693,399.04,553.95
30.61647,370.71,546.69
30.63725,353.04,542.01
30.65615,348.02,540.03
30.67652,351.90,543.46
30.69617,362.05,545.15
30.71781,373.74,548.33
30.73651,388.53,552.44
30.75757,402.23,557.62
30.77755,417.91,561.55
30.79717,431.95,569.07
30.81625,448.97,569.61
30.83640,458.95,575.56
30.85818,470.99,574.52
30.87764,482.40,578.48
30.89593,489.38,582.46
30.91763,497.36,583.76
30.93684,505.66,585.86
30.95609,510.31,586.80
30.97703,514.83,587.98
30.99756,520.33,586.36
31.01720,524.29,586.91
31.03727,528.20,589.13
31.05696,529.10,590.14
31.07746,533.73,587.25
31.09807,533.65,589.46
31.11752,537.13,589.15
31.13696,535.62,588.79
31.15696,539.40,590.26
31.17719,542.00,588.25
31.19731,542.62,588.86
31.21632,540.97,587.56
31.23745,542.38,587.38
31.25756,542.73,588.06
31.27761,544.69,588.56
31.29757,546.33,588.44
31.31781,544.58,585.96
31.33785,544.68,589.83
31.35786,547.27,588.33
31.37649,544.19,588.80
31.39667,544.67,587.78
31.41770,546.49,588.71
31.43746,546.35,588.93
31.45697,544.42,590.21
31.47649,545.97,589.72
31.49772,547.21,589.71
31.51787,544.91,590.56
31.53650,543.83,593.60
31.55628,544.61,593.42
31.57607,547.36,595.08
31.59697,544.79,595.50
31.61684,546.35,593.30
31.63808,546.69,593.83
31.65764,547.90,596.02
31.67627,547.52,594.72
31.69622,548.72,593.34
31.71738,545.78,592.22
31.73711,548.48,590.97
31.75689,546.65,592.78
31.77729,549.21,591.08
31.79620,548.33,593.56
31.81698,547.83,591.16
31.83696,545.38,589.67
31.85716,549.04,589.90
31.87625,547.98,590.62
31.89687,546.08,591.56
31.91753,545.83,591.23
31.93788,545.19,590.54
31.95640,547.24,592.48
31.97624,545.97,590.43
31.99674,547.66,591.89
32.01774,545.67,592.43
32.03730,546.10,594.87
32.05685,548.78,595.02
32.07772,547.67,592.55
32.09640,547.67,593.81
32.11732,546.93,593.17
32.13625,548.65,593.58
32.15764,548.64,594.89
32.17797,545.34,595.01
32.19639,548.11,596.93
32.21749,546.92,592.74
32.23712,548.57,592.75
32.25651,544.52,592.61
32.27669,544.26,592.27
32.29768,545.42,592.63
32.31688,546.81,592.31
32.33771,547.49,593.88
32.35621,549.12,594.49
32.37726,549.06,593.09
32.39643,547.85,593.48
32.41677,545.23,594.03
32.43702,544.50,596.83
32.45624,546.06,596.36
32.47683,544.00,592.85
32.49692,544.45,596.39
32.51734,545.20,594.15
32.53649,544.54,592.58
32.55684,543.43,595.33
32.57739,545.02,596.68
32.59712,544.80,596.98
32.61710,545.54,594.24
32.63766,546.72,595.21
32.65736,544.30,595.66
32.67773,547.70,596.16
32.69692,547.03,595.66
32.71648,545.28,596.66
32.73764,546.27,596.81
32.75766,546.63,598.21
32.77694,547.16,594.54
32.79668,545.01,594.18
32.81595,544.01,594.07
32.83650,547.00,595.06
32.85710,543.41,593.73
32.87702,542.59,592.94
32.89765,542.80,595.35
32.91744,544.66,597.56
32.93788,545.17,594.90
32.95749,545.84,596.67
32.97633,548.79,597.23
32.99775,549.07,595.23
33.01692,549.12,596.35
33.03693,546.20,596.17
33.05810,547.69,597.94
33.07657,549.12,598.50
33.09669,549.50,598.86
33.11655,548.44,593.62
33.13708,545.37,595.82
33.15781,547.89,592.32
33.17796,546.30,596.44
33.19695,544.69,595.07
33.21806,542.58,593.93
33.23695,544.76,595.50
33.25692,548.51,594.42
33.27633,546.90,594.73
33.29737,548.19,596.94
33.31719,546.32,596.10
33.33714,547.50,595.80
33.35744,546.32,596.20
33.37789,544.48,598.38
33.39754,544.80,596.97
33.41671,545.53,597.42
33.43759,542.68,595.94
33.45615,544.72,595.73
33.47646,544.54,595.12
33.49717,546.54,596.31
33.51708,543.30,594.87
33.53779,544.49,594.55
33.55699,545.36,596.69
33.57595,544.88,596.96
33.59627,544.86,594.55
33.61677,542.34,598.55
33.63765,542.45,598.00
33.65796,543.40,595.23
33.67644,541.80,595.80
33.69658,541.71,594.76
33.71745,542.69,597.31
33.73752,541.21,594.86
33.75651,543.26,596.68
33.77633,540.59,594.15
33.79762,540.27,593.01
33.81714,541.01,592.84
33.83803,539.28,596.47
33.85715,541.55,594.96
33.87741,542.92,595.25
33.89620,541.32,594.26
33.91778,542.00,594.27
33.93648,544.17,597.78
33.95783,540.74,596.00
33.97669,541.80,593.92
33.99660,542.90,594.27
34.01651,541.26,593.10
34.03724,543.89,593.43
34.05727,544.14,596.37
34.07661,541.11,596.47
34.09698,541.22,598.11
34.11874,540.22,595.84
34.13772,540.54,598.67
34.15823,539.95,597.74
34.17851,537.96,597.28
34.19731,540.35,596.43
34.21732,541.82,596.80
34.23867,540.50,593.91
34.25977,541.11,597.98
34.27979,540.61,596.40
34.29837,540.55,595.88
34.31912,541.10,596.80
34.33900,542.96,597.04
34.35932,540.92,597.69
34.37917,543.65,599.88
34.39915,542.29,598.22
34.41815,540.07,600.42
34.43838,540.21,598.03
34.45897,542.31,599.34
34.47799,541.27,597.03
34.49883,540.57,594.68
34.51810,540.24,593.90
34.53904,539.24,595.29
34.55941,541.06,593.62
34.57954,541.82,592.63
34.59988,545.58,596.64
34.61897,562.49,603.05
34.63962,594.08,615.89
34.65898,631.38,630.81
34.67937,664.93,643.24
34.69942,689.61,652.74
34.71966,713.16,652.36
34.73828,722.75,649.55
34.75959,725.81,643.19
34.78015,725.38,636.02
34.79849,721.83,632.26
34.81811,713.91,621.85
34.83836,698.44,620.51
34.85963,686.71,617.17
34.87815,672.30,612.06
34.89960,658.18,610.41
34.91886,643.39,608.84
34.93838,632.44,606.79
34.95798,621.06,605.85
34.97950,610.67,603.25
35.00009,601.96,602.26
35.01941,590.91,601.98
35.03834,584.53,602.76
35.05897,578.15,600.48
35.07815,574.42,603.04
35.09815,568.19,600.78
35.11956,563.61,600.40
35.13888,562.79,599.78
35.15920,556.94,599.95
35.17968,556.83,601.38
35.19926,553.65,602.03
35.21974,551.15,601.53
35.23887,547.76,601.97
35.25994,548.11,599.19
35.27971,546.31,597.71
35.29874,544.83,600.92
35.31914,545.35,601.01
35.33881,543.82,599.69
35.35926,545.44,598.98
35.37868,543.34,600.61
35.40009,541.56,598.72
35.41966,541.61,601.44
35.43828,541.08,601.03
35.45946,542.33,598.01
35.47927,541.08,598.60
35.49863,538.73,599.16
35.51932,538.25,601.85
35.53868,540.03,601.63
35.55865,543.72,601.21
35.57951,535.48,602.55
35.59940,519.82,604.70
35.61812,494.22,605.39
35.63969,463.66,596.07
35.65908,432.34,584.05
35.67836,399.11,568.84
35.69887,369.86,554.74
35.71907,351.87,541.33
35.73981,343.01,537.90
35.75926,346.52,537.08
35.77905,355.57,537.75
35.79963,367.45,539.55
35.81879,381.67,544.11
35.83811,396.37,550.19
35.85900,411.59,556.22
35.87948,425.28,561.06
35.89872,439.54,564.78
35.91837,453.90,571.47
35.93916,461.97,573.45
35.95934,475.15,577.05
35.97999,483.83,581.05
35.99914,489.97,584.05
36.01969,499.09,584.85
36.03889,504.53,586.62
36.05969,509.96,585.81
36.07923,515.86,591.12
36.09937,517.93,592.64
36.11890,523.50,594.38
36.13988,527.70,594.85
36.15857,526.96,597.92
36.17933,531.62,597.82
36.19841,530.13,598.59
36.21796,535.53,595.58
36.23877,534.86,595.15
36.25852,537.31,594.66
36.27825,534.86,597.33
36.29830,538.15,597.00
36.31796,539.34,594.69
36.33936,538.78,594.80
36.35910,538.26,597.89
36.37994,537.05,597.13
36.39922,541.00,596.39
36.41990,537.19,597.66
36.43898,539.25,596.16
36.45956,538.02,596.41
36.47840,540.34,598.19
36.49940,539.00,598.26
36.52000,539.48,597.69
36.53887,538.25,600.28
36.55828,540.81,597.36
36.57797,538.20,597.23
36.59987,537.45,597.03
36.61866,540.33,598.37
36.63848,539.58,599.42
36.65844,538.77,600.68
36.67847,540.38,600.82
36.69837,541.91,600.65
36.71916,543.36,600.63
36.73872,544.52,598.36
36.75972,544.11,599.63
36.77813,539.77,600.90
36.79924,542.25,600.03
36.81956,541.64,598.49
36.83913,542.93,600.60
36.85942,542.15,597.46
36.87935,540.78,599.49
36.90002,540.69,601.73
36.91933,540.30,601.58
36.93961,541.93,600.76
36.95869,542.45,600.67
36.97809,542.79,602.40
36.99821,539.25,598.41
37.01791,542.27,601.89
37.03796,539.78,601.23
37.05977,540.96,600.88
37.07929,543.10,597.62
37.09921,543.49,598.41
37.11843,540.97,596.71
37.13938,542.26,599.92
37.15986,542.67,599.01
37.17976,543.42,597.18
37.19881,542.97,595.94
37.21865,545.94,595.38
37.23922,542.42,597.60
37.26066,543.65,596.20
37.28000,544.23,599.74
37.30084,543.20,599.97
37.31914,544.42,600.78
37.34088,546.04,600.60
37.36072,542.94,600.23
37.37945,541.48,601.09
37.40000,542.24,598.99
37.41941,539.50,600.05
37.43912,541.40,600.40
37.46078,544.21,601.99
37.48036,543.05,601.88
37.49987,544.06,603.72
37.51987,543.20,601.75
37.54074,543.63,601.17
37.56039,544.39,603.46
37.57957,544.95,601.64
37.60009,543.55,604.35
37.61931,542.47,604.15
37.63933,541.32,602.89
37.66065,541.64,601.62
37.67904,544.83,601.39
37.69922,542.33,601.99
37.71953,541.46,602.75
37.73921,541.92,601.36
37.76030,542.50,601.98
37.78021,543.28,600.70
37.80036,541.55,600.85
37.81960,541.87,599.00
37.83906,545.54,600.68
37.86035,543.28,597.83
37.88046,543.22,597.37
37.89968,545.21,599.27
37.91907,543.80,600.65
37.93916,543.68,601.62
37.96058,545.08,601.74
37.97933,543.59,600.84
37.99923,545.10,600.62
38.01932,544.55,601.11
38.03927,544.21,600.94
38.06063,546.48,601.35
38.08018,546.02,602.23
38.09921,544.37,603.33
38.12051,543.43,602.36
38.13961,541.79,603.11
38.15888,544.64,602.27
38.18014,543.10,600.72
38.20008,543.97,600.24
38.21962,545.20,601.67
38.23994,544.59,603.16
38.25936,544.02,602.42
38.27992,544.43,602.30
38.29930,543.22,603.63
38.31905,545.89,602.87
38.34028,546.49,601.39
38.36022,546.07,603.54
38.37928,545.10,601.15
38.40044,548.75,600.29
38.41912,547.38,599.47
38.44063,543.86,600.94
38.45976,546.40,600.98
38.48034,544.06,599.37
38.49992,546.54,598.35
38.51892,543.23,597.88
38.54079,543.06,597.77
38.55921,543.42,598.19
38.58088,546.53,598.77
38.59954,544.66,599.62
38.61943,546.91,600.00
38.63948,545.80,600.20
38.66022,548.44,597.08
38.67974,547.89,597.69
38.70029,544.93,601.02
38.72013,544.56,598.09
38.74083,549.87,600.36
38.76056,550.32,597.43
38.78064,549.30,598.66
38.79891,548.06,596.42
38.82067,550.45,598.91
38.84049,553.26,599.59
38.85909,550.52,595.44
38.88077,549.32,595.81
38.89936,548.54,595.73
38.91914,561.00,604.31
38.94069,584.60,618.30
38.95930,618.82,635.85
38.97969,652.00,653.57
39.00006,682.69,665.11
39.01978,709.55,668.62
39.03938,722.19,664.00
39.06001,729.84,660.66
39.07939,731.36,650.73
39.09957,722.78,644.41
39.12093,714.51,634.56
39.14066,702.41,629.78
39.15968,692.76,622.97
39.18001,677.54,620.03
39.20038,666.52,615.55
39.21951,650.02,612.52
39.23959,641.40,606.81
39.25928,629.75,606.79
39.27996,618.56,604.84
39.30055,610.13,605.39
39.32032,603.67,603.19
39.34059,593.22,598.70
39.35897,587.92,600.69
39.37956,583.61,600.45
39.40010,578.04,600.75
39.41960,573.16,597.81
39.44007,566.44,598.68
39.46021,564.49,598.91
39.47975,560.76,597.89
39.49991,556.85,598.33
39.52019,555.80,597.58
39.53919,555.92,597.77
39.55989,555.85,599.54
39.57980,554.47,600.98
39.60012,552.92,602.41
39.61971,553.45,600.71
39.63991,552.25,603.16
39.66039,551.77,602.99
39.68083,550.91,601.56
39.69927,552.45,599.64
39.72001,550.97,603.06
39.73930,548.91,599.03
39.76072,547.27,600.99
39.78005,546.20,601.60
39.79903,547.60,602.37
39.81942,549.42,600.73
39.83904,543.43,602.77
39.86086,527.88,605.43
39.87967,504.65,604.93
39.90000,476.85,601.44
39.91915,447.03,594.28
39.93961,416.05,586.76
39.96085,385.81,573.87
39.97971,366.41,566.03
40.00069,357.11,558.97
40.01964,358.18,556.82
40.04026,365.33,554.85
40.05917,376.88,559.24
40.08081,388.70,560.65
40.10085,400.75,562.21
40.12076,415.71,566.59
40.14085,431.51,566.54
40.16084,445.21,571.64
40.17922,456.67,572.76
40.19919,467.29,578.06
40.21997,478.94,581.05
40.23928,488.59,579.81
40.25894,497.93,584.60
40.27912,502.87,585.35
40.29923,509.91,586.09
40.32021,513.64,589.64
40.33989,517.91,590.99
40.35926,524.62,592.09
40.37928,525.39,593.94
40.39959,529.72,593.36
40.42063,528.74,595.25
40.43971,533.19,597.02
40.45965,534.08,599.74
40.48007,537.94,597.37
40.49943,537.62,597.80
40.51893,537.92,599.93
40.53966,538.69,601.43
40.56066,541.11,600.42
40.58039,542.52,601.93
40.59967,542.28,601.31
40.62040,544.28,601.05
40.64144,544.96,602.92
40.66166,542.95,603.04
40.68157,543.50,602.25
40.70081,544.62,600.87
40.72025,546.68,602.85
40.74144,545.26,603.68
40.76046,545.47,603.08
40.78131,546.21,601.18
40.80184,544.04,598.90
40.82179,546.51,602.02
40.84034,547.70,599.56
40.86096,547.13,598.31
40.88119,544.70,599.40
40.90068,547.39,599.23
40.92160,546.62,597.95
40.94231,545.29,597.33
40.96122,544.07,597.43
40.98270,545.39,596.75
41.00120,546.84,593.85
41.02273,545.07,593.85
41.04169,544.37,594.53
41.06198,544.16,597.45
41.08233,546.32,597.10
41.10098,544.81,593.47
41.12234,543.52,596.51
41.14091,544.27,593.78
41.16199,545.32,595.35
41.18189,546.50,593.44
41.20198,545.61,595.03
41.22251,548.30,596.19
41.24283,549.00,594.74
41.26101,550.02,596.52
41.28232,550.46,595.74
41.30275,548.72,594.83
41.32285,550.47,594.32
41.34113,550.72,597.19
41.36231,546.75,596.83
41.38227,547.41,595.52
41.40181,548.28,596.53
41.42225,544.60,597.78
41.44098,545.28,594.20
41.46176,545.31,597.35
41.48212,547.54,596.16
41.50136,549.74,592.07
41.52158,549.23,591.69
41.54111,547.31,595.20
41.56197,547.02,591.63
41.58194,547.26,594.65
41.60079,544.55,592.53
41.62238,543.97,596.40
41.64175,544.89,596.59
41.66254,544.53,594.76
41.68099,546.38,594.44
41.70139,545.78,594.61
41.72245,546.86,594.41
41.74165,544.77,593.01
41.76168,547.80,594.71
41.78194,547.94,593.58
41.80261,545.16,595.08
41.82139,543.59,593.37
41.84198,545.66,596.09
41.86217,546.44,595.83
41.88125,544.48,595.45
41.90167,544.22,595.37
41.92216,545.43,598.91
41.94295,544.99,597.11
41.96235,546.64,598.99
41.98263,544.55,596.01
42.00151,545.00,596.19
42.02163,548.53,597.97
42.04094,548.76,599.71
42.06155,548.69,599.78
42.08136,544.87,598.47
42.10266,547.63,597.93
42.12263,547.69,597.03
42.14150,549.13,597.51
42.16286,541.58,597.97
42.18250,538.41,604.03
42.20105,531.88,617.86
42.22254,529.21,638.81
42.24212,526.31,667.75
42.26114,527.28,688.10
42.28148,522.58,688.64
42.30156,518.48,676.45
42.32133,519.82,651.68
42.34286,519.11,624.02
42.36249,519.79,600.97
42.38124,520.30,575.74
42.40110,524.40,558.91
42.42226,523.93,544.28
42.44175,528.10,536.38
42.46280,528.95,529.98
42.48171,532.04,526.14
42.50195,534.08,529.95
42.52220,532.66,530.19
42.54216,532.99,532.73
42.56264,532.18,538.54
42.58102,534.26,543.40
42.60157,536.45,549.70
42.62282,537.62,553.40
42.64245,537.44,559.21
42.66205,539.94,564.48
42.68276,539.71,568.99
42.70200,541.40,574.21
42.72203,542.31,581.13
42.74236,544.58,585.88
42.76125,545.23,588.38
42.78170,542.49,593.64
42.80286,543.99,595.09
42.82259,545.75,599.84
42.84208,547.06,600.63
42.86128,547.54,603.77
42.88101,546.82,608.15
42.90288,548.60,606.07
