Program Time [s],data 0,data 1
3.26237,538.87,622.56
3.28235,538.98,622.70
3.30326,540.80,620.66
3.32236,541.96,621.54
3.34221,544.82,622.59
3.36337,545.29,619.53
3.38319,543.43,622.23
3.40310,544.41,624.53
3.42171,542.58,623.76
3.44344,542.41,624.49
3.46352,541.28,625.23
3.48221,544.03,623.99
3.50225,543.26,623.98
3.52192,541.52,623.21
3.54377,545.18,622.90
3.56335,545.07,622.93
3.58199,547.00,621.72
3.60248,548.25,624.84
3.62192,547.53,623.06
3.64361,547.70,624.07
3.66203,545.73,622.20
3.68195,546.66,622.12
3.70299,545.98,625.52
3.72357,546.23,626.62
3.74273,542.09,622.50
3.76315,543.52,623.95
3.78231,545.48,623.31
3.80339,543.50,624.71
3.82366,542.73,623.71
3.84205,543.52,625.61
3.86354,543.21,623.01
3.88354,541.33,623.30
3.90262,542.13,625.58
3.92242,542.46,625.36
3.94269,540.41,625.90
3.96228,543.30,623.83
3.98327,542.67,624.82
4.00274,540.89,622.78
4.02273,541.77,621.41
4.04222,542.93,624.29
4.06362,540.23,624.39
4.08280,543.73,622.78
4.10200,542.11,623.56
4.12300,542.07,622.04
4.14245,543.30,625.15
4.16271,545.43,624.76
4.18204,544.84,624.65
4.20193,542.38,623.78
4.22214,542.53,622.29
4.24249,543.10,622.49
4.26219,543.09,620.09
4.28222,543.15,619.46
4.30235,543.35,621.26
4.32234,542.57,622.24
4.34243,540.86,618.42
4.36293,543.12,622.72
4.38209,539.49,619.85
4.40280,541.92,621.42
4.42291,541.68,620.68
4.44204,540.76,619.89
4.46231,542.12,621.29
4.48248,538.74,622.73
4.50291,537.91,621.43
4.52248,540.02,621.93
4.54210,541.14,623.89
4.56241,540.69,619.67
4.58328,540.38,623.66
4.60219,541.47,623.46
4.62201,541.07,623.03
4.64366,543.85,622.38
4.66275,539.94,620.81
4.68199,540.30,621.40
4.70218,537.41,620.14
4.72312,540.63,623.61
4.74242,542.08,622.96
4.76289,542.86,620.79
4.78234,541.23,621.03
4.80250,544.58,621.51
4.82186,559.37,630.14
4.84239,581.23,643.70
4.86252,611.57,659.59
4.88180,641.60,671.11
4.90320,671.15,679.81
4.92347,687.30,679.90
4.94316,703.54,675.39
4.96376,712.09,669.30
4.98252,711.29,661.93
5.00256,709.16,651.92
5.02356,701.10,644.24
5.04356,694.61,635.62
5.06179,684.22,628.68
5.08220,673.80,627.55
5.10251,658.82,624.74
5.12227,646.99,622.08
5.14242,636.78,621.46
5.16272,626.00,621.35
5.18249,618.01,619.13
5.20248,609.81,620.09
5.22358,599.18,621.04
5.24209,590.56,622.12
5.26206,583.37,625.10
5.28321,578.36,625.61
5.30338,572.70,624.85
5.32215,570.19,626.92
5.34195,567.17,624.65
5.36357,561.92,624.99
5.38172,558.94,626.25
5.40201,557.11,628.34
5.42368,556.50,624.18
5.44181,556.21,629.12
5.46374,555.96,627.29
5.48298,552.03,627.55
5.50336,553.20,624.99
5.52327,549.59,624.76
5.54199,551.58,624.38
5.56180,547.35,624.42
5.58242,548.19,622.13
5.60286,545.21,623.12
5.62372,545.19,624.79
5.64274,543.73,625.84
5.66296,544.87,626.36
5.68351,544.21,626.63
5.70226,544.18,627.45
5.72207,544.99,624.54
5.74351,543.44,624.70
5.76245,541.45,622.50
5.78198,543.80,621.61
5.80195,541.46,619.43
5.82215,541.96,621.09
5.84363,542.54,620.78
5.86218,538.96,621.46
5.88357,538.18,623.08
5.90229,537.72,623.89
5.92330,529.28,628.54
5.94289,518.48,642.34
5.96206,500.85,660.45
5.98217,485.76,674.22
6.00179,463.00,680.04
6.02344,441.22,674.58
6.04331,415.73,658.78
6.06364,387.50,632.03
6.08240,368.08,607.47
6.10211,354.70,581.21
6.12195,346.84,565.14
6.14211,350.88,555.56
6.16240,360.54,549.15
6.18359,370.00,549.02
6.20255,385.48,548.47
6.22173,399.22,550.40
6.24317,414.18,555.39
6.26295,428.59,560.47
6.28326,444.94,569.69
6.30310,458.01,572.76
6.32268,468.75,579.73
6.34360,476.16,589.45
6.36229,484.13,592.90
6.38263,492.25,594.30
6.40238,498.45,598.51
6.42213,504.21,598.88
6.44251,509.98,601.53
6.46355,516.36,601.35
6.48262,518.95,604.76
6.50218,523.73,605.10
6.52209,528.26,604.88
6.54269,529.29,606.37
6.56326,533.21,606.85
6.58383,533.30,606.71
6.60272,535.09,611.19
6.62352,535.46,610.34
6.64350,535.94,613.57
6.66191,535.73,614.47
6.68246,536.92,613.43
6.70250,536.04,613.82
6.72330,535.95,612.77
6.74219,536.44,611.86
6.76221,537.50,614.27
6.78295,540.24,614.62
6.80348,538.18,612.61
6.82257,540.28,615.47
6.84331,539.63,613.30
6.86215,540.98,614.24
6.88337,540.54,616.20
6.90366,539.36,618.20
6.92342,539.82,615.87
6.94241,539.46,614.98
6.96345,540.74,616.47
6.98312,540.65,614.50
7.00370,543.27,613.61
7.02239,543.75,614.16
7.04297,544.96,617.02
7.06225,544.42,616.34
7.08436,542.30,614.25
7.10389,545.99,612.81
7.12312,545.08,612.92
7.14357,542.58,615.80
7.16436,543.70,615.19
7.18510,546.45,614.75
7.20490,547.56,615.03
7.22469,547.74,616.79
7.24485,547.65,619.86
7.26403,543.40,616.92
7.28473,546.83,618.95
7.30480,545.28,621.08
7.32514,547.57,618.25
7.34436,545.01,620.24
7.36567,547.34,617.97
7.38649,546.81,615.53
7.40631,542.76,617.90
7.42483,543.22,615.97
7.44494,542.43,614.91
7.46643,543.86,614.32
7.48569,545.43,611.98
7.50620,545.31,609.93
7.52589,545.14,609.95
7.54630,546.56,607.54
7.56624,548.29,610.98
7.58583,548.23,610.11
7.60684,546.63,608.84
7.62756,550.09,608.29
7.64785,551.31,610.51
7.66660,549.77,611.67
7.68697,548.99,610.27
7.70633,549.58,608.25
7.72594,547.60,609.42
7.74671,549.54,611.11
7.76718,549.65,612.03
7.78578,545.80,614.90
7.80682,549.55,612.91
7.82751,547.90,615.15
7.84611,549.80,613.37
7.86764,546.53,610.58
7.88643,547.50,610.67
7.90640,546.03,609.72
7.92619,546.62,610.05
7.94683,546.94,606.57
7.96695,544.89,605.53
7.98666,543.88,611.13
8.00573,543.71,609.95
8.02722,542.93,611.78
8.04664,544.32,613.13
8.06658,541.90,611.59
8.08635,542.88,614.79
8.10699,544.52,613.58
8.12734,543.51,614.00
8.14616,544.44,614.92
8.16625,547.50,613.58
8.18729,546.44,611.46
8.20690,548.52,615.73
8.22613,548.62,614.09
8.24653,547.23,613.94
8.26664,546.78,614.62
8.28586,545.68,611.97
8.30762,547.68,612.79
8.32582,548.57,614.16
8.34725,548.18,614.03
8.36643,546.90,614.53
8.38724,543.68,611.85
8.40578,543.97,612.86
8.42654,546.22,614.74
8.44706,544.20,617.24
8.46621,545.03,615.77
8.48730,544.10,616.93
8.50594,545.74,615.26
8.52585,547.96,614.09
8.54747,547.63,616.00
8.56695,543.98,614.93
8.58614,545.57,616.61
8.60724,543.42,615.52
8.62732,547.82,615.29
8.64643,548.29,619.09
8.66679,545.61,617.89
8.68589,548.87,617.84
8.70566,549.47,615.57
8.72584,550.62,615.54
8.74644,548.14,615.69
8.76748,546.03,617.79
8.78658,548.64,617.61
8.80573,547.93,616.30
8.82736,547.56,614.08
8.84768,546.85,614.71
8.86624,546.66,616.73
8.88682,547.23,615.40
8.90666,547.70,618.13
8.92758,558.21,618.80
8.94647,581.19,628.93
8.96591,613.31,644.53
8.98756,648.08,657.82
9.00602,678.59,665.32
9.02772,704.74,670.74
9.04709,721.19,669.42
9.06705,731.93,665.79
9.08650,736.36,657.09
9.10672,734.72,648.76
9.12607,727.97,640.79
9.14708,720.08,634.28
9.16613,708.51,626.49
9.18601,697.45,622.86
9.20614,686.08,617.26
9.22765,669.09,618.36
9.24594,660.94,616.90
9.26587,649.48,614.30
9.28639,636.25,613.45
9.30651,627.45,611.61
9.32622,614.89,614.35
9.34621,609.47,612.78
9.36770,599.29,611.86
9.38739,593.08,612.85
9.40626,588.29,615.33
9.42565,585.27,617.84
9.44661,577.80,614.74
9.46733,573.60,615.62
9.48677,569.54,614.42
9.50622,565.62,617.12
9.52600,565.96,617.45
9.54706,562.63,617.95
9.56608,560.22,617.22
9.58747,559.93,618.28
9.60613,559.40,616.44
9.62649,558.17,618.06
9.64676,557.15,619.46
9.66695,554.19,620.90
9.68718,555.52,619.50
9.70722,554.60,619.47
9.72696,555.00,615.73
9.74739,550.49,616.78
9.76583,545.81,618.47
9.78664,537.23,616.40
9.80709,518.66,615.83
9.82783,486.65,615.65
9.84583,451.39,607.88
9.86712,419.62,600.42
9.88867,388.02,587.32
9.90771,359.79,578.13
9.92743,342.68,567.05
9.94809,340.98,563.24
9.96709,345.50,563.66
9.98665,354.81,564.57
10.00665,369.51,567.34
10.02752,382.57,569.07
10.04755,398.72,575.39
10.06727,415.27,580.96
10.08847,428.44,582.65
10.10803,444.54,588.54
10.12735,458.02,595.14
10.14859,468.32,600.48
10.16798,480.53,601.34
10.18808,488.08,602.78
10.20789,498.07,608.53
10.22682,502.60,608.38
10.24844,508.11,612.14
10.26749,516.10,611.00
10.28850,519.04,615.33
10.30826,524.33,614.53
10.32792,526.81,619.38
10.34774,530.77,619.18
10.36685,534.89,622.57
10.38774,535.21,620.80
10.40679,537.84,622.17
10.42744,539.30,620.99
10.44764,541.69,623.84
10.46798,540.83,621.98
10.48756,542.11,621.36
10.50846,541.72,621.52
10.52700,541.89,622.73
10.54670,544.20,621.61
10.56717,544.41,620.52
10.58817,543.99,621.28
10.60783,546.25,619.79
10.62765,548.15,620.94
10.64706,546.13,618.88
10.66688,545.95,619.73
10.68721,550.12,622.58
10.70810,548.87,620.49
10.72879,548.84,622.99
10.74835,548.44,622.26
10.76805,547.77,621.40
10.78843,550.26,618.39
10.80757,548.58,619.09
10.82855,549.91,618.82
10.84868,548.58,620.07
10.86710,545.22,618.85
10.88835,547.81,618.85
10.90684,546.83,619.97
10.92801,545.62,621.38
10.94733,544.54,622.26
10.96854,544.23,619.33
10.98719,543.90,620.59
11.00720,543.10,618.58
11.02759,546.69,617.64
11.04675,545.83,620.42
11.06829,545.96,618.06
11.08746,545.41,619.09
11.10711,548.22,619.01
11.12716,545.72,616.03
11.14731,548.03,618.03
11.16817,548.34,616.77
11.18691,546.50,619.35
11.20838,546.98,617.48
11.22775,547.24,617.66
11.24839,548.56,619.80
11.26810,549.04,619.35
11.28714,549.36,617.45
11.30729,546.37,618.54
11.32858,548.76,617.60
11.34796,547.28,617.19
11.36847,547.59,616.16
11.38852,548.95,616.77
11.40775,547.12,615.79
11.42820,548.17,614.04
11.44841,544.65,613.76
11.46762,544.62,615.42
11.48720,546.95,614.45
11.50723,544.48,613.64
11.52841,546.38,613.78
11.54761,546.53,615.24
11.56756,546.03,614.77
11.58864,545.85,613.83
11.60860,545.89,617.68
11.62768,544.64,615.05
11.64690,544.26,613.79
11.66839,546.44,616.35
11.68809,544.03,614.97
11.70686,547.04,614.27
11.72793,543.63,617.60
11.74836,545.96,616.95
11.76711,546.37,614.77
11.78854,543.71,617.58
11.80858,545.92,614.24
11.82773,542.23,615.92
11.84777,543.35,613.46
11.86816,543.95,616.69
11.88912,542.00,613.63
11.90803,541.66,615.86
11.92847,542.58,615.32
11.94783,543.83,613.82
11.96829,545.11,613.21
11.98775,545.75,613.99
12.00811,544.40,615.22
12.02768,543.14,614.36
12.04773,544.63,611.79
12.06938,544.40,615.73
12.08886,541.86,612.12
12.10836,544.30,613.25
12.12799,545.51,612.43
12.14849,545.12,612.92
12.16761,544.30,613.42
12.18864,545.68,613.63
12.20819,545.08,613.02
12.22829,544.25,613.18
12.24889,544.93,615.39
12.26877,544.77,613.83
12.29033,542.35,617.37
12.30933,541.72,614.49
12.32942,544.50,615.68
12.34946,543.95,613.51
12.36905,544.77,616.38
12.38917,543.28,614.13
12.40873,542.43,616.36
12.42911,543.01,617.29
12.44961,542.55,613.24
12.46956,544.27,616.07
12.48865,541.22,616.80
12.50999,542.86,616.14
12.53018,541.72,616.37
12.54907,543.69,616.63
12.57035,543.19,614.60
12.59004,543.67,617.52
12.60932,543.62,618.41
12.63003,542.43,614.84
12.64905,543.37,617.77
12.66888,544.20,615.00
12.68906,544.03,616.23
12.71064,541.52,615.53
12.73173,542.74,618.98
12.75094,543.60,615.69
12.77074,544.72,618.22
12.79095,542.70,617.43
12.81114,544.21,617.17
12.83236,544.92,619.16
12.85088,544.42,620.66
12.87148,546.11,620.45
12.89138,542.04,619.16
12.91083,542.38,617.17
12.93220,542.11,618.83
12.95158,542.34,617.90
12.97169,541.95,617.94
12.99170,542.56,617.25
13.01064,542.90,616.86
13.03148,542.04,617.47
13.05107,540.47,617.82
13.07153,543.78,616.55
13.09239,541.57,616.70
13.11181,542.72,617.46
13.13177,542.93,617.59
13.15215,538.90,616.34
13.17181,539.59,615.52
13.19117,540.51,619.23
13.21186,541.61,616.84
13.23162,536.91,618.50
13.25339,537.91,617.25
13.27246,539.40,618.28
13.29272,538.67,617.78
13.31262,537.64,619.64
13.33341,537.48,619.79
13.35182,543.20,619.59
13.37260,562.66,630.11
13.39230,587.58,642.86
13.41173,619.13,658.53
13.43170,656.27,672.72
13.45258,686.71,683.94
13.47230,712.73,685.23
13.49266,728.58,683.14
13.51290,735.95,678.66
13.53282,734.78,670.04
13.55321,729.95,659.33
13.57325,720.14,651.26
13.59172,711.09,643.08
13.61229,700.70,636.69
13.63316,682.89,633.23
13.65341,668.04,631.63
13.67185,656.54,628.69
13.69270,640.21,626.27
13.71216,630.19,622.58
13.73274,617.94,622.38
13.75205,609.27,622.78
13.77310,599.18,621.97
13.79286,593.35,620.90
13.81288,586.81,620.69
13.83243,578.41,621.77
13.85251,573.69,621.55
13.87183,570.48,621.57
13.89308,563.05,620.25
13.91353,562.23,617.97
13.93310,556.39,618.90
13.95208,553.38,618.11
13.97237,553.80,619.33
13.99335,551.89,618.55
14.01271,549.68,616.39
14.03354,543.69,618.34
14.05407,543.96,618.43
14.07370,543.46,619.41
14.09385,541.96,619.60
14.11393,540.36,618.63
14.13385,541.23,619.58
14.15349,539.92,621.74
14.17296,537.17,624.03
14.19373,526.82,629.17
14.21322,513.16,631.50
14.23303,489.44,626.91
14.25352,458.50,621.12
14.27335,428.53,609.70
14.29297,398.82,598.65
14.31433,373.27,580.92
14.33303,352.63,566.30
14.35407,338.89,558.88
14.37335,334.63,553.16
14.39279,339.12,551.63
14.41344,349.16,548.88
14.43375,362.94,553.56
14.45270,376.95,554.72
14.47395,392.03,560.27
14.49355,407.65,568.02
14.51439,422.68,570.79
14.53396,435.57,576.83
14.55397,445.43,582.79
14.57302,458.67,587.51
14.59315,469.24,592.29
14.61393,476.68,595.44
14.63315,486.54,596.78
14.65338,494.20,603.07
14.67273,500.16,605.84
14.69468,504.72,605.09
14.71435,509.54,608.66
14.73343,510.64,611.47
14.75416,514.14,612.51
14.77329,519.23,611.28
14.79344,521.49,613.81
14.81348,524.84,612.56
14.83273,527.21,615.75
14.85399,530.18,614.52
14.87381,532.23,616.54
14.89336,531.77,617.85
14.91275,535.48,617.86
14.93365,534.65,617.14
14.95343,536.43,617.94
14.97251,534.22,618.28
14.99280,535.00,617.42
15.01278,534.86,618.36
15.03425,536.36,617.50
15.05293,537.11,616.52
15.07344,534.19,615.74
15.09534,536.05,618.49
15.11518,536.29,616.17
15.13550,535.69,619.03
15.15421,538.10,618.69
15.17384,540.24,618.91
15.19438,533.80,619.02
15.21368,533.68,622.26
15.23541,534.79,622.04
15.25392,534.49,623.63
15.27416,533.61,624.57
15.29418,534.66,621.89
15.31437,535.37,624.72
15.33508,533.64,623.59
15.35537,533.97,625.09
15.37525,534.01,624.00
15.39412,535.10,625.93
15.41539,533.79,624.10
15.43386,533.56,621.83
15.45478,534.73,624.77
15.47386,532.54,625.09
15.49415,536.00,628.49
15.51543,532.24,627.54
15.53554,532.20,624.17
15.55437,532.19,626.83
15.57468,534.86,624.62
15.59485,532.67,622.49
15.61459,535.10,623.22
15.63521,534.37,626.37
15.65387,534.17,624.08
15.67454,535.48,623.48
15.69474,536.48,623.32
15.71441,534.14,620.01
15.73500,532.19,620.14
15.75512,535.28,622.09
15.77471,534.12,623.44
15.79477,537.76,624.98
15.81499,537.13,622.48
15.83486,535.17,623.70
15.85464,536.30,623.32
15.87448,535.68,622.76
15.89465,532.87,624.01
15.91514,533.74,624.34
15.93492,534.29,624.91
15.95552,533.74,623.11
15.97541,537.13,625.07
15.99467,535.10,622.08
16.01436,534.49,624.70
16.03383,537.34,623.92
16.05475,539.13,623.75
16.07509,535.80,623.81
16.09550,537.07,625.41
16.11431,536.69,622.96
16.13406,536.97,624.20
16.15381,537.26,625.92
16.17483,536.14,624.09
16.19517,536.46,625.94
16.21427,538.98,625.24
16.23382,537.13,623.58
16.25483,536.05,623.96
16.27454,534.40,620.96
16.29374,535.06,623.17
16.31509,538.68,622.84
16.33470,535.44,620.94
16.35513,535.89,624.29
16.37381,533.90,623.60
16.39364,533.87,621.29
16.41516,535.51,622.09
16.43447,536.97,622.74
16.45468,535.12,622.84
16.47393,536.71,621.39
16.49409,536.62,620.74
16.51520,537.26,622.20
16.53543,534.71,621.48
16.55370,537.47,621.79
16.57391,536.17,622.83
16.59415,536.93,624.31
16.61411,538.60,624.23
16.63496,536.28,623.97
16.65486,535.96,620.72
16.67424,535.41,622.93
16.69474,535.45,622.00
16.71362,536.77,621.68
16.73522,538.77,623.91
16.75406,537.98,623.70
16.77480,539.87,623.91
16.79496,538.87,623.03
16.81523,540.22,623.36
16.83477,538.84,623.24
16.85508,539.92,620.74
16.87453,539.85,623.80
16.89515,540.21,622.52
16.91357,540.15,624.82
16.93444,537.31,623.70
16.95521,537.54,622.82
16.97397,537.30,622.03
16.99353,538.49,622.45
17.01520,538.41,622.52
17.03466,540.05,623.28
17.05371,538.17,621.27
17.07392,536.04,620.95
17.09469,539.22,620.50
17.11369,538.01,621.62
17.13430,539.01,622.84
17.15368,540.90,622.09
17.17424,539.65,620.49
17.19554,538.20,621.27
17.21395,540.67,622.30
17.23545,538.80,620.96
17.25396,537.80,620.85
17.27528,538.20,621.99
17.29443,541.36,620.77
17.31537,540.17,622.13
17.33480,538.69,622.56
17.35412,538.87,623.10
17.37501,537.84,622.90
17.39415,539.45,620.95
17.41493,540.62,623.85
17.43473,539.66,624.21
17.45526,538.84,623.38
17.47535,537.59,623.52
17.49418,538.15,622.14
17.51430,537.55,623.52
17.53423,538.45,622.17
17.55518,539.45,625.67
17.57475,538.02,623.64
17.59335,539.32,623.32
17.61478,541.04,625.79
17.63521,540.61,627.31
17.65552,540.98,625.61
17.67405,537.45,625.66
17.69416,540.01,622.89
17.71399,539.33,624.40
17.73551,539.98,620.98
17.75416,540.46,623.56
17.77545,540.30,624.76
17.79555,538.17,624.47
17.81348,539.94,625.50
17.83519,537.26,624.06
17.85481,549.50,627.51
17.87479,568.33,636.02
17.89419,602.61,647.44
17.91457,632.13,659.44
17.93512,662.41,667.37
17.95498,686.72,674.66
17.97372,706.86,674.60
17.99444,716.38,669.06
18.01398,723.17,665.81
18.03478,720.26,660.35
18.05354,715.52,656.33
18.07384,705.86,650.76
18.09375,699.91,643.70
18.11360,686.90,640.79
18.13521,670.96,635.72
18.15488,659.53,638.10
18.17500,645.87,636.71
18.19381,634.19,632.69
18.21367,623.36,632.35
18.23549,614.06,630.28
18.25546,604.67,630.03
18.27382,594.89,629.05
18.29491,587.67,629.19
18.31495,582.31,626.72
18.33454,574.35,628.86
18.35411,570.92,628.95
18.37494,564.06,624.80
18.39536,562.39,625.09
18.41398,558.41,627.61
18.43527,557.47,622.88
18.45375,551.21,622.18
18.47380,550.89,622.54
18.49435,548.71,625.72
18.51421,546.34,623.91
18.53459,546.66,626.57
18.55528,543.83,624.64
18.57356,546.99,626.05
18.59521,545.04,627.87
18.61364,543.37,628.40
18.63362,544.75,628.44
18.65422,542.61,626.92
18.67388,543.23,626.12
18.69480,543.03,628.46
18.71375,544.60,626.35
18.73502,542.56,627.13
18.75479,539.64,625.27
18.77368,525.99,626.35
18.79418,501.12,626.26
18.81476,470.90,617.60
18.83540,434.85,602.26
18.85473,401.13,592.23
18.87358,369.87,579.12
18.89504,350.07,573.79
18.91498,340.98,570.52
18.93351,341.33,569.94
18.95527,351.01,570.11
18.97504,361.60,574.18
18.99511,372.57,578.62
19.01414,387.40,581.04
19.03471,403.57,586.14
19.05459,417.03,590.77
19.07484,433.49,595.04
19.09506,447.03,599.09
19.11376,458.27,602.51
19.13502,467.79,608.50
19.15517,478.80,609.16
19.17538,488.01,613.17
19.19378,495.93,613.34
19.21486,502.25,613.99
19.23485,506.22,616.43
19.25471,511.18,619.19
19.27469,514.41,618.46
19.29350,518.19,622.60
19.31411,522.22,621.88
19.33377,525.79,622.41
19.35410,526.52,624.38
19.37383,528.79,625.65
19.39360,533.34,625.05
19.41483,534.39,625.30
19.43486,536.25,628.49
19.45608,536.69,627.38
19.47592,538.13,628.65
19.49571,538.93,626.79
19.51563,538.18,629.10
19.53570,539.04,627.33
19.55431,541.09,628.90
19.57591,539.47,628.31
19.59630,539.48,625.05
19.61597,543.11,626.81
19.63607,538.94,624.84
19.65443,542.43,628.84
19.67462,542.05,625.96
19.69596,540.40,627.60
19.71536,541.29,627.75
19.73637,542.04,625.68
19.75521,542.45,627.51
19.77530,544.19,628.07
19.79624,543.15,628.18
19.81456,543.78,627.78
19.83684,543.66,630.32
19.85541,542.78,630.30
19.87499,543.00,628.94
19.89611,540.68,626.36
19.91626,545.41,629.73
19.93497,545.39,629.52
19.95456,544.30,629.17
19.97467,542.44,628.27
19.99496,541.75,630.66
20.01587,542.68,632.31
20.03661,545.15,632.21
20.05568,543.55,630.71
20.07565,546.47,631.51
20.09717,545.72,629.07
20.11724,542.89,628.86
20.13577,545.02,630.83
20.15562,548.53,629.24
20.17637,547.16,631.99
20.19687,547.70,630.99
20.21571,547.45,631.74
20.23615,547.24,631.80
20.25559,545.59,636.23
20.27623,544.72,634.94
20.29590,544.20,632.36
20.31626,546.62,630.25
20.33647,544.76,630.66
20.35661,543.35,630.99
20.37554,543.95,631.56
20.39592,541.72,628.91
20.41570,542.35,629.39
20.43561,545.10,627.98
20.45547,544.00,629.44
20.47545,543.93,626.69
20.49540,544.73,631.23
20.51667,541.66,630.27
20.53622,540.17,629.19
20.55683,543.68,630.87
20.57631,544.18,629.77
20.59563,542.64,629.59
20.61602,546.80,629.17
20.63726,545.31,626.92
20.65700,546.59,629.40
20.67802,545.21,627.32
20.69751,544.10,625.12
20.71681,543.29,625.29
20.73822,545.36,626.47
20.75676,543.94,626.35
20.77815,546.51,629.44
20.79780,546.27,629.69
20.81666,547.38,628.94
20.83750,546.45,626.02
20.85669,549.43,625.03
20.87796,547.30,626.84
20.89775,549.59,624.70
20.91861,544.61,623.11
20.93840,547.87,621.82
20.95925,547.76,622.74
20.97815,548.76,623.94
20.99836,544.82,623.97
21.01790,546.66,620.05
21.03789,546.49,620.83
21.05844,547.44,618.94
21.07907,544.32,620.44
21.09835,545.83,619.71
21.11753,543.88,619.20
21.13929,542.43,620.13
21.15815,543.36,617.29
21.18013,544.75,619.41
21.20026,542.53,618.59
21.21843,543.48,618.52
21.23919,546.64,619.60
21.25993,547.11,619.95
21.27907,546.78,620.96
21.30023,546.63,618.69
21.32042,546.01,620.16
21.33836,547.80,621.32
21.36011,547.97,620.13
21.37965,547.93,621.06
21.39909,547.13,620.71
21.42002,547.16,616.99
21.43937,548.62,617.91
21.45959,548.13,616.85
21.48004,547.24,616.58
21.50007,548.19,615.77
21.51881,550.97,618.43
21.53997,550.01,618.51
21.55959,550.25,615.79
21.57865,548.82,618.40
21.59979,550.15,616.20
21.61963,549.22,617.26
21.64005,550.20,618.09
21.65990,551.01,616.38
21.68022,546.81,614.49
21.69935,547.07,614.42
21.71937,547.87,615.06
21.73917,547.61,614.31
21.75859,545.93,614.10
21.77908,550.52,613.56
21.79886,567.21,624.16
21.81859,599.49,634.75
21.83909,634.45,648.75
21.86020,666.88,665.13
21.87991,694.50,673.10
21.90040,721.89,680.12
21.91964,738.60,678.08
21.93975,742.78,673.56
21.96015,741.72,665.97
21.97934,738.46,654.21
21.99975,725.42,645.23
22.02000,716.66,638.30
22.03900,702.82,633.14
22.06022,685.86,629.44
22.07962,671.85,626.38
22.09961,658.74,623.29
22.11905,646.61,620.15
22.13957,634.25,618.17
22.15856,622.41,617.03
22.17979,611.07,617.68
22.19942,604.50,616.62
22.22020,595.96,616.78
22.24014,589.29,613.31
22.25859,583.47,612.64
22.27864,578.32,613.74
22.29864,570.81,613.74
22.31868,571.59,615.18
22.34021,569.03,616.33
22.36007,562.48,613.70
22.37995,562.09,614.98
22.39983,559.41,614.29
22.42030,555.83,612.58
22.43907,556.16,614.69
22.45956,556.90,613.25
22.47918,556.37,613.55
22.49987,551.70,614.36
22.51855,554.15,610.65
22.54030,550.02,610.63
22.55938,550.89,613.96
22.57990,549.56,610.57
22.60004,550.63,612.37
22.61869,552.72,612.27
22.63925,549.45,611.78
22.65989,553.04,612.43
22.67934,541.73,611.69
22.69944,514.40,608.37
22.71912,481.61,598.29
22.73897,441.01,582.97
22.76098,403.62,567.09
22.78129,372.41,554.41
22.80033,346.67,548.51
22.81965,338.05,545.23
22.84007,339.70,543.12
22.86094,349.05,544.20
22.87991,357.56,550.27
22.90142,374.87,555.64
22.92022,390.88,558.93
22.94037,403.27,564.41
22.96127,420.94,570.23
22.97998,435.86,576.23
22.99997,447.07,584.27
23.01978,459.02,590.43
23.04014,471.51,590.69
23.06038,480.33,596.76
23.08097,491.89,598.23
23.10082,500.22,603.78
23.12024,505.89,603.39
23.14029,513.35,607.51
23.16032,518.27,608.89
23.18047,522.13,608.61
23.20100,526.89,611.45
23.22019,529.49,609.57
23.24002,530.14,610.00
23.25972,532.42,610.86
23.28067,533.32,613.28
23.30082,537.22,613.21
23.32228,537.04,612.37
23.34162,535.15,614.16
23.36070,537.15,615.06
23.38090,536.87,612.42
23.40170,538.28,611.25
23.42067,537.69,612.77
23.44069,538.18,613.77
23.46183,539.25,613.70
23.48177,538.78,612.51
23.50107,541.62,611.25
23.52210,541.94,612.83
23.54056,541.77,612.77
23.56203,543.84,615.60
23.58055,546.85,612.93
23.60117,544.29,616.01
23.62205,548.35,612.57
23.64218,547.68,613.40
23.66169,547.31,615.43
23.68252,545.52,614.74
23.70202,545.79,615.97
23.72285,542.18,615.87
23.74312,544.74,617.90
23.76125,541.57,616.22
23.78166,539.66,617.06
23.80321,542.92,617.34
23.82240,542.50,614.55
23.84319,541.45,615.26
23.86324,544.86,616.00
23.88348,540.94,615.54
23.90481,543.16,614.85
23.92458,544.45,616.85
23.94435,543.92,617.67
23.96372,545.47,618.28
23.98493,543.69,616.98
24.00354,542.96,618.36
24.02559,540.27,618.35
24.04487,540.09,616.55
24.06396,543.50,617.68
24.08469,541.16,616.95
24.10529,541.39,616.46
24.12449,542.37,615.68
24.14566,543.20,617.37
24.16635,544.02,618.49
24.18591,542.68,619.11
24.20541,543.13,617.72
24.22604,543.32,618.06
24.24532,541.98,621.05
24.26541,540.41,617.75
24.28502,541.00,620.65
24.30491,540.34,620.16
24.32497,540.04,618.44
24.34555,536.94,618.70
24.36606,539.20,616.64
24.38566,539.37,616.01
24.40583,538.27,617.40
24.42474,539.49,617.88
24.44479,542.31,616.28
24.46463,539.52,616.69
24.48484,540.55,617.16
24.50466,543.00,620.93
24.52464,542.93,618.29
24.54457,540.18,619.29
24.56587,540.23,621.38
24.58482,540.61,620.28
24.60570,541.41,618.99
24.62498,542.41,620.99
24.64454,541.79,620.57
24.66618,540.61,619.45
24.68472,539.48,620.50
24.70602,537.47,621.79
24.72636,540.66,619.69
24.74594,542.12,617.89
24.76603,542.42,621.38
24.78517,542.26,619.62
24.80523,540.80,621.21
24.82552,542.24,618.80
24.84593,543.82,618.04
24.86571,541.99,617.51
24.88479,542.82,617.14
24.90477,541.90,618.41
24.92598,542.88,617.68
24.94488,544.62,618.18
24.96550,543.69,619.64
24.98445,542.34,616.11
25.00560,542.28,616.30
25.02631,543.51,619.27
25.04491,542.57,618.13
25.06546,543.68,619.09
25.08571,540.70,617.69
25.10617,541.47,617.53
25.12480,541.46,619.87
25.14629,542.36,617.01
25.16465,542.11,619.74
25.18617,542.70,618.26
25.20439,539.22,620.89
25.22583,541.75,619.31
25.24498,542.04,618.70
25.26459,540.98,619.44
25.28457,544.71,618.57
25.30561,557.37,625.87
25.32459,582.57,638.47
25.34436,618.56,658.24
25.36442,652.31,673.96
25.38718,685.71,685.81
25.40696,711.49,689.45
25.42583,728.56,688.20
25.44561,734.59,679.48
25.46614,738.38,670.63
25.48737,735.59,658.37
25.50654,725.13,649.82
25.52543,714.56,641.05
25.54555,703.31,631.33
25.56615,687.68,624.73
25.58668,674.81,617.74
25.60528,659.11,615.08
25.62578,646.83,613.28
25.64644,632.22,615.25
25.66595,623.02,610.76
25.68705,613.47,612.74
25.70610,604.25,613.97
25.72667,594.48,614.13
25.74648,587.89,614.16
25.76560,580.71,614.89
25.78586,573.85,616.23
25.80655,570.44,616.94
25.82806,565.18,617.05
25.84725,563.30,617.97
25.86813,561.08,618.42
25.88835,558.44,621.00
25.90692,553.77,621.75
25.92817,552.07,619.61
25.94721,549.68,620.59
25.96785,547.25,619.24
25.98708,547.20,621.00
26.00671,545.98,621.95
26.02786,546.48,619.80
26.04760,543.21,619.60
26.06732,544.36,621.29
26.08879,544.63,624.52
26.10816,543.10,625.35
26.12845,544.44,623.51
26.14739,541.95,624.09
26.16822,536.93,627.98
26.18791,535.20,628.31
26.20915,532.06,629.02
26.22724,529.26,632.01
26.24805,520.77,632.28
26.26887,507.91,634.10
26.28944,486.80,633.79
26.30925,463.29,630.67
26.32894,436.40,621.80
26.34848,407.63,613.82
26.36832,385.77,599.74
26.39029,366.71,589.94
26.40897,351.25,582.16
26.42817,339.63,571.52
26.44994,342.95,566.44
26.46897,350.09,565.98
26.48829,360.05,566.72
26.50914,373.53,572.34
26.52977,389.22,577.48
26.55026,405.48,583.41
26.56886,419.59,586.92
26.58857,432.44,590.51
26.60914,446.50,594.68
26.62852,456.75,600.51
26.64854,466.22,604.45
26.66998,477.28,607.09
26.68949,484.98,607.77
26.70901,491.18,609.54
26.73001,499.52,610.96
26.74841,505.21,611.91
26.76916,511.15,615.33
26.78881,515.49,617.99
26.80886,518.39,617.04
26.82925,522.69,619.17
26.85020,522.74,618.99
26.86874,527.39,616.31
26.88979,527.48,620.09
26.90987,531.49,619.51
26.92821,535.64,620.48
26.95016,537.62,622.02
26.96933,539.71,618.89
26.98908,540.73,622.04
27.01001,541.08,621.18
27.03004,538.97,623.94
27.04927,538.00,625.44
27.06916,538.20,625.07
27.08939,540.79,622.81
27.11029,537.05,627.03
27.12970,538.30,624.61
27.14811,538.49,626.64
27.16837,539.54,626.29
27.18906,542.41,630.47
27.20998,544.52,629.80
27.22966,543.53,627.92
27.24947,546.57,631.00
27.26978,543.52,631.20
27.29022,542.78,630.05
27.30855,546.13,631.72
27.33008,542.67,632.64
27.34847,543.07,631.85
27.36912,540.25,635.21
27.38868,540.73,633.52
27.41040,542.69,633.84
27.42975,544.16,632.07
27.44893,542.96,632.89
27.46858,542.66,631.48
27.49005,542.47,630.33
27.51020,541.62,630.96
27.52933,545.37,633.01
27.54873,543.58,628.01
27.56985,540.25,629.59
27.59017,540.40,629.07
27.60955,541.23,628.05
27.63039,540.92,627.37
27.64964,540.14,627.04
27.67017,541.77,625.63
27.68931,537.55,625.75
27.70972,539.18,626.80
27.72997,542.45,625.59
27.74836,541.10,627.29
27.76870,542.49,627.90
27.78954,544.73,623.64
27.80969,541.97,624.50
27.82861,542.07,624.93
27.84948,542.48,625.79
27.86950,542.49,624.56
27.88904,544.43,626.79
27.90927,542.68,627.04
27.92876,542.84,623.11
27.94895,540.30,626.75
27.96947,543.15,624.10
27.98936,542.70,628.54
28.01041,542.33,628.30
28.02879,543.57,627.57
28.05012,541.15,626.84
28.06991,540.40,629.11
28.08860,541.83,624.93
28.10856,541.76,626.82
28.12911,543.97,628.44
28.14954,540.70,625.33
28.17018,541.13,627.92
28.18886,541.25,626.39
28.20944,543.20,628.47
28.22864,545.67,628.66
28.28951,543.37,626.24
28.29058,546.17,628.03
28.29051,544.80,629.36
28.30885,541.20,629.65
28.32872,540.30,629.77
28.34951,541.76,627.09
28.36976,541.72,627.64
28.38858,540.40,628.02
28.40969,540.71,627.21
28.42932,543.59,624.23
28.45102,542.52,623.56
28.47078,542.82,623.71
28.49177,545.89,619.85
28.51053,544.58,622.03
28.53121,545.69,620.00
28.55138,545.45,621.81
28.57017,543.15,621.67
28.59132,543.78,619.61
28.61150,543.53,619.26
28.63181,542.51,620.79
28.65213,543.13,619.14
28.67202,542.48,622.15
28.69165,543.27,622.56
28.71173,542.29,620.11
28.73139,543.19,619.85
28.75050,540.64,619.15
28.77048,542.70,622.15
28.79124,539.25,621.43
28.81096,542.48,621.50
28.83055,540.43,620.22
28.85135,541.71,623.14
28.87147,542.16,622.95
28.89062,541.82,619.49
28.91223,543.87,619.24
28.93076,543.05,620.34
28.95022,544.02,618.83
28.97227,542.82,616.95
28.99042,544.12,614.29
29.01234,543.19,613.33
29.03237,541.26,616.13
29.05106,541.46,615.35
29.07087,540.55,613.14
29.09134,541.22,614.57
29.11179,539.13,618.70
29.13227,549.78,623.41
29.15208,570.60,632.75
29.17092,598.95,647.69
29.19134,635.60,662.29
29.21208,669.04,679.33
29.23041,696.55,690.08
29.25174,719.46,695.44
29.27149,734.51,692.69
29.29065,743.92,686.72
29.31178,747.06,683.16
29.33104,739.65,671.11
29.35114,735.82,661.14
29.37206,724.24,655.38
29.39152,712.37,646.93
29.41036,697.64,640.23
29.43054,685.95,634.26
29.45100,670.40,630.79
29.47095,656.39,626.77
29.49155,643.42,628.01
29.51056,629.64,624.42
29.53155,620.37,622.13
29.55217,609.64,620.92
29.57194,599.11,622.29
29.59136,591.49,622.10
29.61130,584.98,623.31
29.63108,581.32,624.06
29.65064,576.40,620.29
29.67047,572.80,619.23
29.69034,567.47,619.89
29.71114,566.76,621.90
29.73205,563.91,620.81
29.75228,563.60,621.64
29.77104,559.22,620.28
29.79025,555.75,623.06
29.81046,554.19,619.42
29.83174,552.44,617.93
29.85206,553.44,618.38
29.87131,551.85,616.97
29.89315,548.38,615.90
29.91206,551.39,616.57
29.93185,548.21,620.56
29.95164,547.89,617.53
29.97200,546.37,617.29
29.99259,541.46,616.89
30.01212,528.97,616.24
30.03309,503.88,607.61
30.05308,473.96,600.20
30.07119,440.88,588.48
30.09242,410.63,575.29
30.11269,378.87,562.52
30.13229,358.42,551.94
30.15323,341.33,544.54
30.17152,340.60,541.23
30.19212,346.49,540.24
30.21126,358.23,543.13
30.23364,370.19,547.79
30.25386,387.78,555.13
30.27337,401.60,560.81
30.29287,416.10,567.14
30.31372,430.77,570.90
30.33364,441.68,581.32
30.35422,458.61,586.92
30.37347,468.60,588.67
30.39311,480.78,592.15
30.41245,487.76,592.92
30.43324,496.82,596.33
30.45356,505.81,598.35
30.47242,512.21,599.92
30.49302,517.21,599.70
30.51360,522.45,601.57
30.53244,526.62,603.55
30.55269,528.72,604.75
30.57215,530.55,607.61
30.59308,532.71,608.48
30.61334,535.04,604.87
30.63272,537.70,607.82
30.65352,537.11,606.38
30.67277,537.83,607.13
30.69393,541.75,607.30
30.71379,539.53,607.32
30.73250,542.50,607.55
30.75321,541.06,607.17
30.77372,543.16,606.18
30.79390,543.22,607.29
30.81320,542.66,606.14
30.83377,544.97,606.66
30.85379,542.71,608.09
30.87278,543.23,606.15
30.89290,545.70,605.81
30.91386,545.39,606.57
30.93221,542.79,606.43
30.95335,546.99,607.47
30.97272,546.87,606.95
30.99311,546.71,608.93
31.01254,545.93,608.53
31.03268,544.05,611.61
31.05211,544.22,610.54
31.07308,547.72,611.87
31.09255,548.66,611.35
31.11429,547.39,612.30
31.13281,547.77,610.96
31.15305,545.09,612.24
31.17345,547.59,612.04
31.19280,544.91,614.08
31.21271,543.84,612.42
31.23406,543.39,612.81
31.25271,545.92,613.14
31.27213,545.01,612.14
31.29408,543.90,614.86
31.31381,546.18,613.09
31.33244,543.90,613.93
31.35397,545.16,611.75
31.37208,548.00,612.13
31.39285,547.20,610.83
31.41252,547.79,613.35
31.43413,546.96,611.02
31.45401,545.33,611.28
31.47397,546.85,613.03
31.49234,549.50,614.81
31.51275,549.23,614.07
31.53296,547.61,613.50
31.55248,547.23,612.92
31.57320,548.36,615.85
31.59389,548.85,614.53
31.61384,549.42,613.42
31.63382,550.23,615.00
31.65245,547.95,617.75
31.67276,546.74,617.49
31.69292,550.08,613.84
31.71415,547.45,616.57
31.73389,546.09,614.36
31.75278,544.19,615.09
31.77279,545.81,617.16
31.79262,545.08,615.68
31.81315,545.46,612.62
31.83359,545.94,614.53
31.85287,546.18,611.05
31.87256,545.93,609.48
31.89411,544.49,610.24
31.91372,546.34,612.93
31.93412,546.32,612.90
31.95413,543.45,611.63
31.97373,544.44,611.77
31.99241,546.71,612.20
32.01291,545.59,612.09
32.03367,544.45,610.38
32.05332,543.17,608.63
32.07391,544.32,612.54
32.09244,542.88,612.77
32.11289,545.50,609.61
32.13347,546.22,611.90
32.15227,544.05,613.41
32.17312,542.91,611.77
32.19234,543.49,610.98
32.21355,544.45,613.30
32.23397,545.33,614.55
32.25270,545.61,613.37
32.27307,545.95,612.67
32.29253,546.01,613.83
32.31285,546.41,616.18
32.33246,543.05,614.32
32.35237,545.45,613.33
32.37388,545.78,615.38
32.39420,546.37,616.62
32.41332,546.04,613.61
32.43242,547.20,615.76
32.45227,546.50,618.41
32.47243,547.94,615.16
32.49322,544.86,615.69
32.51328,546.65,614.74
32.53377,544.67,616.29
32.55222,546.90,618.16
32.57318,550.10,615.65
32.59348,548.28,617.01
32.61303,550.12,615.68
32.63282,548.18,613.40
32.65286,549.34,613.93
32.67273,549.59,615.63
32.69335,557.32,622.39
32.71253,577.44,634.60
32.73374,610.57,650.94
32.75300,641.45,667.48
32.77290,673.04,682.17
32.79395,699.73,690.25
32.81324,721.10,692.20
32.83394,733.61,687.27
32.85267,739.38,682.87
32.87263,736.98,670.92
32.89211,731.52,660.02
32.91383,721.78,650.06
32.93333,710.35,641.26
32.95369,695.30,632.67
32.97386,682.62,625.62
32.99234,666.90,621.33
33.01264,654.34,619.52
33.03274,640.31,614.55
33.05363,629.00,612.12
33.07406,618.70,609.64
33.09400,606.75,611.24
33.11357,596.81,609.89
33.13246,591.25,612.61
33.15257,585.13,610.28
33.17313,578.23,609.07
33.19368,573.85,610.65
33.21216,569.77,611.41
33.23255,565.81,610.98
33.25306,560.51,613.48
33.27242,559.27,614.02
33.29270,557.99,614.95
33.31397,556.27,613.01
33.33355,552.65,614.14
33.35248,553.52,614.37
33.37221,552.74,615.05
33.39273,552.60,614.78
33.41362,552.70,616.25
33.43359,550.45,615.68
33.45276,549.48,617.40
33.47316,547.03,617.05
33.49322,547.97,615.77
33.51383,547.74,614.24
33.53402,549.91,614.26
33.55394,547.40,612.60
33.57394,546.26,612.40
33.59379,549.05,612.31
33.61278,544.92,614.84
33.63353,546.76,614.82
33.65249,549.19,615.70
33.67264,545.59,617.46
33.69232,545.01,618.67
33.71275,544.82,616.96
33.73264,543.36,610.60
33.75261,542.37,610.38
33.77352,540.83,608.33
33.79221,541.53,606.23
33.81255,542.04,605.70
33.83266,544.88,607.11
33.85280,543.51,608.29
33.87213,543.98,605.21
33.89383,537.83,602.49
33.91410,520.95,603.23
33.93518,497.19,597.59
33.95501,472.46,592.17
33.97428,443.20,582.60
33.99395,415.81,577.71
34.01325,393.59,571.97
34.03512,372.32,565.02
34.05384,359.05,559.41
34.07503,350.43,561.80
34.09472,355.93,559.24
34.11411,361.35,564.62
34.13417,372.16,568.06
34.15522,386.95,571.75
34.17462,399.15,574.70
34.19424,413.22,581.73
34.21313,429.77,584.81
34.23497,441.39,589.97
34.25358,453.65,594.16
34.27332,464.66,595.92
34.29324,473.30,597.62
34.31361,484.85,601.70
34.33447,492.41,604.23
34.35447,500.78,609.33
34.37353,507.39,611.27
34.39480,511.25,609.22
34.41344,514.50,610.20
34.43416,520.49,615.22
34.45447,523.45,615.66
34.47483,527.21,617.10
34.49504,525.45,617.79
34.51535,528.34,619.62
34.53594,529.86,618.46
34.55537,533.09,620.41
34.57434,533.70,619.49
34.59576,536.22,617.73
34.61567,540.07,617.33
34.63445,538.19,618.46
34.65541,541.58,616.74
34.67589,542.48,617.58
34.69448,543.08,618.00
34.71442,541.49,618.98
34.73519,540.42,617.47
34.75514,538.99,618.06
34.77594,542.00,620.20
34.79470,539.46,618.61
34.81610,539.94,618.37
34.83437,536.38,617.81
34.85457,537.34,620.76
34.87453,538.58,620.73
34.89540,542.01,620.95
34.91596,545.55,622.91
34.93565,549.72,624.40
34.95539,551.48,620.95
34.97557,555.11,619.55
34.99613,554.62,619.54
35.01554,552.57,620.79
35.03562,555.74,622.18
35.05583,553.01,622.33
35.07435,549.41,621.58
35.09545,547.75,622.11
35.11686,547.88,619.91
35.13705,546.61,621.96
35.15692,546.04,620.81
35.17720,543.55,619.78
35.19746,545.84,620.82
35.21761,543.74,619.67
35.23627,542.61,622.71
35.25622,541.28,619.84
35.27787,542.95,619.29
35.29817,539.76,622.22
35.31749,539.38,622.70
35.33804,540.90,621.71
35.35668,539.49,621.77
35.37671,538.04,624.31
35.39808,541.11,623.17
35.41769,540.01,620.46
35.43625,537.19,621.30
35.45788,540.37,623.10
35.47629,539.87,621.60
35.49754,538.52,619.66
35.51726,537.54,619.83
35.53766,539.29,619.79
35.55592,538.40,623.79
35.57684,537.97,620.73
35.59669,538.13,622.36
35.61826,535.52,624.20
35.63773,536.60,624.71
35.65805,538.62,621.60
35.67862,536.53,623.36
35.69876,536.75,622.65
35.71796,536.13,621.89
35.73889,534.82,624.53
35.75746,535.23,622.52
35.77729,534.01,623.52
35.79779,536.53,623.14
35.81805,538.62,623.67
35.83887,537.85,620.38
35.85766,536.78,619.85
35.87836,538.22,623.46
35.89803,539.33,623.80
35.91797,537.60,620.67
35.93839,536.32,622.50
35.95882,537.08,619.83
35.97766,539.25,620.53
35.99828,535.70,619.92
36.01902,538.13,620.95
36.03832,536.38,620.51
36.05714,535.84,622.57
36.07810,538.07,623.04
36.09894,537.49,620.31
36.11865,536.34,620.80
36.13715,535.25,623.54
36.15800,537.20,621.57
36.17717,537.79,624.42
36.19865,537.44,623.58
36.21769,534.53,623.75
36.23755,538.03,622.37
36.25727,534.82,622.85
36.27781,534.45,622.25
36.29827,535.63,622.11
36.31810,536.68,622.58
36.33712,537.17,624.32
36.35826,535.55,624.43
36.37772,533.69,622.16
36.39843,536.14,623.77
36.41835,534.84,621.25
36.43810,549.29,628.94
36.45722,577.40,638.04
36.47730,607.66,653.29
36.49877,642.67,663.91
36.51781,675.05,673.24
36.53919,700.42,675.18
36.55720,716.90,675.50
36.57764,724.76,671.03
36.59726,723.35,665.01
36.61804,722.95,657.94
36.63733,715.74,655.89
36.65825,704.65,650.33
36.67789,691.90,644.62
36.69900,679.68,643.94
36.71724,666.12,639.06
36.73825,651.45,636.73
36.75755,640.27,635.13
36.77810,628.94,632.59
36.79773,616.14,630.90
36.81803,605.09,629.32
36.83735,598.55,628.73
36.85837,590.27,627.38
36.87899,580.89,626.27
36.89799,575.02,626.25
36.91853,571.50,624.66
36.93865,565.46,626.43
36.95853,559.22,625.53
36.97878,559.23,626.09
36.99786,554.53,625.49
37.01895,556.40,628.11
37.03810,550.12,625.75
37.05873,551.31,626.34
37.07794,549.75,625.04
37.09851,547.06,624.18
37.11902,548.33,625.94
37.13818,547.20,627.68
37.15905,546.02,628.04
37.17741,543.31,626.94
37.19786,541.92,625.17
37.21848,539.35,630.29
37.23824,541.95,627.20
37.25774,532.40,631.93
37.27792,522.93,639.58
37.29880,508.96,649.09
37.31820,489.91,659.84
37.33728,473.26,662.60
37.35754,455.52,664.27
37.37728,432.14,652.42
37.39875,409.24,634.75
37.41936,385.66,614.52
37.43977,362.28,590.45
37.46044,350.52,572.86
37.48086,348.86,559.85
37.50030,354.29,551.47
37.52021,366.19,549.23
37.53994,376.42,547.99
37.55980,390.60,552.31
37.58048,404.31,557.19
37.60083,418.04,561.67
37.62021,432.21,566.55
37.63969,444.72,574.06
37.66014,456.66,575.82
37.67948,466.64,582.29
37.69913,478.04,587.24
37.72072,487.27,591.83
37.73966,495.15,595.61
37.75964,501.66,599.82
37.78067,508.05,604.87
37.80098,513.45,608.82
37.82030,516.34,611.22
37.83977,521.38,613.63
37.86052,520.52,612.67
37.87900,525.22,617.03
37.89985,527.18,617.86
37.91950,531.17,618.25
37.94026,530.71,620.19
37.96014,533.67,619.38
37.97930,535.35,622.48
38.00036,534.71,624.08
38.02091,537.48,623.62
38.03970,539.24,625.83
38.06052,539.44,625.39
38.08008,540.20,624.90
38.10009,538.10,626.45
38.11942,539.31,623.15
38.13988,537.22,626.89
38.15927,539.24,624.61
38.18077,540.13,627.15
38.20064,541.11,629.99
38.22086,539.14,630.51
38.24071,540.19,627.91
38.26042,541.89,628.35
38.27965,541.97,629.97
38.30037,543.48,628.51
38.32062,543.47,629.86
38.34087,543.52,627.96
38.35926,541.38,626.14
38.37892,542.37,626.40
38.39930,545.46,626.37
38.41995,541.61,627.91
38.44066,540.18,629.83
38.46102,541.09,626.90
38.48037,542.75,629.40
38.50034,542.55,628.47
38.52025,544.92,629.00
38.53914,543.11,630.20
38.55983,540.81,626.73
38.58077,542.99,629.60
38.59967,539.76,629.65
38.61911,541.81,630.05
38.64003,541.56,629.36
38.66085,542.37,628.80
38.68016,541.31,632.55
38.69925,543.51,633.82
38.72052,539.39,631.24
38.73995,540.57,630.36
38.75915,540.39,630.62
38.78079,541.67,629.30
38.79951,540.34,629.28
38.81946,539.74,628.51
38.84099,538.14,628.00
38.86061,539.55,628.76
38.88069,540.71,627.94
38.90035,540.51,627.07
38.91987,543.39,626.56
38.93919,544.51,628.10
38.95988,544.46,625.51
38.97932,543.80,628.01
39.00013,541.38,625.67
39.02085,544.11,623.84
39.03926,542.32,624.37
39.06072,545.35,627.72
39.08056,543.86,626.25
39.09950,540.97,624.06
39.12064,545.03,623.91
39.14017,544.31,623.06
39.16000,544.94,625.15
39.18009,545.04,624.14
39.19939,545.07,626.81
39.21946,544.79,626.00
39.24030,543.24,624.73
39.26059,542.88,625.95
39.28048,541.62,626.10
39.29937,544.62,627.51
39.32085,543.59,627.29
39.33886,545.01,626.10
39.36029,546.84,627.07
39.37901,542.86,627.14
39.39927,544.69,627.69
39.42008,543.62,627.89
39.44025,546.14,626.55
39.46140,543.55,626.99
39.48114,544.91,627.43
39.50099,544.65,626.57
39.52175,543.72,624.97
39.54180,543.18,623.89
39.56008,541.33,623.48
39.58119,541.38,622.01
39.60036,542.71,623.50
39.62120,545.73,622.95
39.64086,545.50,624.04
39.66050,546.24,623.88
39.68154,544.52,625.72
39.70066,544.35,624.20
39.72183,541.39,625.68
39.74171,545.31,624.71
39.76152,544.23,621.15
39.78093,541.72,624.09
39.80116,544.09,622.91
39.82127,542.91,625.99
39.84149,544.06,626.36
39.86189,543.18,622.34
39.88237,545.34,623.11
39.90411,544.98,621.61
39.92144,544.87,622.00
39.94169,543.73,621.47
39.96280,548.40,622.68
39.98182,559.88,629.30
40.00273,587.44,639.95
40.02257,620.38,650.56
40.04200,654.84,668.16
40.06264,687.07,677.18
40.08240,713.30,682.15
40.10114,732.65,680.42
40.12247,742.86,678.33
40.14270,741.93,671.17
40.16166,739.55,668.02
40.18117,732.51,659.91
40.20274,720.34,651.46
40.22186,708.79,645.07
40.24379,692.51,640.30
40.26346,680.43,632.18
40.28356,665.77,626.61
40.30396,654.56,625.34
40.32191,640.48,619.86
40.34296,630.91,621.96
40.36228,619.58,618.42
40.38346,610.04,618.80
40.40345,600.93,619.27
40.42244,592.80,618.84
40.44235,588.37,618.67
40.46353,581.87,617.22
40.48392,576.86,616.37
40.50265,573.30,620.31
40.52358,569.30,617.84
40.54269,566.53,617.68
40.56397,565.69,617.08
40.58453,564.69,616.24
40.60457,559.67,616.72
40.62362,558.81,615.27
40.64446,558.16,614.18
40.66359,555.54,616.83
40.68362,556.58,617.81
40.70473,553.14,616.95
40.72327,554.57,617.91
40.74360,553.27,615.64
40.76368,550.65,615.29
40.78484,551.67,615.00
40.80358,550.38,614.85
40.82433,549.44,617.64
40.84324,547.90,616.90
40.86469,550.21,619.08
40.88422,544.08,620.88
40.90391,539.75,628.19
40.92394,529.96,638.38
40.94314,511.00,646.16
40.96466,483.34,643.18
40.98392,451.51,629.54
41.00331,421.12,608.39
41.02327,390.80,587.93
41.04445,367.88,566.57
41.06365,350.64,551.41
41.08439,346.16,544.72
41.10328,349.67,537.32
41.12472,361.21,533.94
41.14306,370.05,536.22
41.16486,386.42,536.87
41.18425,402.37,543.15
41.20477,416.51,546.33
41.22390,432.33,552.88
41.24395,443.82,555.46
41.26488,456.59,562.03
41.28449,469.56,567.27
41.30404,480.87,572.43
41.32386,489.72,578.49
41.34461,496.00,581.27
41.36461,501.79,583.50
41.38463,509.62,587.75
41.40365,515.87,591.22
41.42504,517.72,595.04
41.44372,522.22,594.09
41.46470,523.55,597.91
41.48503,526.45,601.06
41.50364,531.49,603.10
41.52483,531.50,602.45
41.54389,532.47,603.73
41.56321,532.81,604.63
41.58493,537.50,604.25
41.60462,537.40,606.85
41.62387,536.06,608.41
41.64392,539.39,608.68
41.66353,539.20,609.82
41.68447,541.77,612.08
41.70354,541.75,611.92
41.72366,541.77,615.80
41.74366,541.98,615.79
41.76321,541.26,614.42
41.78387,541.96,614.91
41.80285,545.16,612.99
41.82401,544.80,613.62
41.84432,546.35,611.35
41.86438,546.92,611.71
41.88328,547.13,611.69
41.90454,545.94,612.43
41.92472,546.56,613.85
41.94477,543.71,614.23
41.96395,542.77,612.93
41.98486,545.92,613.77
42.00320,543.00,611.97
42.02309,543.27,613.76
42.04477,540.52,613.66
42.06340,540.98,614.23
42.08325,543.30,612.33
42.10453,546.44,614.14
42.12340,544.18,612.85
42.14377,544.18,615.65
42.16393,547.55,615.72
42.18328,544.25,614.82
42.20376,546.78,612.50
42.22373,545.06,610.91
42.24480,545.23,610.61
42.26335,545.05,612.80
42.28478,545.76,610.93
42.30422,544.47,613.56
42.32398,543.79,615.37
42.34393,543.47,613.12
42.36405,544.29,617.51
42.38444,544.54,616.74
42.40356,545.62,613.38
42.42388,543.30,614.06
42.44380,543.18,613.60
42.46488,544.83,613.21
42.48319,544.33,614.81
42.50368,542.79,613.99
42.52452,546.75,609.70
42.54426,546.63,612.03
42.56395,547.65,610.03
42.58324,546.56,613.13
42.60433,546.30,612.59
42.62334,546.19,610.79
42.64291,546.36,612.06
42.66422,545.36,613.70
42.68409,546.69,613.49
42.70428,546.25,613.27
42.72466,545.99,613.92
42.74446,544.93,612.26
42.76493,544.60,613.95
42.78390,545.50,611.39
42.80332,545.76,612.56
42.82407,547.52,612.72
42.84473,545.91,613.29
42.86345,546.21,611.26
42.88348,545.86,613.80
42.90397,545.68,612.33
42.92305,546.48,614.11
42.94493,543.03,614.03
42.96438,544.12,617.10
42.98414,544.18,617.03
43.00495,542.95,616.88
43.02450,543.71,615.83
43.04470,543.08,615.12
43.06408,547.35,614.24
43.08318,544.33,616.57
43.10352,543.93,613.74
43.12304,548.34,614.03
43.14339,548.86,612.59
43.16403,545.81,610.91
43.18499,546.19,610.29
43.20327,549.37,612.20
43.22421,550.24,612.57
43.24450,546.17,613.81
43.26388,548.66,615.19
43.28457,546.47,613.74
43.30453,545.55,613.25
43.32321,547.19,612.61
43.34408,548.31,612.03
43.36370,545.15,613.76
43.38350,544.62,612.67
43.40410,545.39,610.82
43.42315,546.47,610.82
43.44398,545.55,612.35
43.46464,548.99,610.00
43.48461,547.54,609.90
43.50286,547.87,612.04
43.52345,547.21,611.79
43.54317,547.26,611.70
43.56441,547.88,612.37
43.58414,543.53,612.08
43.60391,545.82,612.33
43.62382,545.24,611.91
43.64338,545.98,613.20
43.66310,544.70,616.30
43.68305,544.51,614.75
43.70497,546.48,616.47
43.72331,545.78,612.59
43.74322,545.74,611.38
43.76337,552.72,611.13
43.78442,563.85,618.22
43.80382,587.28,632.33
43.82429,614.15,645.97
43.84371,644.31,661.60
43.86445,671.09,668.62
43.88348,695.34,673.06
43.90414,710.80,673.90
43.92470,717.56,673.01
43.94341,722.11,665.98
43.96432,723.65,660.40
43.98469,716.21,654.62
44.00477,708.50,648.05
44.02441,697.83,643.15
44.04432,684.98,634.99
44.06386,675.00,628.85
44.08369,661.98,627.06
44.10439,650.37,625.65
44.12276,640.40,624.88
44.14365,631.14,622.69
44.16330,620.37,621.00
44.18429,612.27,619.91
44.20369,604.07,618.56
44.22305,593.96,619.21
44.24452,587.97,617.64
44.26320,580.48,616.91
44.28388,575.71,618.43
44.30469,573.48,618.53
44.32467,569.11,618.60
44.34303,566.21,616.31
44.36468,561.90,618.97
44.38491,560.50,615.19
44.40444,556.02,615.19
44.42437,556.84,615.41
44.44433,556.35,614.41
44.46314,556.55,616.82
44.48329,552.53,613.77
44.50332,552.33,613.46
44.52304,552.87,614.39
44.54403,550.41,613.98
44.56303,552.19,613.72
44.58293,549.14,614.78
44.60468,548.54,613.82
44.62464,550.20,613.66
44.64456,548.38,617.44
44.66477,548.36,614.77
44.68343,546.45,614.65
44.70351,547.70,614.62
44.72424,547.91,613.85
44.74423,545.75,614.20
44.76387,548.52,616.66
44.78451,545.93,614.63
44.80404,543.70,615.33
44.82461,538.69,614.68
44.84364,524.83,612.28
44.86360,505.85,611.35
44.88333,482.09,605.63
44.90483,455.90,599.41
44.92344,429.90,593.90
44.94313,406.75,583.49
44.96422,383.89,574.94
44.98329,368.20,568.64
45.00418,357.07,564.02
45.02427,352.78,562.00
45.04495,358.74,563.16
45.06331,367.93,566.75
45.08330,383.84,569.02
45.10350,397.47,573.30
45.12326,412.45,578.12
45.14466,425.48,582.53
45.16404,443.38,585.76
45.18282,452.20,592.05
45.20363,466.66,594.41
45.22462,475.61,598.18
45.24460,485.26,599.12
45.26332,494.92,601.48
45.28434,503.79,599.88
45.30452,506.12,603.24
45.32363,510.44,604.37
45.34374,518.39,605.85
45.36481,520.07,605.68
45.38442,522.92,606.93
45.40332,524.52,610.54
45.42342,529.40,611.62
45.44383,534.35,609.89
45.46446,534.35,612.76
45.48426,534.43,609.65
45.50418,536.98,614.16
45.52289,538.23,613.90
45.54374,539.00,612.80
45.56310,538.75,614.41
45.58358,536.50,612.79
45.60354,539.21,616.99
45.62451,540.26,614.19
45.64367,540.16,613.22
45.66466,543.13,614.58
45.68459,543.01,614.99
45.70407,543.34,615.61
45.72389,541.97,614.85
45.74364,542.91,615.21
45.76353,542.37,613.61
45.78458,545.14,613.11
45.80455,542.99,617.17
45.82318,541.01,615.24
45.84348,540.14,617.37
45.86484,543.53,616.42
45.88460,543.36,613.63
45.90445,544.28,616.01
45.92288,541.97,614.67
45.94346,543.64,614.46
45.96376,543.21,615.33
45.98388,545.58,611.44
46.00421,543.11,611.47
46.02389,543.92,613.14
46.04482,542.91,610.39
46.06371,543.84,610.07
46.08315,544.07,610.68
46.10285,545.36,611.86
46.12479,544.39,609.07
46.14440,542.31,610.18
46.16446,543.92,612.76
46.18449,542.60,609.47
46.20408,544.21,611.33
46.22463,543.80,607.73
46.24457,545.07,608.88
46.26417,545.68,607.90
46.28392,543.50,609.85
46.30417,543.97,608.71
46.32419,546.82,612.32
46.34477,544.96,610.08
46.36434,545.47,612.57
46.38321,542.30,612.25
46.40402,542.47,611.64
46.42283,542.45,613.59
46.44419,540.86,612.32
46.46401,543.80,611.66
46.48441,540.79,615.25
46.50372,542.76,613.49
46.52393,540.99,615.23
46.54473,542.74,620.98
46.56439,545.80,628.85
46.58400,551.60,640.44
46.60374,556.75,651.95
46.62283,562.75,670.02
46.64353,568.46,689.61
46.66434,573.85,706.03
46.68419,575.08,716.08
46.70412,580.08,729.50
46.72342,580.72,737.78
46.74317,583.69,745.19
46.76280,585.84,746.10
46.78340,581.28,750.09
46.80285,583.34,749.34
46.82314,583.71,746.71
46.84470,583.78,743.69
46.86441,581.40,738.70
46.88407,582.67,731.00
46.90441,578.57,725.78
46.92390,577.63,717.77
46.94421,578.45,713.41
46.96319,576.69,703.37
46.98431,572.78,698.74
47.00445,575.10,692.28
47.02487,572.40,687.65
47.04459,575.09,679.04
47.06421,574.65,675.73
47.08458,577.87,671.85
47.10455,579.42,668.93
47.12437,577.62,664.74
47.14567,575.63,659.61
47.16570,571.11,656.16
47.18495,569.17,656.28
47.20411,562.23,653.71
47.22473,555.12,653.89
