Program Time [s],data 0,data 1
10.15870,598.83,715.02
10.17938,610.78,707.84
10.19921,619.54,689.55
10.21929,625.54,660.76
10.23947,622.91,633.51
10.26017,616.80,608.97
10.27968,610.64,589.64
10.30075,606.94,570.87
10.32085,598.96,559.11
10.34016,593.25,550.28
10.35966,587.87,542.92
10.37973,582.96,535.92
10.40030,580.69,534.28
10.41972,577.86,532.01
10.44041,574.74,534.77
10.46134,575.65,533.46
10.47977,578.49,529.77
10.50102,577.52,526.22
10.52139,579.48,527.63
10.54058,576.91,529.77
10.55979,577.00,535.35
10.57989,576.08,543.05
10.60007,576.96,543.35
10.61979,578.07,545.87
10.64036,583.08,551.26
10.66014,585.02,554.76
10.68123,580.50,561.32
10.70149,575.43,567.51
10.72034,574.39,573.55
10.74101,572.18,576.65
10.76030,570.00,573.76
10.78164,567.65,576.22
10.80111,570.46,577.29
10.82092,569.02,578.97
10.84233,568.33,580.45
10.86148,569.17,579.95
10.88220,570.27,582.85
10.90250,572.97,582.60
10.92276,570.23,582.56
10.94181,570.80,578.46
10.96158,570.51,581.88
10.98272,569.40,578.27
11.00288,569.08,581.76
11.02294,572.19,582.87
11.04288,564.46,584.34
11.06369,541.23,576.62
11.08567,516.19,569.18
11.10726,499.67,565.33
11.12839,489.08,561.34
11.14845,487.18,561.14
11.16964,486.18,566.81
11.18915,486.83,565.61
11.20903,488.65,567.08
11.22804,491.66,570.85
11.24881,497.63,575.44
11.27017,503.48,582.66
11.28898,509.92,587.94
11.31070,513.99,590.84
11.32982,519.84,591.56
11.35148,521.99,593.69
11.37146,528.42,595.75
11.39104,528.95,598.06
11.41103,532.25,597.79
11.43053,525.13,580.82
11.44952,513.61,557.85
11.46931,505.79,548.34
11.49054,503.57,541.68
11.51049,502.61,544.67
11.53126,504.36,543.79
11.55081,507.24,547.34
11.56957,510.41,551.93
11.59026,514.20,553.41
11.61187,517.25,560.49
11.63162,521.83,564.83
11.65230,537.18,584.32
11.67410,549.62,609.66
11.69468,562.23,637.09
11.71420,574.01,663.66
11.73569,582.05,671.02
11.75646,590.17,653.56
11.77684,594.27,653.71
11.79700,598.53,638.52
11.81651,596.54,647.65
11.83656,596.32,655.68
11.85675,598.57,628.91
11.87600,592.78,617.97
11.89715,594.07,620.77
11.91715,588.24,603.14
11.93882,580.49,562.91
11.95860,572.18,543.46
11.97772,563.74,518.63
11.99965,557.05,510.72
12.01853,550.45,519.22
12.03953,550.56,513.12
12.06014,550.47,504.91
12.07881,551.68,503.12
12.10008,552.94,512.97
12.11939,556.57,514.90
12.14086,559.30,519.71
12.16124,564.87,534.71
12.18017,567.92,540.96
12.19974,571.04,543.54
12.21955,571.98,539.72
12.23968,573.25,553.18
12.25993,573.74,555.94
12.28077,579.06,540.29
12.29964,579.36,549.27
12.32005,576.24,554.40
12.33991,574.47,553.01
12.36130,574.29,550.00
12.38063,577.66,543.41
12.40159,578.04,555.83
12.42123,582.31,552.99
12.44112,577.79,564.41
12.45968,576.03,566.40
12.48009,576.17,559.51
12.50049,574.28,553.12
12.52093,576.12,548.52
12.54104,572.72,578.71
12.56054,572.84,582.47
12.57953,570.34,575.25
12.60001,570.16,560.10
12.62014,575.82,555.50
12.64108,579.85,560.88
12.66044,581.06,565.80
12.68087,580.97,569.59
12.70195,579.00,567.16
12.72224,581.24,577.83
12.74224,579.17,577.63
12.76129,578.80,565.43
12.78180,576.44,568.85
12.80193,580.20,572.68
12.82086,573.46,575.01
12.84197,553.03,597.71
12.86198,532.77,618.42
12.88134,516.62,623.31
12.90152,515.75,627.06
12.92241,522.05,630.02
12.94143,527.97,621.84
12.96087,532.94,627.26
12.98205,542.73,634.03
13.00213,554.17,630.28
13.02126,560.67,630.15
13.04207,570.62,627.02
13.06096,576.93,619.34
13.08158,581.68,615.33
13.10190,584.20,632.38
13.12169,587.37,624.29
13.14113,590.57,617.28
13.16148,587.80,610.72
13.18212,586.98,609.79
13.20193,585.90,609.93
13.22176,585.50,617.32
13.24298,586.36,627.80
13.26264,584.73,625.47
13.28314,592.38,615.76
13.30218,600.63,609.26
13.32190,601.11,616.08
13.34302,603.37,620.90
13.36417,600.13,607.35
13.38458,597.12,605.84
13.40512,596.00,618.78
13.42547,589.35,611.42
13.44535,583.01,605.71
13.46563,578.06,601.83
13.48626,579.57,596.72
13.50529,580.43,587.09
13.52521,581.67,590.08
13.54669,585.24,588.73
13.56548,592.05,594.12
13.58655,604.29,604.98
13.60780,610.51,594.24
13.62899,608.49,592.17
13.65009,601.60,600.08
13.66962,598.03,598.87
13.69037,592.17,600.89
13.71076,586.81,613.20
13.73258,593.26,629.28
13.75090,596.92,682.60
13.77230,600.07,721.34
13.79042,604.51,726.95
13.81040,599.89,729.18
13.83235,599.83,708.10
13.85181,586.06,670.44
13.87052,565.67,638.87
13.89051,543.91,614.58
13.91271,528.11,576.45
13.93288,518.42,549.00
13.95302,511.44,529.85
13.97450,508.47,519.30
13.99536,512.84,517.54
14.01577,518.94,505.65
14.03574,521.60,516.15
14.05614,528.67,518.30
14.07585,534.28,526.93
14.09765,541.28,526.60
14.11737,545.30,525.24
14.13636,548.65,518.25
14.15598,548.16,521.02
14.17621,548.50,516.59
14.19578,554.96,534.44
14.21714,556.70,548.29
14.23694,557.12,545.14
14.25658,557.45,550.49
14.27592,560.11,551.00
14.29552,559.10,551.39
14.31672,561.56,546.44
14.33702,558.78,546.96
14.35631,558.31,539.11
14.37587,552.21,536.44
14.39556,557.79,536.34
14.41613,554.77,532.57
14.43635,554.22,536.02
14.45601,557.23,541.01
14.47673,553.73,540.43
14.49676,558.16,548.79
14.51633,565.71,560.46
14.53573,564.22,587.71
14.55555,567.72,625.97
14.57737,563.40,646.86
14.59579,560.23,649.60
14.61715,560.39,626.97
14.63693,556.84,596.14
14.65704,557.78,564.41
14.67571,554.28,540.43
14.69628,559.47,516.26
14.71634,557.37,495.10
14.73570,558.19,489.07
14.75602,559.68,493.78
14.77622,560.04,485.60
14.79575,559.37,478.26
14.81676,563.40,500.56
14.83608,549.77,513.99
14.85706,546.06,529.02
14.87658,551.46,546.24
14.89688,562.75,594.49
14.91693,578.62,648.58
14.93670,589.26,700.63
14.95620,604.87,726.36
14.97679,614.52,741.90
14.99646,617.03,753.46
15.01669,623.24,782.39
15.03822,629.67,793.01
15.05677,634.49,799.84
15.07762,635.74,794.37
15.09683,632.88,787.27
15.11759,625.60,766.44
15.13734,608.00,721.43
15.15768,576.16,669.55
15.17694,561.21,615.31
15.19829,547.51,561.29
15.21681,542.44,532.55
15.23850,541.74,509.28
15.25877,543.14,494.08
15.27884,540.86,500.84
15.30036,536.51,492.96
15.32034,532.31,492.75
15.34146,536.82,498.51
15.36030,543.10,504.22
15.37961,544.63,517.42
15.40037,544.73,523.46
15.42121,550.04,534.02
15.44005,551.22,542.19
15.46101,565.93,546.79
15.48273,563.46,545.72
15.50211,561.38,558.90
15.52324,553.78,568.52
15.54318,561.74,575.60
15.56227,562.26,580.53
15.58242,554.06,589.25
15.60337,559.01,595.58
15.62211,557.38,604.57
15.64350,550.85,602.55
15.66193,551.57,609.60
15.68274,551.13,616.81
15.70187,555.58,622.57
15.72218,553.29,629.18
15.74186,556.63,634.61
15.76207,556.81,639.83
15.78214,560.77,644.31
15.80268,574.55,636.12
15.82266,572.85,610.07
15.84211,573.68,584.87
15.86182,566.20,559.19
15.88192,564.84,534.81
15.90265,559.25,526.53
15.92295,555.98,506.38
15.94258,553.42,501.97
15.96321,550.88,496.12
15.98287,544.94,491.38
16.00156,548.23,496.91
16.02176,550.71,501.87
16.04175,549.44,511.50
16.06257,547.41,519.23
16.08360,550.39,538.44
16.10487,549.87,550.20
16.12401,556.58,555.41
16.14497,552.33,565.32
16.16494,550.49,566.37
16.18675,551.33,583.31
16.20669,552.55,594.98
16.22673,555.75,602.72
16.24563,552.67,609.68
16.26576,545.29,612.02
16.28733,547.88,618.48
16.30604,551.66,622.59
16.32674,548.11,624.68
16.34798,547.37,622.17
16.36779,553.53,625.70
16.38806,543.64,625.13
16.40719,544.14,621.06
16.42780,541.77,625.36
16.44893,546.51,628.29
16.46848,545.90,627.78
16.48991,547.98,628.22
16.51044,548.75,626.01
16.53025,549.85,623.16
16.55085,546.14,621.95
16.56991,551.32,620.18
16.59040,553.61,622.31
16.60982,553.66,621.18
16.62929,553.54,619.52
16.65121,556.22,617.70
16.67118,556.25,618.06
16.68966,554.66,617.05
16.71188,556.27,620.00
16.73279,559.04,617.73
16.75272,557.18,617.48
16.77295,558.75,614.64
16.79441,557.15,614.06
16.81419,554.70,620.87
16.83361,560.70,647.93
16.85448,562.86,694.95
16.87324,568.17,747.38
16.89389,570.22,780.93
16.91255,571.67,809.01
16.93441,578.32,812.60
16.95366,579.29,803.70
16.97259,573.50,789.36
16.99295,574.22,769.01
17.01329,571.02,751.78
17.03320,572.40,731.91
17.05303,570.58,712.26
17.07364,565.51,699.05
17.09367,568.17,682.85
17.11500,570.39,673.79
17.13453,573.66,661.43
17.15501,572.72,658.35
17.17419,575.58,660.43
17.19524,574.18,657.78
17.21381,576.33,657.35
17.23502,579.91,651.96
17.25484,582.28,651.70
17.27446,578.71,647.11
17.29508,575.10,640.84
17.31579,576.38,642.23
17.33459,573.05,637.39
17.35460,568.80,639.47
17.37443,571.04,638.69
17.39468,572.97,632.86
17.41494,572.04,629.55
17.43458,572.30,630.34
17.45507,573.22,625.83
17.47630,571.31,627.40
17.49544,570.98,626.64
17.51644,572.50,624.62
17.53648,572.33,627.49
17.55713,573.05,624.35
17.57727,574.66,623.18
17.59774,576.28,620.65
17.61822,572.25,618.32
17.63808,570.44,619.91
17.65689,568.30,617.60
17.67650,570.75,618.32
17.69723,566.78,617.55
17.71816,567.09,615.78
17.73802,570.81,616.36
17.75723,565.70,617.15
17.77806,565.90,615.76
17.79654,565.16,614.48
17.81668,565.94,611.46
17.83786,567.27,617.11
17.85753,565.60,616.44
17.87633,568.31,618.59
17.89747,567.58,617.32
17.91790,564.59,616.87
17.93721,565.28,616.21
17.95815,564.20,615.64
17.97694,564.70,613.58
17.99773,566.80,614.29
18.01783,567.05,612.21
18.03652,566.51,604.82
18.05744,562.52,582.19
18.07776,557.40,554.93
18.09676,555.32,529.71
18.11940,547.25,504.38
18.13888,545.11,486.82
18.15957,539.87,471.74
18.17852,535.51,456.05
18.20041,539.40,449.65
18.21980,540.58,441.19
18.23961,542.06,440.66
18.25907,541.13,442.98
18.27935,543.09,446.35
18.30013,547.08,454.23
18.31876,547.84,465.71
18.33970,551.96,483.13
18.35988,553.28,491.80
18.37948,551.84,508.07
18.40021,557.09,518.53
18.41960,553.25,528.73
18.43842,552.06,541.60
18.45989,556.64,550.92
18.47897,557.95,555.71
18.49992,558.46,563.95
18.51960,556.96,569.13
18.53893,555.66,574.51
18.55959,556.87,578.39
18.57955,558.91,582.14
18.59958,557.22,588.33
18.61877,559.06,592.20
18.63986,556.83,593.81
18.65940,553.58,594.13
18.67898,556.36,596.33
18.69935,554.87,594.91
18.71870,557.25,600.07
18.73880,556.41,604.06
18.75846,557.97,605.52
18.78010,555.72,604.82
18.80000,557.26,603.54
18.81890,561.96,605.05
18.83979,559.36,605.99
18.85994,560.95,606.18
18.88018,558.73,606.18
18.89932,556.35,605.09
18.92008,554.87,607.43
18.94048,557.06,607.00
18.96023,557.07,614.30
18.98065,557.63,644.81
19.00104,563.00,711.24
19.02005,569.88,786.24
19.03948,572.17,837.96
19.06071,571.56,865.89
19.08055,569.75,874.25
19.10108,567.48,861.79
19.12071,564.93,839.90
19.14081,560.53,808.98
19.16092,557.44,776.12
19.18059,555.61,746.91
19.20098,550.47,724.29
19.21963,549.04,698.14
19.23946,552.56,679.27
19.26094,548.73,664.34
19.27947,546.27,650.22
19.29983,546.60,642.17
19.32075,549.11,631.95
19.34015,551.48,626.79
19.36118,550.15,620.84
19.38057,550.38,614.29
19.40107,545.74,606.98
19.42086,545.59,600.84
19.44081,540.74,597.01
19.46130,545.82,597.78
19.48214,548.03,596.17
19.50024,544.54,592.70
19.52113,545.27,594.37
19.54181,543.71,591.72
19.56076,542.30,591.43
19.58128,542.58,593.79
19.60102,543.76,590.44
19.62085,542.91,592.19
19.64203,546.70,595.11
19.66087,548.08,597.12
19.68211,548.54,594.40
19.70109,548.71,596.71
19.72150,547.67,597.47
19.74216,545.49,596.52
19.76077,546.82,596.19
19.78200,549.49,596.78
19.80206,547.64,596.16
19.82236,548.99,599.15
19.84051,549.79,598.35
19.86148,547.62,594.86
19.88228,547.31,596.51
19.90102,548.04,597.45
19.92222,546.68,596.78
19.94167,546.70,595.01
19.96164,550.36,598.19
19.98231,550.05,595.13
20.00226,551.26,595.59
20.02024,550.75,596.21
20.04124,549.03,596.72
20.06074,550.90,593.45
20.08203,549.94,595.45
20.10041,549.64,594.21
20.12223,551.33,596.73
20.14229,549.20,594.78
20.16121,553.10,593.74
20.18090,553.96,594.66
20.20209,552.36,597.81
20.22232,555.45,593.46
20.24059,558.48,593.67
20.26032,560.16,591.15
20.28093,557.71,594.24
20.30052,556.99,592.25
20.32162,554.04,592.40
20.34223,554.98,595.14
20.36329,552.90,593.09
20.38365,553.62,591.84
20.40319,553.47,594.24
20.42389,553.19,593.13
20.44526,552.11,593.50
20.46363,555.16,595.58
20.48336,557.29,595.73
20.50440,559.88,594.44
20.52579,559.41,596.69
20.54615,560.83,598.41
20.56572,561.34,596.98
20.58783,563.42,599.25
20.60740,569.05,598.35
20.62817,567.38,600.99
20.64972,568.55,597.84
20.66892,571.62,602.97
20.68947,572.22,601.17
20.70987,570.79,600.84
20.72942,571.08,601.23
20.75086,570.64,603.87
20.77103,568.49,600.60
20.78998,568.87,601.03
20.81068,572.02,601.58
20.82955,569.84,602.93
20.85040,573.53,602.47
20.87077,572.75,600.96
20.88974,575.10,603.92
20.91016,574.80,603.73
20.92934,575.29,600.01
20.95030,576.47,600.47
20.97076,573.41,602.92
20.98945,575.42,604.87
21.01005,573.97,608.88
21.03023,572.84,603.77
21.05005,575.86,591.50
21.07024,583.25,577.33
21.09118,590.32,565.07
21.11045,593.37,545.92
21.13024,597.09,531.73
21.15000,594.92,511.31
21.17016,589.00,495.96
21.19099,582.22,483.60
21.21081,579.11,473.28
21.23122,577.44,467.03
21.25180,571.67,462.19
21.27127,566.69,460.87
21.29080,565.51,464.43
21.31180,563.64,467.69
21.33033,559.85,477.59
21.35194,559.20,487.69
21.37133,556.59,497.44
21.39138,556.63,506.15
21.41200,556.52,520.26
21.43219,559.93,528.88
21.45168,557.41,537.69
21.47274,555.39,544.62
21.49196,557.55,553.42
21.51147,555.13,561.08
21.53271,556.72,567.62
21.55322,559.04,571.90
21.57152,560.04,577.75
21.59180,559.16,580.28
21.61256,558.88,585.41
21.63146,560.24,586.88
21.65147,561.11,592.11
21.67178,558.59,592.38
21.69207,561.40,595.91
21.71172,562.28,593.90
21.73351,559.53,596.27
21.75235,560.59,599.14
21.77419,558.44,597.28
21.79339,555.11,599.25
21.81291,557.48,601.63
21.83234,555.72,601.49
21.85275,557.86,603.89
21.87379,558.95,626.23
21.89353,565.46,672.43
21.91370,577.75,762.86
21.93346,586.51,837.94
21.95298,595.15,899.89
21.97238,593.79,919.48
21.99283,591.10,916.26
22.01427,584.49,892.11
22.03523,577.24,855.27
22.05505,573.97,815.92
22.07494,568.26,775.18
22.09462,559.80,738.77
22.11497,554.79,702.70
22.13577,549.72,672.57
22.15598,549.67,649.70
22.17615,544.25,626.90
22.19677,548.11,615.69
22.21665,544.01,606.74
22.23693,547.69,595.83
22.25648,544.70,592.49
22.27804,542.54,588.36
22.29824,540.05,581.13
22.31775,542.35,574.90
22.33744,536.50,568.75
22.35750,539.15,569.23
22.37656,539.57,570.55
22.39685,538.36,567.46
22.41673,539.58,566.64
22.43821,539.59,569.34
22.45633,542.26,570.02
22.47826,542.46,572.03
22.49688,543.47,571.38
22.51722,546.68,574.76
22.53651,546.20,573.99
22.55757,549.35,577.61
22.57819,548.70,580.13
22.59725,550.14,577.51
22.61808,551.50,579.57
22.63879,550.15,580.02
22.65903,547.52,583.78
22.67800,550.70,582.83
22.69916,551.21,584.98
22.71763,550.16,584.30
22.73774,550.06,585.97
22.75776,552.96,584.94
22.77764,553.38,586.71
22.79903,553.78,585.10
22.81881,555.94,587.28
22.83742,554.18,584.58
22.85869,549.90,586.65
22.87789,550.80,586.16
22.89918,552.48,587.97
22.91843,550.33,587.13
22.93803,547.17,590.40
22.95894,546.23,591.14
22.97911,548.69,589.12
22.99829,549.64,590.68
23.01806,551.72,593.04
23.03843,548.93,592.48
23.05815,550.10,592.15
23.07883,553.76,589.72
23.09837,554.17,591.04
23.11940,553.28,590.28
23.13799,553.88,592.24
23.15749,550.53,589.65
23.17801,551.80,591.55
23.19903,551.35,591.61
23.21930,552.19,591.53
23.23883,554.25,592.34
23.25860,554.70,593.88
23.27816,552.96,595.72
23.29884,553.50,593.81
23.31753,552.47,593.31
23.33769,553.70,589.94
23.35736,550.62,591.74
23.37915,550.69,593.71
23.39779,552.68,591.41
23.41741,552.49,590.35
23.43889,553.51,590.19
23.45841,556.20,588.21
23.47828,556.05,588.79
23.49881,557.02,587.40
23.51830,555.59,588.95
23.53845,557.58,587.01
23.55926,556.45,588.17
23.57781,556.88,588.34
23.59903,554.41,590.68
23.61890,557.14,592.55
23.63811,553.09,590.66
23.65846,555.02,590.27
23.67750,553.43,593.00
23.69834,553.89,590.27
23.71828,552.22,592.87
23.73828,550.61,589.50
23.75870,552.05,591.69
23.77823,552.29,590.70
23.79906,552.04,590.74
23.81809,551.11,587.76
23.83843,551.71,586.85
23.85755,553.72,589.40
23.87774,554.94,587.07
23.89893,556.06,586.01
23.91878,553.65,586.33
23.93810,555.79,589.02
23.95784,555.20,586.47
23.97885,554.50,590.09
23.99755,555.59,590.12
24.01796,556.24,587.55
24.03826,556.71,589.71
24.05793,558.90,591.27
24.07872,553.10,588.14
24.09787,556.46,590.21
24.11762,555.47,592.09
24.13783,553.85,588.54
24.15871,554.00,592.16
24.17802,556.33,591.86
24.19824,558.20,591.69
24.21815,557.31,588.63
24.23919,554.75,578.59
24.25777,554.90,554.53
24.27861,554.32,530.11
24.29746,553.37,506.47
24.31744,554.68,488.20
24.33770,553.53,473.63
24.35892,549.84,464.69
24.37725,545.21,456.44
24.39801,542.45,451.98
24.41922,542.86,452.61
24.43809,545.22,454.04
24.45760,543.47,462.16
24.47845,548.90,470.47
24.49807,548.89,483.80
24.51871,550.58,493.67
24.53816,551.99,505.99
24.55745,551.41,517.05
24.57855,553.53,524.13
24.59842,556.69,531.21
24.61859,553.84,538.85
24.63784,554.95,545.20
24.65784,553.03,551.95
24.67905,555.86,555.78
24.69786,559.75,563.08
24.71914,561.93,565.60
24.73761,560.79,568.35
24.75895,562.69,574.18
24.77710,562.24,575.35
24.79786,559.36,576.71
24.81842,559.04,578.90
24.83770,558.16,582.86
24.85846,558.51,584.39
24.87730,557.36,583.36
24.89734,557.10,586.29
24.91903,562.41,585.55
24.93872,559.74,589.03
24.95834,559.15,588.02
24.97758,560.73,588.11
24.99800,560.64,589.59
25.01848,560.67,589.42
25.03747,561.97,589.88
25.05816,561.39,587.47
25.07902,562.51,590.01
25.09785,560.79,590.55
25.11814,563.55,589.56
25.13769,564.40,592.11
25.15754,559.09,589.72
25.17808,560.43,590.51
25.19760,558.73,592.01
25.21794,559.98,588.88
25.23770,559.68,590.92
25.25864,559.74,589.50
25.27737,562.46,600.78
25.29763,567.71,626.28
25.31807,567.31,667.95
25.33903,567.12,703.07
25.35791,569.28,737.65
25.37842,572.14,761.53
25.39917,577.04,774.94
25.41823,580.42,780.36
25.43792,581.97,770.34
25.45916,580.87,756.70
25.47805,578.89,734.41
25.49920,576.37,717.28
25.51811,573.13,698.20
25.53871,573.93,682.36
25.55969,574.39,670.33
25.57994,573.63,657.23
25.59822,575.11,643.37
25.61887,572.36,637.53
25.63906,571.12,629.10
25.65938,569.20,624.82
25.67887,568.83,619.56
25.69892,569.18,614.28
25.71975,573.56,610.83
25.73913,574.00,607.48
25.75947,573.63,605.26
25.77875,575.09,602.34
25.79951,572.68,600.14
25.81929,570.25,598.02
25.83998,569.91,595.36
25.85897,573.24,595.41
25.87908,569.07,593.49
25.89922,570.87,589.74
25.91974,571.68,591.19
25.93900,570.49,588.73
25.96028,573.29,586.62
25.97915,571.07,589.19
25.99832,574.63,587.92
26.01961,572.20,589.85
26.03855,570.60,588.21
26.05922,572.97,588.17
26.07860,571.60,587.44
26.09900,570.44,590.35
26.11969,571.15,588.46
26.13851,569.93,591.24
26.15856,571.24,591.68
26.17916,571.73,591.91
26.19932,571.52,594.69
26.21840,570.55,593.98
26.23848,573.67,592.56
26.25926,571.06,594.03
26.27979,573.76,593.34
26.29853,572.52,593.16
26.31992,575.58,592.46
26.34002,573.55,592.32
26.35822,570.47,591.72
26.37902,571.05,592.17
26.40032,569.86,592.56
26.41982,568.32,592.60
26.44054,570.61,592.83
26.46071,569.49,595.55
26.48069,570.20,592.39
26.50084,570.11,592.76
26.51950,567.77,596.19
26.54120,568.09,598.18
26.56125,570.89,596.57
26.57987,570.52,596.74
26.59979,570.02,595.32
26.61978,572.27,597.85
26.64046,571.17,594.37
26.66084,569.62,595.72
26.68101,573.22,596.56
26.70177,574.48,596.76
26.72130,572.79,598.17
26.74051,574.97,595.92
26.76068,572.25,598.39
26.78193,573.59,598.71
26.80178,574.86,595.46
26.82120,572.92,598.29
26.84109,571.59,598.30
26.86219,569.31,599.32
26.88108,567.90,597.46
26.90189,569.92,597.31
26.92201,567.07,597.97
26.94174,566.86,596.13
26.96097,567.19,594.55
26.98157,568.14,594.26
27.00156,568.25,595.08
27.02214,565.08,594.08
27.04297,566.46,594.25
27.06170,566.79,594.63
27.08274,566.65,594.69
27.10306,568.25,596.14
27.12284,568.41,593.20
27.14228,572.57,594.99
27.16268,569.00,592.84
27.18290,568.69,594.76
27.20263,568.91,594.59
27.22270,567.90,593.42
27.24238,567.50,593.16
27.26204,566.72,592.70
27.28296,568.09,591.03
27.30277,568.02,592.49
27.32289,565.64,594.23
27.34250,564.66,591.78
27.36336,562.86,592.99
27.38383,560.30,592.09
27.40330,562.20,594.79
27.42269,561.78,592.27
27.44389,563.43,592.06
27.46316,563.08,591.56
27.48278,562.83,590.84
27.50265,562.35,592.59
27.52265,559.03,592.74
27.54290,559.37,594.10
27.56409,559.78,591.82
27.58225,558.41,593.31
27.60425,557.93,594.02
27.62353,555.98,593.63
27.64321,560.85,593.61
27.66398,559.43,594.06
27.68357,561.84,596.15
27.70282,561.54,594.20
27.72316,560.84,597.00
27.74407,559.88,595.61
27.76234,558.93,593.21
27.78396,558.75,591.15
27.80347,560.47,590.87
27.82314,560.46,592.61
27.84262,560.19,592.71
27.86383,559.36,589.52
27.88364,558.42,589.23
27.90341,559.58,588.84
27.92304,559.57,587.89
27.94289,558.13,586.89
27.96344,561.32,588.79
27.98333,559.02,589.89
28.00242,556.95,591.67
28.02381,557.47,592.58
28.04328,554.59,595.09
28.06238,555.09,593.01
28.08410,551.08,584.04
28.10328,545.29,575.72
28.12331,538.82,563.94
28.14310,530.32,542.35
28.16234,520.61,518.86
28.18276,519.30,494.79
28.20337,518.73,473.70
28.22225,519.12,454.60
28.24280,522.18,442.23
28.26415,527.02,434.51
28.28414,528.79,432.51
28.30375,534.18,430.15
28.32371,536.88,438.96
28.34367,542.37,442.88
28.36278,545.83,452.79
28.38286,548.73,465.22
28.40287,552.89,479.35
28.42394,552.46,491.56
28.44275,552.24,502.41
28.46382,555.50,511.82
28.48286,557.15,522.61
28.50212,555.11,535.03
28.52263,555.29,543.28
28.54299,555.65,551.69
28.56403,557.45,557.31
28.58246,556.75,564.80
28.60293,556.80,569.29
28.62218,555.33,572.15
28.64255,551.77,574.74
28.66307,553.41,576.24
28.68393,554.05,578.71
28.70311,555.59,578.65
28.72231,555.30,580.88
28.74233,557.58,582.01
28.76214,554.55,584.10
28.78403,555.54,583.71
28.80279,554.19,582.20
28.82286,551.79,583.35
28.84359,554.47,582.61
28.86289,551.77,582.35
28.88236,551.01,586.01
28.90260,552.69,587.79
28.92325,549.88,586.58
28.94321,551.85,586.62
28.96364,552.32,589.64
28.98381,551.83,589.74
29.00394,554.70,588.76
29.02356,554.24,587.59
29.04305,553.87,586.89
29.06298,554.59,600.18
29.08267,553.32,622.77
29.10330,550.13,658.69
29.12265,551.34,701.41
29.14364,552.08,742.96
29.16255,555.10,775.48
29.18312,560.53,795.83
29.20401,565.87,799.96
29.22221,567.05,793.41
29.24241,567.98,771.62
29.26362,567.90,753.29
29.28314,565.71,729.54
29.30219,565.15,711.19
29.32350,562.11,691.71
29.34362,561.85,676.37
29.36279,560.82,665.45
29.38301,560.81,654.00
29.40374,556.59,640.67
29.42385,555.38,630.78
29.44272,558.56,623.66
29.46281,561.24,616.93
29.48357,556.98,611.08
29.50397,555.72,608.24
29.52348,555.29,604.80
29.54343,554.89,602.71
29.56270,554.96,599.14
29.58355,553.25,598.60
29.60273,552.66,595.70
29.62396,551.47,591.75
29.64253,551.51,591.90
29.66360,548.26,590.90
29.68268,549.44,588.08
29.70291,549.66,588.11
29.72296,547.84,587.75
29.74396,546.77,586.84
29.76222,548.55,587.20
29.78357,548.66,588.43
29.80343,549.70,589.30
29.82365,551.22,588.98
29.84226,550.48,586.23
29.86250,548.70,587.15
29.88213,551.88,588.18
29.90382,550.86,586.77
29.92237,549.29,584.43
29.94297,549.46,583.91
29.96342,547.21,583.79
29.98229,548.18,586.51
30.00310,551.70,586.55
30.02349,550.14,585.45
30.04353,546.69,588.56
30.06372,547.33,587.15
30.08310,549.06,586.65
30.10233,547.26,586.62
30.12397,548.20,587.56
30.14222,548.09,587.68
30.16339,544.77,588.29
30.18299,548.61,587.24
30.20286,545.66,587.34
30.22297,548.13,586.42
30.24262,548.54,584.86
30.26312,546.21,586.28
30.28262,545.62,583.18
30.30374,547.49,584.31
30.32386,546.30,582.80
30.34389,547.09,580.67
30.36256,546.95,582.68
30.38238,548.69,583.13
30.40363,547.52,582.25
30.42381,546.60,583.49
30.44305,546.02,580.57
30.46297,547.02,580.73
30.48372,545.72,581.96
30.50350,545.33,582.97
30.52223,544.53,581.08
30.54258,547.72,580.20
30.56314,546.84,581.30
30.58355,548.95,580.95
30.60338,547.10,579.89
30.62238,547.67,582.23
30.64214,549.24,584.29
30.66312,546.87,582.88
30.68410,546.93,580.90
30.70400,549.61,583.11
30.72298,546.46,580.32
30.74288,549.19,581.07
30.76376,548.88,579.97
30.78381,547.86,582.68
30.80309,549.25,581.45
30.82346,548.81,582.95
30.84212,551.08,582.55
30.86325,547.79,579.92
30.88353,547.32,582.84
30.90304,548.18,582.48
30.92247,547.99,584.05
30.94193,550.33,581.52
30.96304,550.74,579.09
30.98253,547.65,583.41
31.00277,548.72,582.63
31.02384,551.89,579.51
31.04398,547.76,580.00
31.06340,549.29,581.22
31.08317,545.99,579.82
31.10356,548.81,581.33
31.12371,549.74,580.41
31.14382,549.25,581.78
31.16363,549.37,580.64
31.18262,549.04,580.01
31.20362,550.49,583.90
31.22226,550.64,580.87
31.24288,545.36,579.54
31.26215,547.18,581.68
31.28398,547.26,584.82
31.30191,545.49,581.31
31.32203,543.07,582.58
31.34370,545.18,583.25
31.36192,542.79,581.49
31.38238,545.54,584.73
31.40241,544.49,582.31
31.42326,546.78,583.23
31.44377,548.34,585.03
31.46314,546.19,582.98
31.48278,543.88,583.11
31.50327,546.86,581.04
31.52338,543.59,583.25
31.54323,544.44,581.59
31.56316,544.07,580.23
31.58282,545.16,579.93
31.60295,546.76,584.54
31.62392,546.08,581.96
31.64257,548.33,583.38
31.66253,547.22,585.74
31.68210,551.34,584.87
31.70248,550.45,586.78
31.72337,550.03,590.78
31.74252,553.40,587.02
31.76384,551.92,582.20
31.78241,553.06,565.03
31.80367,552.30,544.78
31.82269,551.90,520.53
31.84250,550.62,496.77
31.86283,551.87,480.24
31.88327,548.11,467.95
31.90392,546.92,454.78
31.92374,548.15,448.50
31.94217,544.99,446.25
31.96353,544.68,445.47
31.98330,541.73,448.86
32.00359,540.13,453.07
32.02194,539.73,459.00
32.04246,541.00,467.19
32.06403,540.43,476.27
32.08273,538.98,485.76
32.10379,538.86,494.47
32.12227,541.50,508.34
32.14223,543.49,515.45
32.16373,540.11,524.95
32.18351,540.97,532.08
32.20365,541.22,541.82
32.22229,540.54,546.30
32.24285,543.89,554.13
32.26226,543.51,558.70
32.28283,546.10,560.13
32.30335,545.99,564.14
32.32390,545.45,566.22
32.34247,544.72,571.01
32.36259,547.47,570.24
32.38362,549.18,572.42
32.40297,549.79,575.27
32.42382,549.90,574.20
32.44339,548.58,576.08
32.46351,549.11,583.63
32.48236,547.86,584.03
32.50232,547.61,589.80
32.52324,549.78,593.22
32.54253,551.97,593.56
32.56330,550.53,595.30
32.58352,548.10,594.21
32.60239,549.83,590.82
32.62274,548.43,589.49
32.64287,549.65,589.05
32.66203,551.80,590.47
32.68354,549.79,597.82
32.70340,551.73,618.00
32.72352,552.77,647.08
32.74229,554.50,682.99
32.76200,554.87,702.88
32.78348,555.41,718.14
32.80320,559.31,724.08
32.82367,559.24,722.32
32.84374,559.78,712.64
32.86252,556.90,702.04
32.88337,559.04,688.15
32.90375,556.24,676.00
32.92387,556.20,660.15
32.94371,552.99,650.48
32.96321,552.09,640.83
32.98289,554.12,637.10
33.00360,552.54,645.63
33.02266,558.74,648.44
33.04364,556.35,649.31
33.06308,557.01,644.47
33.08229,554.47,641.52
33.10327,555.50,634.01
33.12286,554.88,629.03
33.14286,555.33,625.86
33.16380,553.44,618.22
33.18202,553.17,616.03
33.20259,554.32,609.82
33.22303,556.05,603.55
33.24387,556.38,603.65
33.26346,555.71,598.56
33.28332,555.07,597.86
33.30321,557.66,592.89
33.32289,557.68,589.93
33.34391,554.96,589.72
33.36218,557.46,589.11
33.38308,558.25,589.35
33.40297,560.12,587.03
33.42330,558.78,586.84
33.44388,560.06,587.09
33.46278,557.27,588.55
33.48376,560.47,588.64
33.50258,560.54,587.99
33.52334,561.98,588.43
33.54344,560.93,587.24
33.56390,557.19,589.05
33.58300,559.94,590.35
33.60230,558.55,588.41
33.62361,558.65,587.67
33.64372,557.21,588.83
33.66489,556.46,587.46
33.68458,556.62,590.92
33.70450,560.99,589.95
33.72392,561.84,591.05
33.74311,564.20,589.88
33.76419,564.25,591.46
33.78479,562.84,590.23
33.80388,562.35,592.79
33.82320,561.87,591.67
33.84504,559.51,590.00
33.86363,561.54,592.54
33.88384,562.23,590.89
33.90437,562.18,591.63
33.92402,563.58,595.44
33.94395,559.97,594.78
33.96351,561.09,594.47
33.98360,561.21,593.24
34.00496,562.70,591.25
34.02395,563.28,592.88
34.04456,560.41,591.12
34.06488,563.71,595.67
34.08499,562.27,592.81
34.10414,562.50,593.22
34.12370,562.79,590.97
34.14387,562.42,593.76
34.16360,563.02,594.60
34.18424,563.17,594.20
34.20433,562.08,593.71
34.22498,565.55,591.15
34.24457,561.34,592.58
34.26333,565.68,590.36
34.28328,563.37,591.98
34.30435,566.25,590.76
34.32310,567.84,592.49
34.34367,566.02,590.47
34.36441,568.48,590.04
34.38434,566.08,590.59
34.40402,568.96,590.88
34.42434,567.58,590.19
34.44423,568.79,590.80
34.46326,569.50,590.37
34.48434,568.26,591.29
34.50441,567.78,589.93
34.52488,567.14,591.69
34.54318,566.02,592.16
34.56401,569.10,593.93
34.58385,566.93,591.12
34.60469,568.20,595.13
34.62352,568.94,594.61
34.64389,567.97,592.15
34.66484,569.33,593.98
34.68405,570.30,593.64
34.70484,569.48,596.06
34.72430,570.32,591.55
34.74588,570.16,593.99
34.76448,572.46,594.63
34.78549,569.94,594.80
34.80569,572.43,592.94
34.82994,572.21,595.07
34.84464,574.34,591.88
34.86564,570.90,595.71
34.88482,571.66,591.55
34.90447,569.63,591.12
34.92454,570.76,593.55
34.94506,571.59,593.58
34.96484,573.32,594.01
34.98532,571.64,594.99
35.00598,575.50,593.05
35.02576,572.53,593.73
35.04472,575.04,592.28
35.06440,575.10,594.09
35.08507,576.49,596.08
35.10586,577.43,596.06
35.12407,576.28,596.26
35.14503,574.74,598.25
35.16607,574.01,599.57
35.18556,576.25,597.25
35.20545,576.24,597.99
35.22512,574.98,597.26
35.24434,573.79,596.54
35.26438,572.03,595.91
35.28589,572.32,597.48
35.30547,571.15,583.84
35.32458,570.25,555.88
35.34495,564.74,531.20
35.36418,562.67,511.44
35.38517,562.82,493.07
35.40549,560.36,484.39
35.42532,560.80,482.06
35.44410,560.66,485.03
35.46439,559.62,490.10
35.48482,561.63,497.52
35.50541,561.97,503.78
35.52560,563.31,503.76
35.54565,560.85,506.70
35.56537,563.75,506.93
35.58511,562.42,505.10
35.60443,562.63,504.06
35.62432,564.36,505.13
35.64413,566.05,509.28
35.66536,565.22,513.09
35.68558,568.13,519.16
35.70460,568.12,522.14
35.72585,566.79,528.06
35.74398,569.63,533.01
35.76493,570.08,538.38
35.78501,570.20,544.97
35.80543,572.66,549.26
35.82399,571.36,555.54
35.84418,570.08,558.92
35.86488,569.99,565.46
35.88554,570.36,569.27
35.90541,569.98,570.10
35.92432,572.34,574.11
35.94588,572.92,577.25
35.96441,572.25,580.83
35.98504,574.61,583.22
36.00407,573.14,582.50
36.02443,569.92,586.00
36.04553,569.93,586.45
36.06565,570.96,588.73
36.08460,571.41,589.04
36.10564,570.19,593.01
36.12595,571.79,593.03
36.14560,571.37,594.52
36.16446,573.32,593.39
36.18477,570.81,594.55
36.20434,572.91,594.16
36.22442,572.55,602.27
36.24443,575.68,621.74
36.26410,577.62,655.14
36.28476,574.46,692.49
36.30392,577.42,733.75
36.32520,580.47,766.56
36.34476,582.71,786.74
36.36491,586.48,803.12
36.38552,590.12,810.28
36.40585,593.08,805.08
36.42501,589.50,791.31
36.44438,591.21,771.37
36.46414,587.27,747.74
36.48560,586.08,726.91
36.50428,586.23,707.64
36.52495,583.64,689.94
36.54562,583.13,673.97
36.56561,581.34,661.37
36.58475,579.20,648.88
36.60375,578.23,639.08
36.62523,578.69,628.32
36.64480,575.92,621.98
36.66594,578.52,615.09
36.68516,578.10,611.76
36.70477,578.09,604.95
36.72593,576.14,605.33
36.74464,576.29,598.46
36.76641,574.42,596.55
36.78539,576.20,593.53
36.80674,572.20,593.17
36.82602,571.03,591.50
36.84664,572.56,591.81
36.86635,573.10,591.20
36.88504,571.01,592.60
36.90688,572.86,589.97
36.92699,571.83,594.04
36.94655,572.28,590.63
36.96629,572.06,594.69
36.98554,572.17,594.68
37.00603,569.78,595.33
37.02539,571.75,593.18
37.04699,571.11,592.60
37.06505,572.20,591.45
37.08581,569.27,592.28
37.10552,570.35,591.45
37.12494,571.69,588.90
37.14518,571.76,592.10
37.16535,572.14,592.31
37.18551,573.19,592.69
37.20551,570.34,593.43
37.22538,570.30,593.20
37.24579,572.76,592.44
37.26588,572.50,593.02
37.28664,569.78,592.59
37.30634,568.11,590.42
37.32632,570.66,591.68
37.34524,569.26,590.49
37.36652,568.08,589.65
37.38577,568.84,589.10
37.40657,567.19,590.09
37.42547,566.89,589.98
37.44534,566.73,589.40
37.46575,568.88,589.62
37.48671,568.57,592.29
37.50592,570.37,590.95
37.52533,567.89,590.77
37.54646,570.45,591.36
37.56608,567.83,592.31
37.58620,569.95,589.30
37.60683,567.47,591.56
37.62504,568.50,590.79
37.64637,568.51,591.40
37.66576,566.17,589.42
37.68521,566.24,589.72
37.70568,563.73,590.56
37.72642,566.34,593.24
37.74544,564.11,591.60
37.76596,563.72,593.36
37.78684,565.09,591.94
37.80591,563.44,592.53
37.82735,563.75,591.79
37.84685,565.91,591.13
37.86586,564.38,593.02
37.88658,563.12,591.35
37.90774,563.31,592.96
37.92694,562.19,591.38
37.94833,561.18,592.98
37.96824,559.38,592.86
37.98705,560.14,590.84
38.00848,560.36,590.32
38.02825,559.03,590.84
38.04818,559.27,593.71
38.06779,558.11,593.58
38.08851,559.08,593.21
38.10849,555.98,590.14
38.12700,559.52,591.81
38.14780,557.49,588.25
38.16802,555.43,587.49
38.18792,555.27,589.71
38.20692,558.70,590.58
38.22709,556.72,588.60
38.24724,556.56,590.88
38.26695,556.10,589.19
38.28770,556.93,590.37
38.30804,555.90,590.45
38.32768,555.92,591.74
38.34909,553.76,588.70
38.36780,553.75,592.90
38.38914,551.99,590.76
38.40935,552.59,590.82
38.42947,553.17,590.11
38.44785,550.01,588.83
38.46880,551.45,587.10
38.48926,548.68,587.52
38.50808,548.67,589.18
38.52981,549.36,588.95
38.54955,552.50,588.64
38.56954,549.08,588.29
38.58980,548.96,590.52
38.60927,549.45,589.75
38.62960,553.24,593.00
38.64967,552.56,591.43
38.66947,552.70,591.66
38.68830,551.52,589.64
38.70859,553.44,590.64
38.72972,554.48,592.90
38.74958,554.88,594.01
38.76990,553.00,596.77
38.78878,552.01,590.09
38.80940,551.68,578.16
38.82873,549.75,562.12
38.84908,544.44,545.60
38.86967,535.67,528.77
38.88822,531.99,514.77
38.90941,526.64,502.17
38.92889,524.25,490.49
38.94855,520.44,484.71
38.96844,520.82,479.74
38.98871,521.62,476.37
39.00988,520.27,474.19
39.02873,523.24,477.60
39.04852,524.23,475.94
39.06883,528.19,476.60
39.08873,529.39,480.65
39.10830,530.11,483.68
39.12964,533.37,486.56
39.14891,535.83,488.73
39.16929,540.92,496.12
39.18821,540.78,502.15
39.20926,542.69,506.29
39.22891,545.02,513.52
39.24831,543.86,522.56
39.26879,544.33,526.27
39.28890,547.07,535.05
39.30938,548.16,542.29
39.32860,546.03,548.32
39.34851,547.84,552.64
39.36929,547.25,555.97
39.38922,550.12,562.75
39.40966,548.66,567.16
39.42809,548.07,570.05
39.44885,545.44,571.96
39.46867,545.66,571.28
39.48897,548.11,572.54
39.50947,546.37,575.32
39.52887,547.01,577.66
39.54793,548.02,581.07
39.56989,549.04,579.74
39.58857,548.80,582.88
39.60906,548.63,581.60
39.62830,548.72,585.57
39.64782,545.22,584.61
39.66960,545.87,585.04
39.68947,547.51,586.18
39.70815,548.19,586.81
39.72827,549.44,587.91
39.74912,548.65,587.51
39.76865,545.55,583.13
39.78889,542.92,583.66
39.80963,546.05,587.39
39.82887,546.00,597.06
39.84985,548.67,616.21
39.86879,547.69,641.76
39.88906,553.23,674.70
39.90892,552.08,706.47
39.92917,558.30,739.08
39.94797,560.25,762.47
39.96931,567.93,775.13
39.98830,568.22,781.08
40.00858,571.70,780.68
40.02917,573.03,768.50
40.04853,571.50,753.35
40.06894,569.77,732.84
40.08819,569.68,711.46
40.10809,565.41,693.24
40.12860,564.62,679.24
40.14945,564.22,662.63
40.16829,558.98,648.34
40.18955,560.39,639.77
40.20788,556.67,629.99
40.22833,556.14,620.66
40.24875,556.09,612.89
40.26952,556.01,607.61
40.28848,552.26,597.57
40.30929,557.09,593.42
40.32862,554.60,586.93
40.34809,555.18,584.41
40.36920,555.68,582.04
40.38883,552.90,579.14
40.40890,551.45,580.35
40.42830,553.90,580.10
40.44987,551.29,580.27
40.46912,553.56,580.20
40.48862,551.99,580.54
40.50899,551.28,582.74
40.52935,551.28,579.21
40.54976,551.84,579.71
40.56859,549.25,580.51
40.58800,551.30,583.14
40.60818,549.17,584.09
40.62835,549.09,584.71
40.64826,550.09,583.45
40.67000,550.27,582.31
40.68834,550.35,583.52
40.70879,550.83,583.91
40.72895,550.11,582.34
40.74969,551.35,583.43
40.76895,549.05,583.13
40.78907,548.60,584.52
40.80800,548.17,583.41
40.82849,548.23,582.13
40.84810,548.20,584.63
40.86923,550.08,585.04
40.88955,550.58,581.50
40.90928,548.12,585.41
40.92899,550.87,581.44
40.94922,550.04,583.52
40.96924,549.81,585.02
40.98853,551.71,585.30
41.00949,550.87,585.71
41.02838,550.99,587.99
41.04795,552.32,588.86
41.06947,550.46,588.21
41.08898,548.83,588.42
41.10904,550.90,586.43
41.12978,551.51,587.03
41.14922,549.36,588.58
41.16891,551.67,588.86
41.18905,553.48,589.33
41.20851,553.51,587.34
41.22835,552.74,586.92
41.24817,552.59,587.95
41.26953,553.69,587.56
41.28920,550.53,586.15
41.30983,553.50,589.95
41.32773,551.00,589.20
41.34953,551.39,589.48
41.36955,549.18,588.38
41.38939,550.12,588.55
41.40918,552.63,590.34
41.42854,552.62,589.83
41.44923,551.57,592.14
41.46817,554.64,591.81
41.48846,554.97,588.60
41.50827,556.54,591.11
41.52826,554.49,590.54
41.54933,553.21,586.46
41.56879,553.32,589.24
41.58881,554.69,586.54
41.60886,555.76,589.18
41.62848,554.27,586.43
41.64905,552.16,584.90
41.66802,551.78,586.53
41.68832,555.30,586.52
41.70858,553.55,585.78
41.72969,553.65,585.23
41.74872,554.83,582.20
41.76865,552.04,585.09
41.78919,551.86,583.60
41.80793,551.92,583.75
41.82887,552.27,581.49
41.84846,553.17,582.25
41.86919,550.44,582.06
41.88923,552.24,584.76
41.90944,554.47,584.84
41.92889,554.46,582.07
41.94960,554.43,581.34
41.96776,554.99,584.24
41.98924,555.71,584.38
42.00920,556.16,587.24
42.02999,553.88,584.69
42.04906,556.57,585.91
42.06900,554.51,588.17
42.08881,551.52,586.96
42.10898,554.26,587.06
42.12922,556.49,590.69
42.14902,555.62,590.30
42.16864,555.27,588.82
42.18931,556.34,589.96
42.20940,556.95,588.94
42.22803,558.56,587.25
42.24801,558.05,588.81
42.26851,557.11,584.65
42.28958,559.06,585.00
42.30833,557.53,586.83
42.32775,558.40,586.21
42.34948,557.37,589.27
42.36800,556.96,587.37
42.38797,554.44,590.08
42.40958,554.96,590.33
42.42959,557.18,588.23
42.44934,556.47,589.48
42.46997,558.49,589.30
42.48900,561.81,589.44
42.50898,562.79,589.40
42.52972,560.78,589.45
42.54959,561.81,589.25
42.56926,560.82,588.16
42.58882,560.37,590.45
42.60978,558.82,588.86
42.63007,559.41,587.50
42.65033,557.56,589.85
42.66995,559.33,588.72
42.68951,558.08,578.81
42.70996,552.39,563.72
42.72959,550.88,541.73
42.74930,544.65,519.28
42.76916,540.81,496.05
42.79032,539.63,475.20
42.80950,538.43,463.33
42.82936,535.80,450.24
42.85036,539.54,449.03
42.86959,539.81,444.89
42.88929,539.82,450.20
42.90980,541.31,455.68
42.93002,547.37,461.15
42.95061,552.03,468.11
42.97054,553.31,479.59
42.98940,557.10,489.56
43.01055,557.82,500.48
43.03040,557.36,508.95
43.04928,557.91,519.38
43.06884,562.49,527.21
43.08910,558.89,533.44
43.11069,559.47,538.52
43.13013,559.25,546.54
43.14923,558.75,551.37
43.16899,557.63,556.87
43.19006,558.32,561.68
43.21074,559.65,562.63
43.22957,559.50,569.21
43.24994,562.99,570.64
43.27160,560.86,575.12
43.29012,564.83,575.96
43.31155,564.15,578.87
43.33024,565.35,583.96
43.35116,566.07,588.60
43.37109,567.74,591.00
43.38999,566.48,592.28
43.40986,563.66,592.71
43.43119,565.93,595.25
43.45112,568.45,612.34
43.46984,570.40,645.26
43.49058,572.60,683.50
43.50973,578.22,719.92
43.53020,578.99,747.43
43.55085,584.30,774.64
43.57188,591.27,783.96
43.59094,593.83,782.92
43.60977,595.34,776.49
43.63134,597.29,756.34
43.65051,593.04,737.52
43.67035,593.81,716.42
43.68991,592.39,700.73
43.71058,590.34,683.81
43.73042,585.65,668.23
43.75073,585.63,654.67
43.77133,585.48,645.11
43.79102,581.11,635.11
43.81059,581.96,626.84
43.83166,579.20,618.00
43.85040,580.85,615.62
43.87083,577.21,608.19
43.89163,576.68,606.86
43.91019,579.66,602.92
43.93177,578.14,600.83
43.95011,577.80,598.57
43.97086,578.84,597.31
43.99114,579.13,595.63
44.01053,576.52,596.60
44.03134,575.67,597.72
44.04995,574.87,595.29
44.07064,574.08,595.04
44.08986,572.51,592.99
44.11055,573.37,594.05
44.13173,573.61,596.10
44.15116,573.06,597.24
44.17171,573.81,594.36
44.19120,571.61,597.60
44.21019,572.55,596.26
44.23013,575.75,595.86
44.25111,575.85,596.37
44.26979,574.79,595.64
44.29169,575.67,596.38
44.31151,575.38,597.40
44.33083,571.09,593.35
44.35023,570.11,597.12
44.37017,572.65,593.19
44.39063,574.53,594.98
44.41028,574.29,596.71
44.43068,572.49,597.14
44.44990,573.68,593.82
44.47122,573.47,596.95
44.49009,574.07,595.37
44.51028,572.97,597.49
44.53000,572.07,598.47
44.55109,575.04,597.09
44.57050,572.68,595.68
44.59180,574.63,594.48
44.61034,572.93,594.72
44.63050,574.66,594.96
44.65091,572.94,595.76
44.67055,575.32,595.13
44.69229,574.09,597.40
44.71167,573.50,594.80
44.73238,574.96,596.00
44.75145,574.83,595.89
44.77112,575.37,595.09
44.79112,575.19,595.52
44.81122,572.35,592.91
44.83137,572.56,593.75
44.85129,572.67,595.51
44.87103,575.09,595.49
44.89177,573.92,595.57
44.91094,574.80,597.68
44.93238,572.73,596.81
44.95100,571.16,596.07
44.97116,573.63,595.89
44.99271,571.63,595.21
45.01220,572.57,596.63
45.03153,571.69,595.06
45.05301,573.14,594.56
45.07217,569.74,594.77
45.09200,572.95,596.54
45.11286,571.82,597.71
45.13239,569.96,596.50
45.15249,570.26,595.56
45.17274,570.14,598.39
45.19271,568.08,595.90
45.21343,569.22,595.62
45.23176,569.77,598.94
45.25220,568.05,599.30
45.27273,570.97,595.81
45.29312,571.98,598.26
45.31329,568.95,596.14
45.33255,572.19,596.56
45.35355,568.22,598.62
45.37329,568.14,597.20
45.39357,571.08,596.00
45.41174,569.62,595.63
45.43247,570.96,594.63
45.45335,570.94,595.50
45.47194,571.83,598.68
45.49254,573.26,598.36
45.51373,573.33,598.43
45.53320,568.80,596.95
45.55193,569.33,596.75
45.57299,569.54,594.90
45.59167,568.29,597.70
45.61235,569.05,595.07
45.63325,566.65,597.45
45.65360,570.34,594.13
45.67222,571.07,594.95
45.69261,569.59,593.20
45.71241,567.07,592.10
45.73246,570.43,593.25
45.75339,567.62,593.73
45.77189,570.77,593.32
45.79315,568.61,594.29
45.81292,569.53,593.27
45.83213,567.60,592.36
45.85186,566.87,594.93
45.87298,566.17,594.73
45.89313,566.34,594.42
45.91255,566.92,593.33
45.93226,569.89,592.20
45.95360,569.68,592.52
45.97197,569.70,593.42
45.99323,570.25,594.44
46.01253,570.11,593.65
46.03357,565.88,595.12
46.05337,567.05,598.05
46.07277,568.56,597.70
46.09203,566.84,597.75
46.11258,570.58,594.35
46.13357,568.16,597.18
46.15235,569.12,593.87
46.17198,569.00,592.82
46.19321,569.89,592.07
46.21298,568.72,591.37
46.23299,568.98,592.53
46.25321,570.51,594.00
46.27272,570.35,592.71
46.29341,570.69,589.37
46.31266,568.33,593.55
46.33308,568.25,594.41
46.35296,570.24,591.94
46.37230,570.32,594.45
46.39313,568.13,595.39
46.41331,569.80,596.22
46.43229,568.99,593.47
46.45264,568.58,597.13
46.47229,566.00,596.37
46.49292,564.32,593.48
46.51267,561.75,594.14
46.53325,561.14,597.07
46.55362,563.80,596.54
46.57357,563.02,595.69
46.59244,563.91,594.34
46.61359,566.07,592.17
46.63313,564.97,592.14
46.65243,566.59,591.34
46.67369,566.12,590.42
46.69264,566.67,593.90
46.71227,564.95,591.63
46.73316,568.72,592.40
46.75224,567.76,591.72
46.77324,568.88,593.34
46.79201,566.83,594.37
46.81207,564.45,588.45
46.83306,562.82,580.58
46.85236,561.95,565.11
46.87174,561.19,552.02
46.89231,555.10,532.74
46.91183,554.90,516.94
46.93201,552.93,506.45
46.95310,550.82,492.52
46.97210,550.49,485.52
46.99259,546.92,476.17
47.01315,546.95,472.35
47.03245,545.03,470.72
47.05338,547.10,467.72
47.07221,545.56,471.64
47.09442,549.03,476.05
47.11474,546.82,478.07
47.13561,547.70,485.59
47.15519,549.15,492.35
47.17466,548.87,499.36
47.19531,547.10,508.60
47.21541,549.98,515.99
47.23442,551.52,522.40
47.25389,548.88,533.18
47.27519,550.71,537.45
47.29513,547.64,545.84
47.31514,547.09,551.70
47.33573,548.12,555.97
47.35611,548.18,558.05
47.37559,547.84,564.37
47.39616,549.15,566.31
47.41676,552.69,569.13
47.43586,552.34,570.86
47.45663,550.05,573.03
47.47549,548.73,581.07
47.49625,552.17,595.57
47.51658,553.51,622.73
47.53661,557.22,662.92
47.55502,564.15,703.50
47.57573,565.09,744.92
47.59556,569.46,775.31
47.61621,569.79,791.46
47.63492,570.83,794.66
47.65569,569.68,792.70
47.67598,568.31,782.07
47.69527,569.13,765.88
47.71582,567.50,743.00
47.73598,562.19,717.21
47.75577,563.06,695.63
47.77489,560.93,673.56
47.79578,555.87,656.99
47.81597,554.02,640.30
47.83725,554.17,629.90
47.85620,553.93,618.57
47.87740,553.30,611.26
47.89665,548.25,603.31
47.91616,548.56,597.35
47.93559,551.13,594.36
47.95571,552.66,589.40
47.97719,548.05,584.58
47.99739,551.48,585.95
48.01704,551.43,582.21
48.03561,553.02,583.67
48.05669,552.32,583.14
48.07693,553.92,581.23
48.09710,550.39,583.59
48.11860,552.73,582.83
48.13791,550.64,584.55
48.15742,550.56,583.52
48.17700,552.85,582.48
48.19761,553.49,583.63
48.21704,550.32,582.18
48.23707,551.85,580.79
48.25757,552.41,581.59
48.27689,551.08,584.77
48.29843,551.78,581.74
48.31679,551.50,582.48
48.33809,554.79,583.56
48.35720,553.14,583.87
48.37861,552.62,585.17
48.39673,553.70,585.03
48.41708,551.91,584.96
48.43753,550.43,584.83
48.45790,551.04,585.25
48.47743,553.63,587.54
48.49772,554.78,586.99
48.51741,556.10,589.27
48.53715,555.71,589.30
48.55746,555.43,587.80
48.57698,553.63,587.12
48.59858,553.77,586.12
48.61853,552.38,583.85
48.63694,553.56,584.74
48.65812,550.26,585.23
48.67761,553.93,583.92
48.69712,554.00,586.45
48.71805,551.73,587.45
48.73812,551.05,586.70
48.75711,551.58,589.41
48.77772,549.25,590.69
48.79698,551.91,589.21
48.81833,550.24,588.01
48.83703,551.81,590.81
48.85851,553.67,587.02
48.87747,551.61,588.23
48.89825,551.77,587.79
48.91752,553.15,584.39
48.93772,554.31,586.95
48.95812,555.04,583.59
48.97810,552.79,585.13
48.99835,553.83,585.13
49.01850,556.98,586.05
49.03737,554.76,584.72
49.05792,554.44,585.21
49.07802,554.38,585.29
49.09786,552.01,585.19
49.11678,552.81,584.87
49.13792,551.03,583.69
49.15776,553.27,584.12
49.17788,553.26,584.06
49.19823,554.99,584.25
49.21834,554.43,586.71
49.23795,553.10,586.12
49.25768,554.72,587.22
49.27740,555.89,588.35
49.29821,556.76,587.81
49.31693,557.05,587.79
49.33839,555.61,585.59
49.35789,554.08,587.34
49.37740,553.42,589.15
49.39686,553.81,589.53
49.41678,553.73,587.17
49.43831,555.27,586.92
49.45716,555.34,586.18
49.47837,554.42,588.42
49.49708,553.71,587.95
49.51832,551.83,585.39
49.53755,553.04,588.34
49.55745,555.69,588.84
49.57824,555.75,587.39
49.59819,554.83,588.19
49.61938,553.36,590.93
49.63861,553.02,586.97
49.65911,556.50,589.38
49.67790,555.62,588.50
49.69935,557.17,589.67
49.71905,556.79,591.01
49.73947,555.31,589.32
49.75892,558.27,589.49
49.77987,558.58,589.11
49.80015,558.59,590.68
49.81952,562.37,590.40
49.84049,560.74,591.04
49.85910,561.15,590.44
49.88005,562.22,590.47
49.90037,562.64,588.91
49.92025,561.70,588.58
49.93927,562.50,588.53
49.95983,562.64,588.25
49.97876,560.42,588.57
50.00016,563.73,588.54
50.01948,562.83,588.94
50.03916,564.49,590.06
50.06062,561.54,587.84
50.07977,565.52,590.97
50.10039,563.10,589.48
50.11902,566.53,589.96
50.14027,566.46,590.30
50.16131,564.12,588.54
50.18059,563.56,590.34
50.19974,564.04,588.79
50.22035,565.68,589.48
50.24111,565.70,588.23
50.25996,566.37,587.86
50.28009,568.74,587.52
50.30031,569.07,588.10
50.32127,568.28,588.96
50.34111,568.79,591.11
50.36122,567.77,590.34
50.37994,569.69,589.93
50.40072,571.10,589.69
50.42140,569.40,590.63
50.44140,569.04,589.72
50.46002,572.87,593.42
50.48014,573.62,594.93
50.50074,573.64,597.23
50.51990,568.78,594.74
50.54132,567.63,586.41
50.56079,565.46,569.73
50.58056,560.82,552.78
50.60115,560.63,531.32
50.62072,561.10,509.68
50.64101,558.79,492.90
50.66072,554.32,477.21
50.68102,554.57,466.24
50.70059,555.61,454.89
50.72134,553.91,452.71
50.74050,554.06,451.41
50.76113,555.64,452.92
50.78066,556.00,459.48
50.79965,558.02,465.01
50.82014,559.04,475.62
50.84141,561.37,486.78
50.86089,561.80,495.04
50.88061,560.73,507.52
50.90088,561.63,516.25
50.91965,563.42,526.00
50.94049,566.27,535.81
50.96138,568.09,544.41
50.98038,565.75,550.65
51.00012,566.93,555.86
51.01985,564.68,562.92
51.04094,569.14,566.28
51.05960,567.75,570.85
51.08000,567.79,572.48
51.10074,569.32,575.62
51.12137,568.48,576.52
51.13990,569.02,579.73
51.16084,571.37,581.51
51.17987,570.94,582.89
51.20042,570.49,581.30
51.22059,568.94,585.17
51.23998,568.56,584.64
51.26090,571.09,586.07
51.28157,571.46,593.83
51.30087,569.76,612.90
51.32066,573.85,639.18
51.34011,573.83,666.66
51.36234,578.24,699.50
51.38201,580.41,723.74
51.40251,582.83,746.00
51.42132,586.66,760.47
51.44302,589.99,765.38
51.46317,590.97,762.53
51.48364,591.94,752.48
51.50445,591.56,735.71
51.52427,589.57,716.72
51.54286,590.14,699.39
51.56529,587.47,685.19
51.58510,583.58,670.53
51.60428,578.73,658.70
51.62400,576.63,648.06
51.64365,575.54,641.06
51.66502,573.22,632.66
51.68606,573.46,626.43
51.70460,571.11,623.61
51.72590,569.92,619.26
51.74652,572.55,612.02
51.76460,569.09,608.38
51.78462,567.69,605.42
51.80573,567.88,604.71
51.82532,567.43,602.40
51.84535,568.06,600.54
51.86584,566.97,600.77
51.88510,564.65,596.76
51.90466,567.78,597.68
51.92657,563.43,594.01
51.94555,565.59,595.44
51.96555,563.37,591.07
51.98524,565.23,592.36
52.00631,567.80,590.07
52.02463,566.78,590.00
52.04631,567.00,588.93
52.06441,565.99,588.90
52.08707,561.40,588.83
52.10684,563.10,588.09
52.12725,561.26,590.09
52.14720,559.82,588.37
52.16625,559.87,587.03
52.18749,559.29,587.38
52.20610,555.67,587.87
52.22623,556.16,589.92
52.24610,555.38,590.06
52.26735,554.39,588.43
52.28751,556.14,590.82
52.30746,556.57,589.12
52.32607,557.89,588.61
52.34581,557.98,591.58
52.36741,553.48,591.96
52.38618,553.81,588.68
52.40669,554.06,588.12
52.42739,555.28,590.24
52.44718,556.39,587.68
52.46658,556.12,587.70
52.48768,554.66,588.74
52.50765,554.79,588.62
52.52771,553.30,587.62
52.54905,556.12,587.11
52.56911,552.78,587.62
52.58945,555.47,584.83
52.60909,549.84,586.45
52.62980,551.61,587.46
52.64997,549.56,586.16
52.66951,551.76,586.68
52.68986,552.27,585.00
52.70884,548.90,585.13
52.73034,548.70,585.69
52.74892,549.09,585.67
52.76993,548.80,588.25
52.78949,552.20,585.66
52.81019,550.11,587.22
52.82992,550.06,585.26
52.84908,547.75,583.97
52.87020,549.11,584.33
52.89005,548.86,584.47
52.91024,546.49,584.97
52.92971,550.83,587.76
52.95037,550.60,584.76
52.96907,551.83,586.19
52.98990,551.19,585.50
53.01015,550.14,585.43
53.02978,549.83,585.08
53.05018,551.71,585.08
53.07071,552.41,583.81
53.09090,550.86,585.61
53.11048,552.95,583.92
53.12966,550.88,586.38
53.15032,554.33,583.35
53.16972,550.69,583.92
53.19240,551.83,583.78
53.21111,554.21,584.72
53.23337,556.95,582.72
53.25279,557.46,584.53
53.27299,557.85,582.91
53.29251,557.43,585.27
53.31214,555.13,585.60
53.33184,555.96,585.64
53.35262,554.75,587.10
53.37347,556.43,583.95
53.39222,556.41,586.77
53.41311,558.20,586.97
53.43417,560.94,586.95
53.45397,559.70,585.48
53.47294,560.04,584.16
53.49389,557.97,585.26
53.51405,558.99,585.36
53.53342,556.48,585.90
53.55336,560.28,587.34
53.57383,557.93,589.11
53.59288,559.43,586.24
53.61521,559.76,585.96
53.63450,562.17,589.11
53.65491,562.44,589.87
53.67456,564.00,588.08
53.69454,565.48,588.34
53.71348,562.77,589.72
53.73408,563.99,589.25
53.75453,566.14,588.32
53.77543,565.29,588.78
53.79408,566.48,588.62
53.81399,563.73,589.38
53.83540,565.42,586.99
53.85356,565.15,589.83
53.87449,566.20,590.05
53.89468,565.27,587.90
53.91456,569.02,592.71
53.93466,566.24,589.01
53.95502,567.73,590.53
53.97501,568.49,590.62
53.99362,568.67,589.62
54.01536,568.23,592.48
54.03470,567.12,590.33
54.05459,567.12,588.94
54.07351,570.23,590.93
54.09522,569.71,590.07
54.11427,567.07,588.08
54.13434,570.46,589.92
54.15559,567.16,588.89
54.17467,567.57,589.00
54.19425,570.37,586.90
54.21451,566.49,588.52
54.23451,566.29,587.00
54.25441,567.41,588.73
54.27409,566.98,587.55
54.29474,564.90,589.94
54.31400,567.14,589.30
54.33510,566.68,596.95
54.35412,570.47,598.28
54.37404,571.13,588.48
54.39496,573.82,574.63
54.41398,571.81,552.95
54.43392,571.31,526.06
54.45510,568.04,499.24
54.47525,565.47,477.08
54.49573,559.03,461.29
54.51644,557.59,446.29
54.53632,557.96,442.65
54.55715,556.36,439.52
54.57818,556.15,445.34
54.59773,557.40,452.30
54.61731,558.36,464.86
54.63883,557.57,477.22
54.65772,560.21,491.28
54.67836,559.85,503.34
54.69810,563.52,520.54
54.71870,570.95,553.72
54.73831,576.84,607.04
54.75836,583.97,666.98
54.77863,591.38,725.54
54.79781,590.97,753.52
54.81786,589.61,758.93
54.83928,585.35,747.61
54.85856,582.94,731.02
54.87878,577.10,712.13
54.89853,575.93,692.44
54.91900,572.13,671.68
54.93763,572.01,656.32
54.95853,571.31,637.79
54.97785,570.62,625.42
54.99809,570.06,616.96
55.01775,567.39,609.03
55.03832,568.99,605.36
55.05925,566.99,601.61
55.07800,566.24,598.60
55.09774,569.27,595.02
55.11808,568.42,594.89
55.13880,567.60,593.80
55.15881,568.87,593.76
55.17908,567.46,596.67
55.19941,566.15,603.71
55.21790,568.60,620.28
55.23929,569.75,651.47
55.25783,577.09,680.21
55.27813,576.49,687.75
55.29817,575.83,677.25
55.31918,571.45,653.20
55.33764,569.60,629.32
55.35849,569.49,611.61
55.37821,569.44,598.20
55.39847,567.71,600.48
55.41763,570.29,624.40
55.43858,576.94,658.93
55.45786,578.16,680.12
55.47814,578.99,683.44
55.49852,579.03,669.28
55.51763,576.55,647.68
55.53850,573.28,628.27
55.55926,571.48,611.24
55.57761,570.29,598.45
55.59896,570.87,583.86
55.61759,568.87,574.69
55.63902,568.45,574.52
55.65834,568.10,578.17
55.67891,569.75,599.04
55.69800,573.49,637.65
55.71942,573.66,661.51
55.73927,577.47,664.03
55.75757,577.64,656.51
55.77752,580.26,639.83
55.79760,575.95,623.55
55.81837,574.77,609.13
55.83822,576.86,598.79
55.85808,575.29,584.79
55.87760,570.90,573.31
55.89853,571.47,569.88
55.91815,567.63,561.75
55.93736,570.18,564.76
55.95778,565.49,566.86
55.97806,568.78,570.50
55.99905,568.94,570.20
56.01749,565.67,569.44
56.03781,563.91,575.29
56.05798,561.39,576.42
56.07863,566.63,577.64
56.09944,563.51,584.84
56.11897,558.91,582.39
56.13750,559.26,584.94
56.15838,559.34,583.15
56.17858,557.83,580.95
56.19836,553.48,584.96
56.21790,555.76,581.26
56.23764,556.51,580.74
56.25898,554.47,582.67
56.27761,554.72,585.76
56.29770,557.62,586.35
56.31892,558.23,586.73
56.33842,559.44,585.37
56.35796,556.35,585.15
56.37820,566.23,590.88
56.39809,563.54,589.31
56.41762,561.25,591.10
56.43818,562.82,593.68
56.45887,564.10,590.41
56.47940,564.46,588.71
56.49846,565.22,592.66
56.51913,557.31,590.26
56.53755,558.16,591.12
56.55791,561.46,589.23
56.57922,562.56,592.32
56.59781,564.48,587.61
56.61778,563.72,588.66
56.63774,560.43,588.61
56.65865,563.63,588.65
56.67977,557.77,590.94
56.69992,556.05,593.96
56.71932,556.16,595.95
56.73903,558.19,592.80
56.75874,552.86,591.93
56.78129,555.87,590.99
56.80109,547.51,589.80
56.82164,550.37,589.11
56.84197,554.75,585.39
56.86170,555.67,588.03
56.88228,556.28,584.98
56.90187,558.16,586.67
56.92270,560.28,583.92
56.94259,561.53,583.86
56.96337,560.63,587.74
56.98189,562.45,589.06
57.00314,563.99,587.20
57.02258,568.17,587.89
57.04332,563.69,582.89
57.06351,568.75,586.32
