Program Time [s],data 0,data 1
10.15864,501.15,596.45
10.18004,510.44,590.22
10.19914,520.97,578.66
10.21949,520.88,555.06
10.24035,517.80,529.85
10.26083,516.79,512.22
10.27944,511.12,492.74
10.30092,504.65,477.03
10.32043,498.10,469.03
10.34044,496.64,459.04
10.36006,492.79,453.69
10.37962,486.87,448.58
10.40135,484.33,444.95
10.41983,482.16,445.18
10.44148,480.51,446.75
10.46111,479.61,443.96
10.48136,480.27,441.86
10.50102,483.00,439.19
10.52125,481.23,439.48
10.54092,483.62,442.60
10.56065,481.69,447.16
10.58041,481.43,450.77
10.60003,483.67,453.02
10.62084,482.25,457.88
10.63992,487.80,460.05
10.66101,487.95,463.02
10.68118,486.81,471.70
10.70024,482.14,476.23
10.71984,478.42,477.32
10.73990,478.52,481.53
10.76035,474.14,481.09
10.78040,473.39,482.33
10.80098,477.65,483.92
10.82210,474.13,484.71
10.84155,472.92,483.18
10.86162,472.77,484.84
10.88232,477.36,486.13
10.90293,475.96,484.72
10.92295,476.76,486.95
10.94218,476.00,483.48
10.96252,477.79,483.37
10.98424,475.74,483.23
11.00335,475.37,487.08
11.02353,478.52,488.34
11.04270,469.24,487.58
11.06525,451.59,482.50
11.08502,432.39,476.29
11.10621,417.62,473.44
11.12708,407.99,471.89
11.14671,405.56,470.75
11.16910,403.90,471.90
11.18929,405.60,471.61
11.20817,407.21,474.40
11.22876,408.18,474.74
11.24950,417.40,482.92
11.26964,419.93,484.46
11.28882,425.01,491.59
11.31098,430.93,494.69
11.33101,434.27,496.68
11.35049,435.25,496.73
11.37139,437.77,500.43
11.38990,442.84,498.36
11.41002,444.79,499.40
11.43019,438.50,483.76
11.45019,427.07,465.54
11.46996,422.51,454.80
11.48968,420.19,451.27
11.51027,418.39,455.94
11.53078,421.67,452.08
11.55083,420.45,459.45
11.57057,425.19,459.97
11.59022,427.97,462.89
11.61113,433.57,467.75
11.63208,438.42,472.13
11.65274,446.07,489.63
11.67321,455.90,509.19
11.69364,469.88,532.62
11.71449,478.01,556.04
11.73627,485.13,560.56
11.75542,491.41,548.20
11.77543,497.65,548.34
11.79661,498.97,535.76
11.81632,499.47,543.21
11.83638,494.83,549.84
11.85622,500.40,527.49
11.87649,494.25,519.01
11.89751,496.42,520.48
11.91759,491.21,505.21
11.93845,482.97,470.93
11.95743,478.21,455.26
11.97801,468.50,433.06
11.99952,462.72,427.31
12.01841,456.18,435.10
12.03852,458.41,428.26
12.05888,459.76,422.74
12.07914,457.90,418.14
12.09990,463.23,426.01
12.12041,466.08,426.82
12.14109,465.98,433.35
12.15959,472.63,448.45
12.18073,475.01,452.74
12.20073,477.25,451.34
12.22017,477.06,453.00
12.23963,475.43,462.28
12.26103,478.90,466.08
12.27955,483.52,453.61
12.29963,485.14,457.31
12.32130,481.74,464.67
12.34129,478.05,461.81
12.36014,480.31,459.05
12.38028,480.62,454.22
12.40155,479.85,463.51
12.42027,486.32,461.41
12.44122,480.62,473.92
12.46126,479.64,474.33
12.48131,479.19,469.05
12.50069,480.30,463.27
12.51998,482.53,459.72
12.53964,478.86,484.68
12.56134,480.81,485.67
12.57952,478.83,478.55
12.59957,476.03,465.74
12.62110,479.85,466.03
12.64097,483.94,470.71
12.66087,486.47,471.34
12.68156,486.06,476.67
12.70111,486.24,474.77
12.72205,485.55,481.55
12.74147,484.52,481.43
12.76208,483.63,472.83
12.78075,479.52,475.81
12.80150,485.50,480.05
12.82243,480.10,479.96
12.84117,463.54,500.61
12.86083,444.24,517.15
12.88167,433.59,519.64
12.90173,429.31,527.30
12.92095,435.05,528.27
12.94101,439.24,521.44
12.96175,444.99,525.34
12.98217,453.95,527.42
13.00170,459.21,526.37
13.02188,469.61,525.15
13.04112,474.50,522.73
13.06214,481.91,519.00
13.08145,484.48,517.41
13.10162,489.90,531.28
13.12161,492.36,519.05
13.14243,490.26,515.63
13.16173,489.50,511.50
13.18281,489.25,511.83
13.20334,488.21,510.24
13.22184,487.48,517.85
13.24251,491.67,524.08
13.26172,489.59,523.83
13.28253,493.51,515.20
13.30156,501.46,509.36
13.32167,503.00,515.46
13.34278,502.17,519.46
13.36358,502.60,508.47
13.38465,500.26,505.31
13.40449,495.89,513.86
13.42568,494.99,511.35
13.44462,487.50,507.68
13.46463,484.43,504.07
13.48578,481.13,500.77
13.50553,485.67,491.67
13.52561,483.58,495.57
13.54632,485.36,492.85
13.56681,495.65,494.92
13.58545,506.81,506.24
13.60740,512.60,496.77
13.62841,510.15,495.19
13.64998,504.90,502.49
13.67043,498.69,499.95
13.69132,495.38,504.85
13.71140,490.46,513.05
13.73137,493.92,528.32
13.75167,497.24,570.92
13.77245,501.71,603.19
13.79142,505.49,611.56
13.81204,501.25,611.60
13.83140,500.76,592.36
13.85147,491.85,561.20
13.87139,471.34,534.08
13.89167,455.10,512.32
13.91259,438.58,483.15
13.93158,432.82,459.64
13.95300,427.42,441.03
13.97448,426.75,433.25
13.99524,427.54,429.66
14.01589,430.86,422.67
14.03620,432.75,431.13
14.05614,440.33,434.19
14.07730,448.16,438.42
14.09715,453.96,439.44
14.11578,453.64,438.49
14.13613,457.10,433.01
14.15583,457.86,433.24
14.17575,458.40,433.48
14.19574,460.91,444.20
14.21668,463.29,461.17
14.23617,463.36,457.09
14.25655,465.69,458.37
14.27710,468.27,457.89
14.29608,469.86,458.37
14.31656,467.37,456.09
14.33641,466.50,459.39
14.35676,464.48,449.69
14.37622,462.07,447.88
14.39670,462.96,447.16
14.41686,464.32,442.53
14.43711,460.43,447.34
14.45540,466.02,452.26
14.47614,463.44,451.76
14.49613,462.72,458.14
14.51642,473.21,466.27
14.53558,470.20,491.44
14.55642,472.74,524.34
14.57558,469.28,539.38
14.59597,467.35,543.94
14.61693,467.72,523.82
14.63583,465.21,500.99
14.65593,462.79,472.49
14.67606,461.72,451.54
14.69663,465.16,432.54
14.71723,465.40,415.05
14.73572,466.00,409.31
14.75705,467.09,409.40
14.77699,468.20,405.29
14.79739,467.86,399.87
14.81698,470.76,417.50
14.83659,458.69,429.34
14.85724,455.98,443.55
14.87735,458.13,454.26
14.89669,470.24,497.65
14.91755,482.29,539.51
14.93673,492.18,583.90
14.95716,504.56,604.61
14.97822,513.45,618.75
14.99814,514.35,632.32
15.01827,523.59,652.84
15.03845,528.04,661.62
15.05770,532.87,669.32
15.07719,531.60,665.48
15.09718,526.72,657.77
15.11822,520.08,642.48
15.13663,510.14,602.27
15.15696,484.23,559.35
15.17702,470.29,513.79
15.19741,459.21,469.72
15.21736,454.39,442.56
15.23868,453.07,426.17
15.25791,454.70,412.57
15.27943,451.39,417.08
15.30069,447.95,407.66
15.32140,441.39,411.01
15.34006,447.76,415.96
15.36134,449.78,418.64
15.38021,452.24,431.59
15.39960,454.74,438.10
15.41961,458.53,446.68
15.44020,460.43,451.00
15.46124,471.20,457.38
15.48196,471.83,455.15
15.50294,467.15,468.65
15.52204,462.69,472.01
15.54277,470.16,481.30
15.56164,468.88,487.80
15.58317,463.44,492.30
15.60215,464.32,496.98
15.62297,461.95,504.25
15.64296,461.25,503.91
15.66171,462.26,512.25
15.68302,459.85,512.50
15.70261,463.27,521.51
15.72205,462.91,524.94
15.74192,463.70,530.34
15.76226,467.23,533.72
15.78264,469.62,536.25
15.80212,478.08,532.27
15.82161,478.90,511.46
15.84335,478.27,486.61
15.86169,475.37,467.71
15.88256,469.11,449.04
15.90172,467.54,439.67
15.92296,463.84,422.46
15.94275,463.89,418.75
15.96192,460.01,413.65
15.98171,453.34,412.53
16.00158,456.72,415.74
16.02158,459.39,417.16
16.04214,455.66,426.80
16.06371,455.18,435.38
16.08446,457.72,452.82
16.10402,461.93,457.77
16.12488,461.93,464.16
16.14464,459.35,471.96
16.16616,461.17,473.34
16.18635,463.45,484.57
16.20620,459.79,497.20
16.22632,463.56,503.95
16.24614,463.24,510.72
16.26655,454.20,512.93
16.28687,454.13,518.79
16.30677,461.09,518.76
16.32611,458.12,522.73
16.34659,456.49,518.15
16.36716,463.30,522.67
16.38693,452.23,521.09
16.40745,454.38,518.17
16.42910,452.66,521.76
16.44829,456.77,525.08
16.46979,455.81,522.50
16.49022,455.88,526.03
16.51008,457.20,521.34
16.52973,459.41,519.69
16.55055,456.02,520.41
16.57021,460.41,521.49
16.59100,461.92,517.76
16.61027,462.78,519.22
16.62980,462.10,519.54
16.65061,464.39,517.45
16.66974,462.52,515.55
16.68968,463.25,516.03
16.71177,462.32,518.02
16.73223,465.65,516.57
16.75262,466.23,516.74
16.77316,467.16,514.13
16.79288,463.58,513.79
16.81456,461.71,521.68
16.83397,467.91,542.73
16.85398,470.90,579.51
16.87362,473.45,624.52
16.89351,474.96,655.72
16.91415,476.60,678.27
16.93337,482.74,681.49
16.95359,484.43,673.76
16.97307,480.33,660.16
16.99419,479.60,645.68
17.01362,478.46,629.72
17.03302,476.41,612.27
17.05341,478.97,597.64
17.07274,470.60,582.91
17.09258,474.46,570.75
17.11385,476.99,562.28
17.13359,479.27,552.48
17.15513,478.32,552.81
17.17520,480.32,550.70
17.19422,479.59,552.11
17.21411,479.15,549.23
17.23393,482.43,546.15
17.25501,486.81,545.33
17.27522,485.60,538.66
17.29445,480.32,537.02
17.31578,479.67,535.70
17.33583,478.17,532.47
17.35488,477.00,534.31
17.37589,475.96,534.94
17.39436,476.35,531.51
17.41605,477.48,528.02
17.43562,476.16,526.05
17.45459,476.75,523.28
17.47736,478.50,524.66
17.49606,478.41,521.31
17.51602,477.34,523.17
17.53589,476.81,525.27
17.55725,475.34,519.97
17.57679,478.92,518.75
17.59799,477.75,518.80
17.61803,476.90,517.34
17.63805,476.28,518.14
17.65802,474.98,515.10
17.67818,474.98,516.20
17.69739,473.13,516.37
17.71811,475.57,517.78
17.73725,475.02,515.84
17.75663,471.73,516.48
17.77727,470.96,515.90
17.79820,471.52,515.60
17.81736,473.63,511.53
17.83623,471.29,516.54
17.85704,473.40,516.99
17.87769,471.79,518.44
17.89662,473.96,517.24
17.91810,472.24,515.62
17.93667,471.70,515.92
17.95649,472.17,514.16
17.97656,472.51,514.44
17.99759,472.37,513.46
18.01654,471.20,514.62
18.03779,473.95,504.61
18.05681,471.13,485.69
18.07745,465.68,462.76
18.09753,461.11,441.56
18.11933,457.04,422.52
18.13761,453.34,405.40
18.15941,449.76,392.33
18.17927,449.27,382.12
18.19895,446.87,373.36
18.21984,449.69,367.01
18.23883,448.81,367.65
18.25842,450.59,368.71
18.27955,454.58,372.48
18.29848,458.14,377.98
18.31928,457.39,389.81
18.34045,463.28,400.94
18.35924,459.87,413.63
18.37828,460.53,421.13
18.39898,465.10,434.12
18.41966,463.24,443.22
18.43875,460.92,449.81
18.45930,464.46,457.81
18.47926,465.20,462.75
18.50038,463.47,470.92
18.51907,466.03,476.11
18.54023,463.52,482.08
18.55984,466.69,482.30
18.57896,467.09,486.95
18.60011,466.51,489.28
18.62020,463.36,493.89
18.63992,465.19,493.41
18.66006,462.43,493.44
18.67947,461.85,495.03
18.69937,460.47,496.74
18.71831,463.20,499.42
18.73842,465.64,505.07
18.75938,466.14,505.97
18.77920,465.90,506.14
18.80029,464.24,507.25
18.81949,466.21,506.21
18.83850,465.45,506.11
18.85991,466.84,507.15
18.87885,464.24,508.43
18.90102,466.01,507.28
18.91983,465.39,506.25
18.94018,464.59,503.90
18.96082,462.85,514.18
18.98117,465.24,541.34
19.00055,466.69,592.29
19.02061,472.85,659.59
19.04009,477.11,700.34
19.06014,477.49,725.87
19.08108,473.65,733.56
19.09947,476.09,723.77
19.12095,472.34,701.94
19.14020,468.11,678.37
19.15999,464.62,653.05
19.18135,463.54,625.49
19.20060,461.97,603.63
19.21931,457.68,584.22
19.24117,460.31,567.72
19.25952,457.39,553.15
19.28126,455.57,543.36
19.30090,454.97,535.61
19.31986,458.69,528.75
19.33934,457.24,521.63
19.36089,459.00,517.51
19.38049,456.62,515.69
19.40153,454.60,508.17
19.42211,453.76,505.09
19.44040,454.01,498.43
19.46124,456.57,500.94
19.48194,454.31,500.54
19.50061,455.49,496.72
19.52156,453.13,498.57
19.54165,455.89,497.90
19.56107,454.70,495.34
19.58234,452.13,494.05
19.60070,453.74,493.38
19.62186,455.93,494.92
19.64226,453.62,497.06
19.66207,456.16,498.37
19.68072,455.48,497.32
19.70075,455.39,497.65
19.72101,457.05,496.37
19.74042,455.47,496.33
19.76040,457.05,496.88
19.78066,456.28,496.08
19.80222,458.90,498.89
19.82167,456.75,499.97
19.84196,461.16,500.45
19.86058,458.01,498.69
19.88069,456.75,497.33
19.90073,458.35,497.44
19.92157,458.12,499.22
19.94219,456.34,497.09
19.96069,457.71,498.38
19.98155,459.79,499.34
20.00055,461.34,497.46
20.02169,459.61,496.60
20.04102,461.47,499.00
20.06093,459.29,496.31
20.08181,460.43,499.03
20.10111,457.76,498.03
20.12204,459.64,497.09
20.14158,459.68,496.76
20.16052,462.51,496.72
20.18177,460.30,497.86
20.20043,461.82,499.56
20.22064,462.56,497.89
20.24090,467.96,494.56
20.26044,464.85,493.00
20.28181,468.29,495.77
20.30047,466.23,496.00
20.32129,460.93,495.28
20.34082,461.78,497.50
20.36263,461.69,493.05
20.38269,461.42,493.46
20.40405,462.51,497.28
20.42276,460.00,496.69
20.44336,459.55,495.47
20.46322,461.69,496.06
20.48422,465.10,499.47
20.50552,465.42,497.04
20.52552,468.43,499.34
20.54572,470.35,499.10
20.56604,470.70,500.26
20.58792,471.14,500.41
20.60842,475.32,500.15
20.62824,475.40,501.96
20.64972,475.40,501.85
20.66870,476.81,501.96
20.68951,475.37,503.16
20.70967,477.16,503.02
20.72948,475.98,504.77
20.74958,475.41,503.21
20.77073,473.61,502.51
20.79039,476.21,501.69
20.81059,477.16,501.52
20.83115,477.38,504.45
20.85086,477.38,502.89
20.86959,477.08,504.49
20.89105,477.82,505.26
20.91008,478.11,503.76
20.92978,478.56,501.90
20.95020,480.26,504.33
20.97068,478.56,505.76
20.99033,480.20,507.56
21.01116,479.33,507.73
21.03075,479.81,504.14
21.05132,483.65,491.91
21.06939,486.19,485.37
21.08961,490.15,472.22
21.11049,494.70,458.32
21.13081,496.21,441.15
21.14959,496.40,429.31
21.17100,490.82,414.91
21.19002,488.87,401.03
21.21057,482.95,392.92
21.23055,481.73,385.94
21.25086,478.06,383.59
21.27107,474.76,384.18
21.29091,470.04,384.54
21.31114,468.89,389.36
21.33047,467.93,395.59
21.35043,467.42,407.27
21.37149,467.14,414.17
21.39042,466.76,425.38
21.41202,462.94,434.50
21.43269,465.15,438.93
21.45166,466.73,448.73
21.47197,465.33,454.08
21.49210,462.79,462.78
21.51152,463.85,469.76
21.53303,465.21,474.94
21.55278,466.99,477.59
21.57275,464.74,484.93
21.59338,467.20,484.50
21.61122,466.79,487.23
21.63262,464.86,491.02
21.65143,466.88,494.19
21.67241,468.53,496.53
21.69245,467.70,496.68
21.71314,467.02,499.77
21.73416,465.43,500.21
21.75325,464.81,500.44
21.77400,464.36,501.05
21.79412,464.74,501.71
21.81436,466.32,500.93
21.83262,463.18,501.44
21.85339,463.56,506.46
21.87429,468.68,524.49
21.89401,473.84,561.35
21.91314,481.40,639.65
21.93348,489.24,703.65
21.95248,494.31,755.13
21.97228,496.96,771.11
21.99320,493.94,767.93
22.01508,487.84,746.28
22.03490,482.43,718.19
22.05407,478.72,683.60
22.07410,471.84,649.61
22.09430,469.71,616.83
22.11452,465.09,589.57
22.13629,461.72,561.70
22.15727,457.20,543.76
22.17597,454.66,525.39
22.19551,455.74,514.60
22.21695,454.23,506.46
22.23609,454.31,496.41
22.25602,457.20,494.36
22.27783,452.84,489.70
22.29640,450.89,485.13
22.31728,452.30,478.49
22.33652,447.63,477.84
22.35697,448.87,477.13
22.37655,450.30,476.35
22.39656,450.53,476.61
22.41753,451.53,475.79
22.43721,450.65,476.97
22.45728,451.35,475.54
22.47788,450.67,478.20
22.49758,454.78,476.90
22.51769,456.30,479.04
22.53611,456.53,480.40
22.55829,459.57,482.39
22.57641,459.00,484.63
22.59739,457.67,482.96
22.61859,457.70,483.38
22.63768,458.18,485.53
22.65737,457.92,487.50
22.67853,459.02,490.26
22.69824,458.98,487.52
22.71839,459.88,488.17
22.73830,462.35,490.20
22.75803,463.19,491.56
22.77851,461.19,488.82
22.79903,462.40,490.04
22.81851,463.10,492.19
22.83842,459.62,489.04
22.85810,459.40,490.65
22.87809,459.69,492.03
22.89746,461.37,489.89
22.91851,459.61,493.05
22.93776,457.43,491.17
22.95814,459.02,492.75
22.97837,457.37,494.90
22.99891,459.82,492.37
23.01748,459.96,493.46
23.03792,458.38,493.65
23.05925,460.46,493.81
23.07797,459.31,492.68
23.09909,462.41,493.48
23.11763,461.18,495.53
23.13751,460.10,493.60
23.15882,458.27,492.70
23.17832,458.80,492.99
23.19762,460.22,491.93
23.21886,459.90,495.54
23.23831,461.87,493.02
23.25803,461.92,495.72
23.27782,463.14,497.91
23.29897,461.65,497.08
23.31817,462.58,494.17
23.33854,459.16,495.85
23.35851,461.51,493.11
23.37868,461.98,495.53
23.39898,459.60,494.08
23.41864,463.90,492.29
23.43901,464.23,492.47
23.45816,463.54,490.72
23.47813,463.44,490.80
23.49868,466.17,489.76
23.51775,466.60,492.51
23.53728,465.02,492.24
23.55828,466.02,491.09
23.57798,465.51,493.44
23.59817,464.72,493.95
23.61860,464.95,492.72
23.63851,462.32,494.44
23.65722,463.12,493.70
23.67898,461.17,495.27
23.69777,463.23,492.86
23.71739,462.81,494.99
23.73788,458.84,493.34
23.75856,463.09,492.95
23.77720,461.76,491.23
23.79883,460.06,493.23
23.81748,459.54,493.91
23.83832,463.07,491.42
23.85821,463.74,490.70
23.87753,461.37,490.22
23.89864,464.09,489.93
23.91851,462.43,491.92
23.93830,464.09,491.84
23.95790,465.37,489.46
23.97845,461.74,492.74
23.99808,463.75,490.25
24.01825,462.56,491.84
24.03793,463.64,491.98
24.05742,465.61,491.91
24.07915,462.24,493.76
24.09896,464.34,493.39
24.11892,464.77,494.54
24.13742,462.68,491.83
24.15745,464.86,493.65
24.17803,464.35,493.71
24.19894,465.59,497.30
24.21899,464.49,492.19
24.23852,465.49,481.14
24.25850,464.49,462.43
24.27863,463.44,442.79
24.29872,463.26,423.40
24.31836,462.18,407.23
24.33843,461.45,393.83
24.35871,460.15,386.42
24.37833,456.39,379.01
24.39771,453.04,376.15
24.41914,454.88,377.06
24.43804,453.56,377.34
24.45851,455.81,386.57
24.47787,459.64,392.53
24.49839,460.29,401.16
24.51889,459.32,412.42
24.53895,460.93,419.61
24.55898,461.82,430.40
24.57789,462.84,435.64
24.59873,462.55,446.61
24.61791,460.20,451.46
24.63853,461.77,457.34
24.65823,464.57,460.38
24.67749,464.54,464.78
24.69767,466.43,468.02
24.71895,466.71,473.12
24.73856,467.78,475.29
24.75822,467.98,477.52
24.77773,466.63,479.09
24.79745,467.80,481.89
24.81733,466.36,484.62
24.83867,466.31,486.85
24.85904,467.31,488.93
24.87759,467.28,489.25
24.89714,465.69,488.52
24.91805,468.45,488.13
24.93896,466.99,491.87
24.95881,466.27,492.81
24.97777,469.42,489.51
24.99849,467.50,493.73
25.01756,470.31,491.01
25.03761,469.96,493.50
25.05859,468.30,492.63
25.07754,468.64,493.45
25.09817,468.27,492.28
25.11744,468.06,493.18
25.13923,469.48,491.60
25.15920,467.85,491.85
25.17748,467.22,492.61
25.19823,467.48,492.53
25.21800,465.05,493.36
25.23832,467.46,490.86
25.25848,467.84,491.77
25.27911,468.45,501.60
25.29815,472.80,522.89
25.31814,475.24,557.92
25.33731,476.30,586.37
25.35789,474.28,615.06
25.37748,479.90,635.97
25.39757,483.87,647.29
25.41765,483.81,651.28
25.43862,483.42,644.67
25.45926,485.19,631.62
25.47807,482.50,614.06
25.49896,481.31,598.60
25.51912,479.00,584.52
25.53888,479.21,569.88
25.55833,478.23,560.13
25.58016,479.06,547.91
25.59820,479.44,537.82
25.61818,476.14,531.96
25.63907,475.54,527.60
25.65879,477.83,522.80
25.67963,477.50,518.66
25.70013,478.36,511.83
25.71960,480.17,510.65
25.73843,477.47,505.72
25.75863,479.08,503.83
25.77814,477.24,503.64
25.80008,479.65,500.90
25.81851,478.84,500.68
25.83964,477.09,498.17
25.85831,476.68,494.82
25.87932,475.39,493.23
25.89969,476.47,493.85
25.91886,475.73,493.31
25.93950,475.98,492.85
25.95867,477.16,491.82
25.97832,476.78,490.15
25.99989,478.70,490.39
26.01885,478.01,493.84
26.03949,477.60,492.23
26.05826,478.87,493.52
26.07841,477.49,491.67
26.09962,474.57,494.11
26.11839,478.30,492.70
26.13981,476.60,492.07
26.15985,476.01,494.73
26.18002,477.78,496.26
26.19966,476.46,495.49
26.21946,477.26,494.86
26.23940,478.60,496.87
26.25844,479.79,493.17
26.27970,479.07,496.01
26.29870,479.52,496.20
26.31879,478.83,494.24
26.33992,478.12,493.40
26.35878,478.05,493.30
26.37900,474.15,493.48
26.40094,476.53,495.15
26.41970,477.06,494.66
26.43922,476.24,496.65
26.46026,476.85,496.65
26.47913,477.73,497.83
26.49953,476.83,495.50
26.52002,476.64,497.82
26.53934,473.68,499.87
26.56046,472.98,497.67
26.57986,473.15,497.45
26.59999,475.20,498.62
26.62025,475.94,497.65
26.64001,477.99,496.07
26.66063,475.42,497.81
26.68048,475.67,496.91
26.70195,478.91,497.85
26.72087,479.79,498.52
26.74078,479.37,500.77
26.76067,479.37,499.99
26.78194,477.00,498.50
26.80213,477.93,498.90
26.82026,477.20,498.57
26.84084,477.75,497.59
26.86177,474.37,497.70
26.88205,472.88,498.49
26.90138,472.68,497.96
26.92170,473.46,497.12
26.94151,475.64,500.19
26.96164,474.86,495.98
26.98116,474.54,498.32
27.00055,473.77,497.12
27.02152,471.54,499.22
27.04211,473.04,499.65
27.06211,474.29,498.14
27.08212,474.30,496.22
27.10283,473.85,496.33
27.12175,475.80,495.06
27.14268,475.13,494.57
27.16164,476.09,498.11
27.18401,475.34,494.01
27.20276,475.11,495.45
27.22375,474.94,495.38
27.24240,474.81,494.69
27.26370,471.50,494.86
27.28345,474.14,496.41
27.30338,473.15,497.24
27.32206,472.45,496.44
27.34323,472.56,495.47
27.36265,468.75,495.77
27.38299,469.71,496.89
27.40371,468.53,495.59
27.42297,470.51,494.80
27.44227,470.90,496.31
27.46303,468.18,493.28
27.48359,466.66,496.42
27.50254,467.00,496.48
27.52241,467.19,495.08
27.54320,468.84,495.64
27.56299,466.50,493.46
27.58309,468.01,495.80
27.60250,465.46,498.01
27.62256,465.16,496.48
27.64345,465.64,496.91
27.66259,468.57,497.45
27.68409,466.17,498.87
27.70389,469.36,499.83
27.72311,466.60,498.57
27.74420,468.72,497.76
27.76229,468.69,498.09
27.78217,465.11,493.46
27.80408,467.07,496.34
27.82375,468.88,495.99
27.84239,465.09,493.75
27.86312,465.22,493.41
27.88344,468.32,492.20
27.90234,464.59,490.31
27.92289,466.83,491.02
27.94298,467.54,492.37
27.96227,467.65,491.68
27.98291,465.84,494.55
28.00319,464.52,495.65
28.02380,463.88,495.73
28.04270,463.56,494.54
28.06266,463.93,496.66
28.08328,461.93,489.45
28.10384,456.13,482.75
28.12294,447.38,468.92
28.14411,443.16,452.42
28.16232,437.51,434.12
28.18266,431.26,411.00
28.20243,433.74,394.42
28.22305,431.69,378.52
28.24268,435.14,366.67
28.26322,439.12,362.17
28.28404,443.13,357.00
28.30300,444.16,361.12
28.32248,447.46,364.85
28.34366,451.90,371.11
28.36339,454.36,379.42
28.38234,457.98,390.62
28.40354,462.09,397.41
28.42247,461.94,410.33
28.44404,462.52,421.01
28.46331,461.49,430.07
28.48321,462.99,436.38
28.50393,466.50,444.86
28.52257,466.07,451.51
28.54211,464.35,457.89
28.56380,467.31,466.68
28.58314,464.45,471.20
28.60307,465.15,476.06
28.62366,460.94,475.72
28.64298,460.20,479.86
28.66264,460.77,479.39
28.68302,463.02,480.78
28.70322,464.37,483.24
28.72385,462.04,485.10
28.74277,462.76,484.81
28.76342,462.98,484.47
28.78320,461.96,485.21
28.80321,460.89,487.23
28.82292,463.53,487.54
28.84249,462.47,487.08
28.86284,461.89,489.75
28.88316,461.76,488.93
28.90286,462.05,489.27
28.92229,460.97,490.17
28.94343,459.71,490.94
28.96391,458.86,491.85
28.98359,462.03,492.33
29.00234,460.63,492.47
29.02323,459.47,493.63
29.04239,463.44,490.79
29.06340,462.51,502.35
29.08375,459.29,520.46
29.10389,460.43,550.74
29.12281,459.80,588.98
29.14299,463.23,623.43
29.16277,466.61,651.75
29.18245,468.29,666.66
29.20221,474.02,670.20
29.22390,470.70,661.55
29.24322,475.49,646.07
29.26351,471.01,631.94
29.28304,470.70,613.19
29.30337,468.98,594.52
29.32343,470.92,581.01
29.34338,468.45,564.85
29.36397,466.53,554.14
29.38321,467.33,545.35
29.40420,464.55,534.62
29.42294,465.99,528.35
29.44376,467.99,521.72
29.46307,466.38,517.54
29.48395,466.00,513.72
29.50398,465.57,509.70
29.52251,464.01,505.26
29.54306,461.39,502.09
29.56349,463.98,498.86
29.58227,461.32,498.06
29.60300,461.23,495.90
29.62262,459.90,497.00
29.64350,458.22,495.37
29.66373,457.60,494.49
29.68402,459.07,494.30
29.70309,457.25,491.10
29.72346,459.38,490.08
29.74344,458.63,489.84
29.76241,458.02,489.77
29.78253,457.14,490.80
29.80276,460.24,492.60
29.82298,460.97,489.12
29.84318,457.73,490.72
29.86322,457.72,488.12
29.88385,457.07,488.79
29.90337,460.30,488.33
29.92223,458.67,487.27
29.94375,457.53,488.48
29.96409,458.04,489.25
29.98252,460.19,488.70
30.00382,460.62,488.37
30.02280,458.38,491.10
30.04325,457.96,490.14
30.06359,458.87,491.38
30.08217,457.47,491.29
30.10309,456.14,489.18
30.12372,459.12,491.91
30.14238,458.94,493.99
30.16357,455.54,493.59
30.18312,456.97,492.75
30.20247,457.28,488.91
30.22338,456.85,489.11
30.24320,455.73,487.33
30.26333,456.88,489.68
30.28296,457.67,486.75
30.30282,456.28,488.63
30.32310,455.06,484.80
30.34342,454.94,487.63
30.36202,456.27,486.21
30.38351,456.62,486.54
30.40237,454.83,486.75
30.42337,456.41,488.13
30.44392,454.52,487.61
30.46358,455.47,484.83
30.48354,452.89,488.17
30.50403,454.31,488.06
30.52390,455.29,487.59
30.54224,454.15,486.38
30.56278,457.39,484.10
30.58300,458.49,487.09
30.60313,456.71,484.44
30.62293,457.64,486.30
30.64229,458.58,487.46
30.66211,456.23,486.28
30.68357,456.47,485.67
30.70286,455.88,487.59
30.72357,457.86,486.69
30.74284,456.94,487.70
30.76377,457.94,483.61
30.78218,458.18,484.92
30.80388,459.36,486.68
30.82378,457.62,487.19
30.84192,457.47,486.14
30.86272,458.17,485.64
30.88284,457.97,486.50
30.90222,455.04,485.79
30.92258,458.75,488.17
30.94341,455.73,486.37
30.96367,456.84,486.25
30.98245,458.99,487.26
31.00372,458.85,484.14
31.02298,459.41,484.32
31.04389,459.61,487.30
31.06365,458.69,486.57
31.08260,458.84,484.45
31.10231,455.59,484.76
31.12368,458.62,483.82
31.14231,456.64,484.62
31.16289,457.20,484.79
31.18236,458.27,485.09
31.20250,458.97,486.70
31.22274,458.60,486.30
31.24221,457.96,484.05
31.26310,457.20,486.27
31.28397,456.96,487.69
31.30238,456.49,488.30
31.32364,454.22,487.18
31.34323,451.89,485.71
31.36251,452.53,486.56
31.38362,455.25,487.48
31.40272,455.14,488.50
31.42356,453.92,488.71
31.44332,457.48,488.46
31.46295,455.82,485.82
31.48341,457.01,486.10
31.50326,454.69,488.16
31.52315,454.11,487.48
31.54237,453.02,486.19
31.56337,454.24,487.72
31.58348,457.21,486.20
31.60351,457.38,485.12
31.62359,455.72,488.35
31.64319,458.06,488.74
31.66327,459.33,485.75
31.68238,458.60,487.54
31.70379,461.20,490.12
31.72253,459.19,491.34
31.74228,461.17,493.15
31.76220,459.62,486.90
31.78409,458.74,472.06
31.80219,462.08,452.30
31.82266,458.90,431.79
31.84246,459.98,415.74
31.86250,460.68,401.10
31.88212,459.43,388.34
31.90381,457.75,377.85
31.92261,455.65,373.66
31.94260,455.73,372.14
31.96318,453.82,371.28
31.98271,452.99,371.25
32.00269,451.77,378.42
32.02321,452.28,381.82
32.04286,451.56,387.93
32.06381,451.17,397.45
32.08293,450.30,405.21
32.10266,451.84,414.32
32.12260,453.46,423.42
32.14262,454.30,430.38
32.16353,452.54,436.66
32.18228,450.38,444.14
32.20236,452.82,452.16
32.22376,454.00,458.20
32.24264,453.33,461.35
32.26304,454.94,466.72
32.28292,455.86,469.84
32.30225,454.21,470.80
32.32221,453.66,474.13
32.34209,454.37,474.72
32.36282,455.96,478.18
32.38230,455.70,477.96
32.40223,457.09,478.11
32.42222,459.88,482.06
32.44348,460.10,483.83
32.46226,460.79,486.54
32.48279,456.80,490.49
32.50229,459.25,490.58
32.52317,458.40,492.72
32.54268,459.20,494.24
32.56411,460.50,496.84
32.58323,457.91,497.57
32.60251,456.58,494.60
32.62247,457.23,493.66
32.64332,459.46,494.98
32.66246,459.37,494.18
32.68286,458.16,499.18
32.70347,461.83,515.15
32.72315,461.75,542.76
32.74255,462.61,569.38
32.76289,462.39,590.33
32.78347,463.53,600.90
32.80400,466.98,607.52
32.82380,467.39,605.75
32.84260,466.33,596.39
32.86400,465.07,586.23
32.88224,464.45,574.25
32.90261,461.29,562.85
32.92277,462.96,555.33
32.94351,461.31,545.29
32.96363,464.08,535.22
32.98255,461.79,533.24
33.00395,460.82,538.43
33.02361,465.67,541.96
33.04271,462.48,541.85
33.06394,464.39,540.35
33.08213,463.94,535.89
33.10329,465.11,533.04
33.12392,462.02,528.22
33.14264,463.45,524.11
33.16378,462.80,518.05
33.18240,462.55,514.88
33.20408,463.55,510.31
33.22274,461.83,506.07
33.24257,463.97,504.06
33.26236,464.99,500.41
33.28275,464.35,499.31
33.30334,466.46,494.59
33.32282,464.57,494.64
33.34287,465.31,493.58
33.36280,462.89,493.34
33.38374,465.35,492.10
33.40336,464.62,490.75
33.42369,466.28,491.97
33.44361,465.33,490.19
33.46227,465.24,490.27
33.48238,465.93,490.25
33.50402,468.10,492.45
33.52350,466.90,492.06
33.54346,466.85,492.01
33.56278,464.52,493.23
33.58305,465.19,491.57
33.60267,465.78,491.18
33.62218,464.08,493.87
33.64363,465.69,493.74
33.66374,465.94,491.63
33.68433,467.69,492.75
33.70437,466.69,492.13
33.72495,467.25,492.88
33.74378,468.75,493.32
33.76357,472.93,495.85
33.78363,469.10,496.41
33.80410,468.73,493.72
33.82297,469.07,495.58
33.84495,468.62,493.15
33.86409,468.52,495.08
33.88320,469.26,496.45
33.90413,469.40,497.25
33.92347,470.05,497.56
33.94484,468.17,496.57
33.96380,469.70,497.39
33.98448,466.59,496.74
34.00304,468.11,495.86
34.02330,469.20,495.58
34.04336,470.04,497.31
34.06434,470.12,495.07
34.08313,471.24,497.51
34.10307,468.93,493.95
34.12428,471.15,496.27
34.14395,468.89,493.43
34.16451,472.16,495.12
34.18396,468.74,496.64
34.20377,471.33,494.76
34.22373,471.78,494.29
34.24420,470.48,495.73
34.26482,471.74,496.19
34.28454,470.83,496.03
34.30381,469.59,496.89
34.32328,473.18,494.53
34.34384,472.24,493.20
34.36495,473.39,493.53
34.38389,472.28,492.27
34.40418,474.23,493.15
34.42490,474.74,493.20
34.44326,475.32,492.52
34.46410,474.85,495.08
34.48351,474.64,493.68
34.50380,473.31,495.78
34.52301,473.19,493.77
34.54417,472.60,492.84
34.56323,472.32,496.02
34.58323,473.83,496.97
34.60421,471.73,496.54
34.62329,475.22,497.36
34.64362,472.09,498.23
34.66583,475.19,496.39
34.68423,476.37,494.34
34.70600,473.76,496.74
34.72560,475.96,495.06
34.74483,477.30,495.02
34.76551,477.16,497.77
34.78409,476.24,496.38
34.80442,475.71,494.44
34.83007,479.08,497.45
34.84575,477.34,494.65
34.86408,475.29,495.70
34.88581,476.23,497.56
34.90476,478.78,496.54
34.92582,478.37,495.32
34.94532,476.92,496.23
34.96456,477.15,496.90
34.98524,477.21,496.37
35.00582,480.87,495.52
35.02596,477.38,494.23
35.04439,478.42,494.61
35.06540,478.91,497.14
35.08466,481.50,498.12
35.10448,482.67,499.61
35.12437,482.33,498.75
35.14454,479.75,497.87
35.16444,480.08,498.54
35.18472,478.60,499.16
35.20519,477.84,498.25
35.22400,481.75,498.31
35.24533,478.39,499.01
35.26560,477.21,498.26
35.28477,476.75,499.54
35.30442,478.14,486.33
35.32470,473.82,466.95
35.34448,474.18,442.78
35.36517,472.15,426.60
35.38451,469.18,410.43
35.40475,469.90,403.26
35.42489,466.92,400.11
35.44572,468.57,402.24
35.46566,468.12,407.15
35.48530,468.11,414.46
35.50550,468.76,420.29
35.52549,472.24,421.75
35.54449,468.97,422.81
35.56489,470.51,422.39
35.58487,469.46,422.94
35.60422,468.10,422.39
35.62573,471.24,423.64
35.64475,473.18,424.44
35.66509,474.00,429.97
35.68437,475.11,431.34
35.70596,472.93,435.85
35.72441,473.19,441.78
35.74538,473.28,447.07
35.76513,477.07,450.59
35.78583,474.56,456.18
35.80468,475.55,460.06
35.82573,475.13,465.49
35.84586,475.16,466.06
35.86551,477.64,469.71
35.88463,475.62,476.19
35.90565,477.22,475.68
35.92434,477.18,479.12
35.94554,480.05,482.74
35.96528,478.74,483.20
35.98504,478.26,486.37
36.00440,478.26,489.84
36.02534,475.86,491.08
36.04563,476.06,490.16
36.06487,475.94,493.89
36.08555,475.92,493.00
36.10524,475.76,493.64
36.12511,478.12,496.43
36.14488,477.17,497.05
36.16424,477.51,494.43
36.18596,478.63,498.48
36.20512,479.51,498.20
36.22456,479.09,501.25
36.24523,480.46,518.54
36.26373,479.05,546.80
36.28491,481.59,580.99
36.30438,483.30,611.35
36.32563,485.46,641.55
36.34504,487.46,659.84
36.36405,489.60,673.05
36.38541,490.25,678.90
36.40544,495.68,672.65
36.42391,493.07,663.06
36.44558,494.02,645.53
36.46390,490.10,624.47
36.48472,487.62,607.28
36.50494,487.44,590.26
36.52442,485.80,575.19
36.54552,484.90,564.73
36.56397,485.41,554.55
36.58454,485.38,542.14
36.60521,483.32,535.90
36.62426,481.74,528.24
36.64473,480.81,522.09
36.66441,481.89,515.41
36.68555,481.22,511.39
36.70457,480.80,506.88
36.72491,479.71,502.74
36.74556,479.62,498.82
36.76568,481.51,498.63
36.78655,479.79,498.04
36.80612,480.84,497.02
36.82677,478.05,495.61
36.84540,475.41,492.25
36.86608,478.16,492.51
36.88699,478.70,494.02
36.90539,476.56,494.24
36.92672,477.52,492.79
36.94561,479.71,496.64
36.96629,475.30,495.55
36.98545,477.56,493.46
37.00512,474.90,497.78
37.02607,475.64,494.89
37.04691,476.67,497.15
37.06659,474.84,496.01
37.08645,477.05,493.51
37.10541,477.45,493.93
37.12476,476.16,491.71
37.14539,475.66,492.69
37.16529,478.37,495.20
37.18589,478.51,495.37
37.20548,477.13,493.81
37.22621,478.29,493.37
37.24589,475.39,492.92
37.26633,477.46,495.41
37.28647,476.19,494.27
37.30535,475.19,491.45
37.32570,477.32,494.72
37.34575,474.39,490.47
37.36657,474.80,493.02
37.38620,474.60,493.48
37.40608,475.41,490.81
37.42658,472.54,493.67
37.44674,473.27,493.03
37.46547,475.08,492.14
37.48600,474.68,495.24
37.50656,474.07,494.53
37.52683,473.95,494.57
37.54590,474.30,495.67
37.56638,477.30,495.21
37.58676,473.55,494.28
37.60557,475.14,491.65
37.62681,475.08,491.72
37.64573,471.99,492.47
37.66552,473.94,493.67
37.68547,470.83,493.78
37.70506,471.01,493.59
37.72542,470.85,495.20
37.74706,470.93,496.99
37.76542,469.99,495.47
37.78715,469.97,495.46
37.80742,472.42,495.18
37.82769,470.63,495.86
37.84715,472.47,495.47
37.86596,468.70,492.99
37.88640,469.59,496.86
37.90744,467.97,497.34
37.92862,469.03,494.00
37.94886,466.24,493.80
37.96758,466.12,495.00
37.98822,465.08,494.05
38.00865,467.04,494.19
38.02755,467.15,492.32
38.04776,465.99,496.21
38.06707,463.51,496.30
38.08844,464.54,495.43
38.10736,465.59,492.29
38.12761,464.57,492.09
38.14797,463.26,494.35
38.16804,464.49,493.78
38.18870,462.70,490.70
38.20874,463.64,492.38
38.22776,463.99,493.08
38.24878,463.98,492.81
38.26835,465.09,490.99
38.28835,464.91,492.52
38.30784,464.93,492.56
38.32831,465.44,491.54
38.34849,463.33,495.24
38.36781,462.68,495.47
38.38858,463.58,492.64
38.40877,463.01,493.13
38.42806,461.92,492.67
38.44869,457.94,491.56
38.46900,460.61,490.37
38.48829,461.10,491.79
38.50888,457.21,492.00
38.52979,458.00,491.26
38.54951,458.58,494.28
38.56986,457.34,491.64
38.58809,459.75,491.80
38.60797,461.65,492.28
38.62837,460.70,495.93
38.64984,463.23,493.07
38.66793,461.29,495.57
38.68842,460.71,494.42
38.70833,463.38,493.25
38.72812,461.61,495.67
38.74870,461.08,496.97
38.76804,462.86,496.30
38.78873,459.14,492.38
38.80884,461.10,480.35
38.82913,459.26,470.64
38.84973,452.68,455.75
38.86914,445.71,439.83
38.88824,442.55,429.32
38.90898,437.42,419.58
38.92914,436.50,410.25
38.94868,432.81,404.54
38.96856,434.04,397.80
38.98974,433.16,397.81
39.00980,433.84,397.31
39.02856,436.06,398.75
39.04853,436.57,397.32
39.06801,438.28,396.73
39.08976,443.35,398.15
39.10802,442.76,401.78
39.12952,446.02,404.80
39.14848,448.76,408.07
39.16969,449.83,412.63
39.18941,451.31,418.55
39.20974,454.32,423.64
39.22926,453.71,426.94
39.24901,455.51,434.00
39.26896,454.90,440.27
39.28872,457.08,448.61
39.30835,458.04,451.93
39.32762,456.79,460.21
39.34989,457.43,462.99
39.36817,457.14,467.35
39.38983,459.02,468.45
39.40964,458.28,470.90
39.42800,456.11,472.90
39.44870,455.12,477.93
39.46962,456.32,477.20
39.48955,456.39,481.70
39.50915,454.28,480.59
39.52927,457.02,483.70
39.54791,456.86,483.19
39.56886,455.93,486.25
39.58823,455.53,485.13
39.60818,457.92,485.26
39.62819,456.61,487.03
39.64873,456.69,488.68
39.66904,456.87,489.05
39.68818,457.60,489.01
39.70904,457.89,489.79
39.72819,459.32,490.39
39.74932,456.97,488.76
39.76865,457.46,488.61
39.78970,455.02,490.22
39.80947,452.93,489.48
39.82928,455.38,498.33
39.84929,457.37,512.41
39.86909,457.85,533.78
39.88869,461.84,562.21
39.90934,462.17,591.91
39.92777,464.53,620.60
39.94883,470.69,636.60
39.96913,472.28,651.42
39.98989,474.54,655.86
40.00987,478.54,651.56
40.02939,477.86,642.56
40.04970,478.01,630.08
40.06894,474.77,612.26
40.08834,473.75,595.11
40.10839,472.92,582.22
40.12855,470.98,567.94
40.14963,467.96,553.34
40.16965,469.07,544.57
40.18845,468.87,531.89
40.20946,467.11,525.94
40.22816,466.12,519.32
40.24825,462.76,514.64
40.26863,461.37,507.85
40.28883,461.42,498.56
40.30869,464.99,494.64
40.32980,463.67,491.68
40.34900,464.18,490.62
40.36803,463.46,484.56
40.38884,463.11,484.17
40.40917,461.09,486.33
40.42853,463.29,484.95
40.44912,462.03,483.71
40.46813,459.61,483.59
40.48838,459.75,483.38
40.50972,458.82,485.91
40.52833,459.55,485.35
40.54986,460.89,487.06
40.56972,460.82,486.71
40.58913,458.81,486.84
40.60888,457.49,485.48
40.62860,458.91,487.46
40.64806,458.94,488.90
40.66801,458.27,487.06
40.68966,459.89,487.48
40.70924,458.78,487.13
40.72858,458.95,485.02
40.74971,458.46,485.33
40.76970,458.22,485.22
40.78798,458.70,488.29
40.80889,457.38,485.65
40.82920,458.83,485.88
40.84902,458.14,486.42
40.86882,460.17,485.75
40.88819,459.92,488.07
40.90824,459.33,488.15
40.92920,457.13,486.50
40.94971,458.13,487.12
40.96812,458.75,489.34
40.98815,461.28,488.11
41.00786,459.16,489.61
41.02959,459.26,489.28
41.04914,460.72,491.37
41.06880,459.44,492.97
41.08913,457.33,491.71
41.10826,458.23,492.08
41.12799,460.88,490.27
41.14859,460.67,489.55
41.16943,459.43,493.06
41.18799,459.60,493.53
41.20917,461.00,491.84
41.22954,458.89,490.16
41.24972,458.80,489.17
41.26906,460.99,490.61
41.28828,461.32,489.85
41.30835,462.22,490.33
41.32910,459.53,490.42
41.34928,460.70,493.19
41.36862,461.53,490.84
41.38925,459.62,492.75
41.40792,460.21,494.59
41.42976,459.17,492.24
41.44804,458.84,492.55
41.46893,462.59,493.61
41.48863,462.23,493.01
41.50873,465.38,490.56
41.52764,461.26,492.54
41.54847,460.96,492.33
41.56846,464.01,489.17
41.58788,463.29,492.87
41.60832,460.25,492.85
41.62798,460.18,491.94
41.64918,462.34,489.88
41.66882,460.50,489.10
41.68902,464.29,489.58
41.70874,462.61,490.79
41.72822,461.80,488.77
41.74885,460.29,487.71
41.76938,464.15,488.56
41.78855,463.03,485.38
41.80871,462.27,486.12
41.82954,459.67,487.11
41.84816,459.75,487.91
41.86952,461.88,486.30
41.88894,460.95,487.33
41.90805,463.24,485.59
41.92798,460.88,488.02
41.94900,463.92,485.55
41.96810,465.24,486.20
41.98794,464.65,487.74
42.00890,463.66,490.92
42.02810,464.39,489.76
42.04839,464.70,489.91
42.06961,464.33,489.28
42.08820,460.82,491.81
42.10951,460.69,491.01
42.12783,461.46,490.97
42.14822,465.02,490.65
42.16858,465.41,492.85
42.18960,465.92,490.64
42.20899,465.24,491.41
42.22834,466.61,490.69
42.24822,466.80,490.32
42.26970,467.22,489.10
42.28926,465.89,489.86
42.30820,467.21,490.05
42.32793,466.17,491.85
42.34952,464.41,491.19
42.36990,466.08,491.80
42.38782,462.39,491.16
42.40954,466.10,491.13
42.43003,467.94,494.24
42.44992,467.67,494.74
42.47054,466.47,492.87
42.48956,466.87,495.44
42.51002,467.25,492.76
42.52931,470.21,492.12
42.54905,468.75,493.15
42.56921,469.49,493.74
42.58910,470.34,491.99
42.60987,468.50,494.41
42.62891,465.92,490.64
42.64907,467.19,494.03
42.67050,464.46,491.38
42.69040,464.48,483.08
42.71059,460.02,467.55
42.73031,456.54,452.85
42.74972,454.07,434.60
42.76927,453.30,411.74
42.78976,448.89,397.03
42.81076,447.92,383.72
42.82927,446.60,377.90
42.84934,447.72,373.66
42.87073,449.21,370.27
42.88908,449.73,374.68
42.90955,451.03,377.76
42.92990,457.40,383.90
42.94955,461.43,392.89
42.97037,463.42,400.88
42.98975,462.81,409.41
43.00945,467.48,416.72
43.02996,464.70,426.66
43.05065,467.63,434.63
43.06931,468.34,440.29
43.08948,466.53,447.86
43.10946,466.74,452.22
43.13068,465.34,455.05
43.14889,463.44,461.01
43.16916,467.59,464.63
43.18883,466.30,467.30
43.20896,466.64,472.49
43.22961,467.53,473.55
43.25043,468.16,476.77
43.27086,470.97,478.55
43.28989,470.72,480.70
43.31083,472.81,485.12
43.33169,472.41,488.16
43.35023,472.36,492.50
43.37026,472.22,494.95
43.39136,470.66,492.87
43.41066,472.46,496.72
43.43146,470.41,500.43
43.45081,474.04,512.46
43.47032,477.25,541.09
43.49026,480.51,572.57
43.51126,480.77,604.91
43.53036,483.50,625.36
43.55125,488.81,647.46
43.57177,495.39,658.22
43.59079,498.26,655.70
43.61070,497.49,651.02
43.63015,497.85,636.18
43.64990,496.46,616.83
43.67047,493.45,598.74
43.69093,495.40,584.52
43.70997,493.19,571.86
43.73003,489.79,558.27
43.75195,487.36,546.64
43.77021,487.80,537.49
43.79174,488.38,528.48
43.81022,485.71,521.93
43.83034,483.59,518.62
43.85022,483.35,514.36
43.86993,482.49,508.02
43.89022,481.13,507.24
43.91148,482.11,505.20
43.93004,481.48,503.34
43.95061,482.14,502.01
43.97151,483.44,501.48
43.99089,481.59,498.28
44.01056,482.93,497.71
44.03059,480.64,499.26
44.05038,478.67,498.23
44.06988,480.37,497.99
44.09054,479.00,498.91
44.11138,478.75,496.50
44.13094,479.59,497.59
44.15109,476.78,498.66
44.17036,478.06,499.04
44.19142,477.11,499.86
44.21021,477.23,497.35
44.23158,480.86,498.08
44.25003,480.80,498.83
44.27041,479.11,498.59
44.29174,479.79,497.02
44.30991,478.74,496.23
44.33088,477.15,495.83
44.35036,476.30,498.57
44.37029,480.00,497.08
44.39112,478.25,496.96
44.41082,479.90,498.80
44.43172,479.54,498.61
44.45044,479.13,497.57
44.47050,479.34,499.21
44.49151,478.16,497.53
44.51003,478.15,497.58
44.53132,479.28,498.54
44.54993,479.13,500.08
44.57076,478.61,497.60
44.58994,480.08,497.60
44.61056,479.88,499.91
44.63095,480.95,498.88
44.65057,479.82,498.19
44.67238,480.91,499.16
44.69112,481.74,497.57
44.71129,479.63,496.71
44.73143,480.62,497.71
44.75100,477.22,497.21
44.77233,478.70,497.56
44.79197,477.52,496.81
44.81105,479.21,495.67
44.83191,477.11,497.77
44.85231,481.00,496.66
44.87202,477.58,498.25
44.89088,479.20,497.94
44.91094,476.78,498.15
44.93219,479.46,498.63
44.95132,477.08,498.34
44.97141,479.42,499.45
44.99106,478.48,496.07
45.01162,477.57,499.85
45.03100,479.76,496.78
45.05201,478.28,497.39
45.07366,477.47,495.75
45.09325,474.86,496.98
45.11221,477.69,498.01
45.13370,477.51,496.63
45.15297,475.23,498.33
45.17181,475.45,498.36
45.19366,476.46,497.77
45.21317,472.91,497.83
45.23222,473.80,499.20
45.25328,473.51,499.01
45.27358,476.84,497.11
45.29181,475.23,499.98
45.31380,477.13,499.84
45.33193,478.17,499.72
45.35344,474.57,498.44
45.37316,476.02,497.51
45.39266,477.11,498.14
45.41332,476.27,499.14
45.43378,475.87,500.08
45.45313,477.42,500.39
45.47177,477.09,498.87
45.49227,477.78,500.05
45.51338,476.42,499.03
45.53281,474.95,499.66
45.55356,476.58,500.42
45.57220,473.27,499.72
45.59187,475.94,497.90
45.61188,474.62,496.93
45.63296,474.03,497.40
45.65341,477.13,495.81
45.67224,476.13,496.02
45.69318,475.83,498.34
45.71248,476.05,495.74
45.73379,473.24,494.23
45.75286,476.68,494.08
45.77233,475.86,494.56
45.79387,475.75,494.92
45.81322,476.19,497.85
45.83251,474.44,497.27
45.85236,474.16,498.51
45.87272,475.65,494.70
45.89332,472.79,498.23
45.91254,473.10,495.84
45.93194,475.43,494.29
45.95234,476.73,494.77
45.97360,476.65,497.42
45.99260,473.15,495.75
46.01255,475.94,495.72
46.03305,473.86,499.17
46.05347,472.10,498.50
46.07360,474.52,498.60
46.09239,474.57,500.14
46.11275,473.82,498.79
46.13274,473.21,497.98
46.15348,477.45,494.84
46.17342,475.35,497.12
46.19312,474.96,497.18
46.21164,474.17,495.26
46.23314,472.99,493.27
46.25191,475.19,493.18
46.27191,476.37,494.49
46.29196,475.64,495.04
46.31273,473.20,495.00
46.33343,475.67,495.85
46.35199,473.71,494.45
46.37242,476.14,496.44
46.39357,475.91,496.60
46.41285,474.10,498.56
46.43218,472.68,499.11
46.45221,472.95,498.37
46.47212,472.32,498.18
46.49319,472.73,495.85
46.51265,471.94,496.00
46.53181,469.46,496.70
46.55243,470.79,497.67
46.57342,470.34,494.52
46.59210,469.73,497.94
46.61248,471.14,497.37
46.63297,471.85,495.55
46.65313,472.25,496.54
46.67277,472.70,494.89
46.69361,472.96,495.06
46.71242,471.64,493.75
46.73187,474.13,497.00
46.75159,472.36,496.37
46.77325,473.21,495.72
46.79233,474.60,498.89
46.81287,472.58,494.81
46.83301,471.56,482.16
46.85347,468.48,470.98
46.87325,464.80,460.87
46.89194,464.17,445.22
46.91167,461.67,432.30
46.93297,458.98,421.62
46.95374,456.84,409.00
46.97305,456.97,402.38
46.99353,459.32,397.74
47.01379,458.41,393.37
47.03188,456.10,389.39
47.05338,454.68,392.64
47.07330,455.54,390.53
47.09293,459.38,396.07
47.11471,455.74,400.46
47.13435,457.39,402.52
47.15493,455.97,409.53
47.17409,458.17,415.27
47.19523,457.72,425.31
47.21549,456.58,429.49
47.23543,459.86,438.54
47.25389,457.97,444.59
47.27607,460.92,449.55
47.29667,456.34,456.08
47.31675,457.41,458.60
47.33610,458.65,463.07
47.35612,459.14,467.96
47.37600,458.89,472.17
47.39604,457.89,471.83
47.41483,459.17,476.25
47.43487,458.36,477.97
47.45514,461.68,481.61
47.47639,459.20,483.90
47.49495,461.65,498.52
47.51653,461.64,522.75
47.53613,467.51,555.46
47.55641,470.92,588.93
47.57575,471.02,625.39
47.59559,474.27,646.83
47.61644,474.86,663.58
47.63579,476.06,666.60
47.65634,475.55,664.46
47.67565,473.08,653.82
47.69524,473.83,637.91
47.71485,471.28,620.53
47.73540,470.02,601.87
47.75506,470.07,582.53
47.77655,467.18,561.51
47.79565,464.32,547.72
47.81758,462.06,536.64
47.83605,463.76,525.47
47.85569,458.79,517.67
47.87733,461.97,509.14
47.89590,459.03,504.52
47.91576,459.42,499.82
47.93588,458.64,494.55
47.95672,460.84,492.00
47.97653,458.76,488.48
47.99621,458.48,489.37
48.01599,459.35,486.49
48.03749,462.71,488.12
48.05689,461.14,486.65
48.07666,460.23,485.06
48.09707,459.69,486.98
48.11737,461.79,484.85
48.13805,462.72,488.37
48.15823,460.77,485.81
48.17797,459.96,486.74
48.19740,461.80,485.41
48.21751,462.35,488.60
48.23798,460.17,488.24
48.25676,461.95,486.31
48.27838,462.33,486.83
48.29739,462.98,486.65
48.31736,463.48,485.50
48.33852,461.00,489.24
48.35830,460.35,488.43
48.37766,461.78,486.03
48.39797,462.80,486.66
48.41755,460.94,488.00
48.43728,462.29,490.47
48.45739,460.75,490.93
48.47733,463.03,492.31
48.49699,461.73,489.65
48.51718,463.47,490.41
48.53696,463.57,492.77
48.55789,462.88,489.39
48.57744,464.65,490.20
48.59750,462.44,487.19
48.61685,459.82,487.06
48.63680,460.42,488.75
48.65685,462.55,488.17
48.67678,460.82,489.74
48.69809,462.20,492.23
48.71702,460.84,489.91
48.73708,461.12,492.05
48.75686,457.21,490.48
48.77743,457.89,493.21
48.79843,460.48,493.30
48.81782,458.99,492.26
48.83721,462.14,493.46
48.85675,462.44,491.52
48.87704,461.11,493.21
48.89858,462.66,490.62
48.91804,464.13,489.63
48.93745,461.60,491.05
48.95706,460.75,489.63
48.97691,463.31,489.02
48.99752,461.46,490.80
49.01824,463.87,487.36
49.03843,463.49,490.74
49.05846,463.59,491.12
49.07757,462.07,491.16
49.09715,461.58,487.78
49.11859,459.31,487.80
49.13840,460.53,490.27
49.15723,461.22,487.38
49.17736,463.68,489.07
49.19745,461.60,489.03
49.21755,463.18,487.51
49.23718,461.96,489.44
49.25801,463.23,489.02
49.27783,461.99,491.32
49.29823,461.98,488.62
49.31733,463.54,490.42
49.33750,464.20,490.19
49.35812,464.68,490.10
49.37704,464.64,488.73
49.39836,462.81,490.60
49.41745,463.46,490.18
49.43660,462.67,489.38
49.45810,463.99,491.69
49.47818,460.97,490.26
49.49758,464.53,491.56
49.51680,462.31,489.75
49.53752,461.48,490.34
49.55667,464.08,491.30
49.57759,461.71,493.50
49.59801,462.62,491.74
49.61925,461.73,490.98
49.63932,463.18,491.31
49.65798,462.19,490.97
49.67796,465.25,492.78
49.69848,464.91,490.94
49.71917,461.91,491.23
49.74066,462.88,492.24
49.75879,464.29,491.88
49.77885,463.83,492.20
49.79965,465.31,494.53
49.81932,467.59,493.97
49.83863,466.40,492.28
49.85906,468.78,491.47
49.88015,467.67,493.39
49.89961,467.84,494.01
49.91980,469.90,493.01
49.93979,467.13,492.39
49.95926,470.31,492.44
49.97873,468.35,491.42
49.99986,470.49,492.50
50.02022,470.49,492.21
50.03902,469.58,492.71
50.06047,468.15,490.84
50.07922,470.08,491.81
50.09926,469.70,493.95
50.11988,470.38,493.27
50.14106,472.84,491.00
50.16075,472.18,491.12
50.18077,472.69,490.35
50.19990,472.75,491.93
50.21973,473.35,493.28
50.23962,473.94,491.00
50.25959,473.08,493.22
50.28135,474.70,493.13
50.30168,473.71,491.80
50.32120,473.07,491.94
50.34038,473.20,493.80
50.36085,473.13,491.89
50.38119,474.33,493.32
50.40064,474.33,491.69
50.42133,474.74,492.10
50.44079,475.63,492.86
50.46088,477.78,495.88
50.48099,476.11,494.73
50.50006,478.15,499.53
50.52019,476.69,496.73
50.54135,474.97,489.78
50.56134,474.21,478.38
50.58137,470.46,460.13
50.60022,470.39,442.12
50.61970,465.30,425.47
50.64111,465.13,408.88
50.66024,464.36,397.88
50.67950,463.35,385.42
50.70102,462.51,380.48
50.72003,462.60,378.93
50.73997,463.81,375.62
50.76058,464.48,377.55
50.78066,464.48,382.13
50.80147,465.51,390.00
50.82067,465.33,396.87
50.84047,465.69,402.44
50.86134,468.61,413.25
50.88078,467.41,423.15
50.90041,466.83,432.14
50.92022,470.07,440.21
50.94029,473.35,446.47
50.96050,474.89,454.68
50.98153,472.61,461.96
50.99987,473.05,463.42
51.01965,473.54,470.86
51.03993,472.76,472.89
51.06010,473.19,476.67
51.08095,475.64,479.12
51.10155,474.14,479.56
51.11967,476.46,480.48
51.14022,475.57,485.54
51.15963,476.85,486.71
51.18151,475.04,487.28
51.20003,473.65,486.39
51.21985,473.84,486.72
51.24000,475.70,487.52
51.26050,476.18,488.30
51.28053,475.31,498.33
51.30128,478.85,512.29
51.32015,478.39,534.19
51.34167,481.89,556.98
51.36111,481.65,583.19
51.38105,485.68,604.84
51.40088,486.12,623.48
51.42264,487.39,635.81
51.44296,493.18,640.54
51.46216,493.02,639.16
51.48425,491.66,630.05
51.50377,493.56,616.36
51.52407,494.82,600.79
51.54402,491.12,584.96
51.56450,490.53,574.67
51.58514,488.69,560.01
51.60415,483.02,549.97
51.62384,482.17,543.15
51.64409,481.09,533.09
51.66458,482.01,528.58
51.68443,480.19,526.06
51.70590,479.27,522.17
51.72616,476.41,515.13
51.74512,478.75,512.37
51.76623,476.13,511.04
51.78467,475.07,507.00
51.80525,473.86,506.95
51.82521,475.25,505.42
51.84567,474.79,501.47
51.86648,474.08,499.98
51.88655,474.24,500.56
51.90647,471.36,498.58
51.92472,472.94,497.55
51.94623,473.46,497.90
51.96516,471.56,494.51
51.98485,470.80,493.99
52.00468,473.90,491.20
52.02559,474.77,491.81
52.04637,473.97,490.16
52.06548,470.49,490.42
52.08681,471.29,490.04
52.10712,468.87,488.86
52.12584,466.97,493.17
52.14587,468.38,489.94
52.16600,465.35,492.30
52.18562,463.55,490.23
52.20713,463.19,493.20
52.22610,465.08,490.85
52.24582,466.48,490.61
52.26610,463.82,490.57
52.28654,465.51,493.64
52.30646,463.46,494.06
52.32719,462.41,492.35
52.34625,462.55,493.12
52.36705,463.76,494.30
52.38578,464.30,494.80
52.40747,465.85,494.32
52.42702,466.22,491.53
52.44642,464.95,492.56
52.46672,461.06,493.80
52.48836,462.31,490.23
52.50714,461.87,490.65
52.52754,461.08,492.09
52.54882,460.90,490.75
52.57017,460.66,490.32
52.58919,460.76,488.31
52.60921,458.68,491.32
52.62900,459.33,491.63
52.64999,458.50,489.01
52.66971,457.82,490.16
52.68944,458.45,487.87
52.70913,457.59,489.32
52.72923,458.49,488.92
52.74993,457.28,490.98
52.76916,460.35,491.38
52.78872,460.86,490.95
52.80857,460.34,491.43
52.83024,459.68,489.05
52.85016,460.02,488.43
52.86834,457.12,490.46
52.89030,459.55,488.56
52.90990,456.88,489.18
52.92861,457.07,490.06
52.94859,459.75,488.73
52.97033,457.29,488.91
52.98918,457.01,487.64
53.00985,460.74,487.43
53.03000,460.14,488.31
53.04978,461.89,490.48
53.07124,461.46,487.91
53.08997,461.85,490.84
53.11077,460.65,487.45
53.12954,462.12,489.33
53.15024,459.39,488.91
53.16977,461.85,489.65
53.19168,462.95,486.57
53.21226,462.16,487.05
53.23316,462.07,488.95
53.25320,465.53,487.67
53.27343,465.50,490.36
53.29293,462.31,489.34
53.31147,465.12,488.67
53.33341,461.17,488.04
53.35323,465.21,489.48
53.37295,463.90,488.74
53.39244,466.56,488.52
53.41279,465.72,488.58
53.43428,467.22,487.53
53.45288,464.83,486.94
53.47287,468.21,489.03
53.49440,466.40,489.74
53.51332,466.05,488.91
53.53411,464.40,488.59
53.55290,465.94,492.29
53.57449,466.41,491.83
53.59409,466.94,491.17
53.61354,469.18,489.97
53.63378,467.20,491.75
53.65403,471.08,491.02
53.67400,471.12,493.56
53.69517,470.27,493.69
53.71377,471.99,491.24
53.73527,469.84,491.66
53.75523,473.04,492.85
53.77368,471.56,491.26
53.79395,473.76,489.92
53.81534,471.01,493.18
53.83366,471.81,493.73
53.85397,472.71,490.43
53.87467,471.13,492.36
53.89421,470.61,492.46
53.91355,472.18,492.85
53.93531,475.85,492.88
53.95462,471.72,492.21
53.97437,475.22,492.56
53.99439,476.99,492.90
54.01464,475.71,494.59
54.03444,472.45,491.51
54.05420,476.01,493.77
54.07513,473.52,492.37
54.09499,474.98,493.00
54.11496,473.69,491.31
54.13440,475.02,494.41
54.15368,473.77,491.56
54.17533,476.27,492.37
54.19401,472.78,489.97
54.21543,472.24,489.87
54.23469,475.34,490.19
54.25508,474.60,491.13
54.27437,472.69,491.34
54.29495,471.95,491.90
54.31409,473.98,493.29
54.33453,472.05,499.25
54.35390,474.96,499.02
54.37501,475.49,492.54
54.39397,479.88,480.95
54.41353,480.66,462.23
54.43475,475.01,441.16
54.45458,475.67,414.52
54.47495,472.17,396.87
54.49600,467.79,382.60
54.51559,463.47,371.30
54.53478,465.44,365.61
54.55561,463.87,367.00
54.57652,462.23,369.52
54.59766,463.75,378.66
54.61801,466.11,386.56
54.63926,464.40,396.62
54.65756,466.29,407.86
54.67788,467.98,418.40
54.69770,469.53,433.27
54.71887,477.66,464.76
54.73799,482.67,506.29
54.75832,487.99,558.89
54.77847,493.35,606.30
54.79897,494.43,633.06
54.81781,490.52,637.11
54.83797,488.81,627.14
54.85780,486.16,611.93
54.87907,485.02,598.08
54.89923,482.73,577.99
54.91931,481.06,561.60
54.93772,480.35,548.76
54.95790,479.15,534.70
54.97924,477.91,525.73
54.99769,476.05,514.62
55.01834,474.72,509.30
55.03808,473.71,503.44
55.05841,473.07,501.89
55.07775,474.01,499.23
55.09813,475.69,498.40
55.11846,476.27,497.85
55.13777,474.73,498.20
55.15779,472.31,497.75
55.17742,472.96,499.05
55.19754,473.01,507.56
55.21853,476.86,518.81
55.23839,474.79,546.78
55.25829,479.54,568.55
55.27822,481.69,579.01
55.29931,481.44,564.83
55.31889,476.72,547.33
55.33796,476.47,529.00
55.35806,478.03,510.23
55.37846,476.37,497.68
55.39883,475.69,503.42
55.41871,475.55,520.87
55.43786,479.90,549.66
55.45823,480.93,571.26
55.47758,483.87,572.02
55.49745,481.86,560.53
55.51929,481.64,542.20
55.53756,478.71,525.12
55.55905,474.57,511.46
55.57857,474.23,500.31
55.59911,474.62,487.76
55.61812,474.41,480.31
55.63808,474.48,478.94
55.65824,476.18,484.62
55.67796,477.96,502.02
55.69871,478.41,535.20
55.71906,480.99,554.83
55.73807,483.07,558.37
55.75908,480.86,548.18
55.77924,483.43,536.49
55.79758,482.75,520.53
55.81840,481.62,507.62
55.83849,479.33,498.06
55.85755,479.57,490.56
55.87899,475.19,479.53
55.89813,477.24,476.30
55.91851,474.31,469.80
55.93922,472.86,468.58
55.95761,474.39,471.44
55.97825,473.37,474.24
55.99800,474.74,475.81
56.01787,472.61,477.53
56.03769,469.50,482.41
56.05816,469.34,481.61
56.07892,473.74,482.47
56.09832,473.06,488.61
56.11829,467.79,489.27
56.13749,466.84,489.13
56.15929,464.47,485.50
56.17777,466.06,486.06
56.19796,461.31,486.01
56.21900,466.33,487.15
56.23855,463.46,482.52
56.25756,462.52,488.00
56.27830,462.88,489.88
56.29880,465.12,487.89
56.31780,466.29,490.37
56.33843,467.77,488.54
56.35873,464.45,488.21
56.37859,470.73,493.76
56.39841,469.57,495.70
56.41772,467.75,495.50
56.43935,471.52,494.88
56.45907,468.14,491.95
56.47924,469.82,492.43
56.49830,471.08,493.45
56.51930,463.30,493.06
56.53887,463.14,494.53
56.55876,465.37,492.10
56.57882,468.83,493.77
56.59818,471.99,491.62
56.61841,469.68,494.59
56.63760,468.66,492.88
56.65994,470.21,491.95
56.67900,467.05,495.67
56.70037,464.49,497.46
56.71918,463.57,494.95
56.74029,463.86,495.08
56.75917,464.61,496.20
56.78040,464.08,492.59
56.80172,458.52,491.20
56.82101,460.97,492.19
56.84343,462.17,488.64
56.86218,461.14,490.01
56.88355,462.88,491.63
56.90240,466.15,489.11
56.92163,467.58,490.07
56.94151,466.28,489.89
56.96303,470.20,489.77
56.98150,470.47,489.98
57.00181,472.70,493.66
57.02197,472.12,489.62
57.04238,472.45,486.51
57.06323,476.26,489.12
