Program Time [s],data 0,data 1
69.96078,534.78,576.75
69.97972,536.32,574.54
69.99980,534.49,576.43
70.02013,540.15,577.78
70.04062,540.99,577.20
70.06097,543.55,578.61
70.07942,540.29,579.61
70.09985,542.05,579.23
70.12019,544.66,575.96
70.13977,543.78,576.32
70.15980,543.51,577.11
70.18081,545.58,575.45
70.20069,542.44,577.40
70.21912,542.39,577.16
70.23979,543.17,576.99
70.25972,546.21,574.62
70.28110,545.88,576.68
70.30003,547.46,579.51
70.31954,547.08,576.00
70.34011,547.99,575.78
70.36019,545.11,575.57
70.38017,542.73,575.89
70.39945,545.28,577.13
70.42025,543.79,574.48
70.44025,545.21,575.23
70.46007,546.88,577.57
70.47965,545.15,578.56
70.49909,547.52,575.30
70.52025,546.35,576.29
70.54099,546.43,575.73
70.56066,545.86,578.29
70.58075,548.43,576.43
70.59981,544.39,576.84
70.62077,547.23,578.16
70.63994,544.74,574.58
70.66002,548.05,579.18
70.67981,548.67,579.68
70.69970,548.65,579.29
70.71934,547.08,578.77
70.74099,545.56,577.17
70.76070,547.94,578.36
70.78084,547.50,577.12
70.80003,547.71,578.06
70.82032,545.20,577.07
70.84018,544.05,577.59
70.86044,546.09,579.79
70.87927,542.43,579.52
70.90044,545.22,577.18
70.92094,541.43,577.80
70.94092,542.65,577.66
70.95979,541.08,577.21
70.97966,541.30,579.87
71.00086,542.15,578.32
71.02009,540.27,580.80
71.03979,543.00,577.55
71.06091,543.76,576.48
71.08090,541.73,576.89
71.10052,541.67,578.85
71.11998,539.66,577.12
71.13929,540.01,577.35
71.16087,542.85,577.66
71.18094,543.18,579.27
71.19936,542.00,577.31
71.21928,542.26,577.73
71.23937,543.09,580.17
71.25978,543.51,579.09
71.28094,541.95,577.62
71.29943,543.40,579.95
71.32036,541.76,579.85
71.33938,542.31,579.18
71.35966,542.07,575.98
71.38009,543.53,577.37
71.39968,541.97,577.60
71.42065,539.72,575.43
71.43935,542.31,575.58
71.45981,539.91,579.21
71.47957,540.47,580.06
71.50003,541.09,573.13
71.52145,541.76,560.39
71.54241,539.93,536.75
71.56278,535.85,514.19
71.58219,533.31,491.80
71.60322,526.30,469.32
71.62285,523.15,452.22
71.64212,519.14,436.46
71.66325,515.21,425.90
71.68296,517.27,419.99
71.70353,517.68,418.14
71.72222,521.34,421.39
71.74203,519.44,426.96
71.76341,519.68,436.23
71.78396,522.54,445.21
71.80340,520.81,456.15
71.82326,523.96,467.35
71.84424,524.40,483.12
71.86329,525.63,490.76
71.88342,524.49,502.56
71.90479,524.92,510.65
71.92485,525.70,520.53
71.94301,525.85,526.79
71.96364,526.47,531.89
71.98457,526.74,537.77
72.00429,526.39,542.93
72.02488,528.86,548.25
72.04440,529.46,550.47
72.06505,528.63,552.67
72.08459,528.99,554.88
72.10347,525.31,558.09
72.12334,526.86,559.57
72.14476,528.99,562.46
72.16401,526.36,563.05
72.18368,528.39,563.46
72.20380,526.61,565.22
72.22492,524.80,566.76
72.24319,525.76,568.67
72.26387,530.02,568.28
72.28313,533.08,584.78
72.30465,534.88,614.71
72.32357,537.15,655.02
72.34355,539.15,691.67
72.36354,544.25,720.62
72.38381,545.11,743.11
72.40486,551.95,757.95
72.42426,553.21,756.12
72.44384,556.71,745.31
72.46462,554.01,726.86
72.48399,552.46,710.34
72.50482,549.07,691.24
72.52412,549.90,677.09
72.54456,548.43,663.26
72.56382,548.76,648.72
72.58415,543.36,640.19
72.60417,541.71,630.12
72.62388,537.59,622.90
72.64393,536.01,613.77
72.66353,536.09,608.32
72.68359,534.32,604.24
72.70405,533.81,598.70
72.72466,530.86,594.75
72.74480,531.21,591.71
72.76320,531.38,590.38
72.78385,530.24,589.85
72.80491,531.35,586.07
72.82400,531.46,582.25
72.84417,532.19,580.74
72.86455,531.63,582.71
72.88416,529.90,578.15
72.90402,530.57,579.94
72.92473,531.25,579.30
72.94387,529.65,577.07
72.96354,529.59,575.54
72.98436,531.22,577.64
73.00314,528.60,574.23
73.02314,531.50,576.19
73.04324,533.66,572.22
73.06323,530.09,573.46
73.08433,529.77,575.38
73.10421,526.55,571.98
73.12506,525.32,573.02
73.14373,526.26,574.97
73.16442,526.19,576.20
73.18368,529.74,573.57
73.20338,529.16,572.85
73.22476,527.27,576.31
73.24422,530.00,573.73
73.26401,532.25,572.65
73.28383,529.92,575.14
73.30370,530.63,576.26
73.32334,532.23,577.18
73.34335,532.76,576.87
73.36480,535.17,576.56
73.38364,532.28,574.79
73.40470,533.71,573.15
73.42410,532.13,573.31
73.44444,531.76,573.83
73.46476,529.94,571.02
73.48478,529.74,572.78
73.50362,527.68,572.62
73.52475,531.36,573.77
73.54354,529.51,573.38
73.56365,530.52,571.18
73.58308,531.24,572.15
73.60356,530.82,569.76
73.62475,529.59,573.06
73.64353,528.83,573.86
73.66321,527.14,573.05
73.68524,528.25,569.58
73.70540,524.70,571.46
73.72505,523.75,571.68
73.74415,522.57,569.73
73.76525,523.17,568.15
73.78577,521.26,568.16
73.80593,521.75,570.31
73.82488,519.79,570.36
73.84446,516.82,570.01
73.86558,521.37,570.96
73.88500,522.99,570.99
73.90526,524.45,571.80
73.92570,526.73,572.00
73.94517,527.25,571.83
73.96697,527.37,567.86
73.98622,529.42,567.65
74.00619,529.64,567.73
74.02616,526.38,567.58
74.04804,527.00,566.38
74.06779,526.05,565.69
74.08665,527.26,565.08
74.10690,525.28,566.14
74.12763,525.27,565.97
74.14660,525.85,563.68
74.16635,525.78,564.81
74.18611,523.97,565.36
74.20603,523.24,565.32
74.22778,525.63,567.32
74.24618,525.23,566.41
74.26714,524.36,567.13
74.28697,526.55,566.64
74.30804,527.86,567.02
74.32611,527.66,567.03
74.34750,524.26,565.26
74.36748,525.16,569.56
74.38701,527.40,567.06
74.40824,525.85,567.20
74.42831,524.04,568.56
74.44745,522.45,568.10
74.46866,520.65,567.46
74.48853,522.48,565.45
74.50856,521.93,568.19
74.52805,524.30,568.81
74.54701,525.14,566.44
74.56761,523.23,567.86
74.58701,523.06,568.31
74.60775,525.27,566.69
74.62899,525.35,566.53
74.64966,526.06,568.47
74.66945,524.23,569.36
74.69003,526.90,569.06
74.70977,527.98,569.14
74.73053,526.12,569.73
74.74984,528.82,566.70
74.77014,530.54,567.98
74.79194,528.41,565.59
74.81094,526.77,564.94
74.83146,526.73,568.11
74.85015,525.29,566.41
74.87173,525.59,564.78
74.89067,527.23,564.56
74.91087,525.89,562.89
74.93142,526.61,564.65
74.95122,524.49,563.27
74.97045,526.46,563.97
74.99112,525.51,563.84
75.01079,526.12,562.20
75.03019,525.99,561.45
75.05114,525.19,560.07
75.07292,526.81,560.86
75.09362,530.02,562.32
75.11269,529.30,560.33
75.13324,528.41,561.20
75.15353,529.42,561.94
75.17279,532.18,564.83
75.19354,530.62,559.47
75.21387,532.21,554.33
75.23370,531.81,543.84
75.25245,532.02,526.82
75.27313,530.08,511.52
75.29371,528.41,495.58
75.31363,523.69,477.49
75.33482,522.01,465.78
75.35433,517.80,455.83
75.37449,518.12,444.89
75.39410,518.83,439.03
75.41339,519.50,431.74
75.43479,519.67,435.77
75.45320,519.68,438.82
75.47358,521.68,444.27
75.49487,525.61,447.63
75.51415,526.74,457.09
75.53439,529.47,461.97
75.55458,529.76,474.63
75.57440,531.42,482.23
75.59498,530.60,490.05
75.61481,531.79,498.10
75.63496,536.54,504.57
75.65342,535.47,513.07
75.67363,534.41,520.20
75.69477,536.89,528.38
75.71311,534.51,534.67
75.73402,535.32,539.29
75.75403,536.87,543.76
75.77421,536.09,550.34
75.79303,539.89,580.43
75.81349,542.55,619.74
75.83421,496.46,668.79
75.85334,510.18,711.27
75.87405,522.31,745.97
75.89406,528.74,764.96
75.91392,531.77,764.94
75.93320,535.61,754.14
75.95338,539.92,738.50
75.97361,540.45,722.62
75.99464,541.62,701.82
76.01453,541.90,685.09
76.03487,543.99,668.12
76.05370,544.32,656.61
76.07480,539.96,645.67
76.09477,540.72,632.92
76.11457,541.36,626.06
76.13478,539.24,619.65
76.15483,536.90,611.12
76.17333,538.75,605.87
76.19497,539.37,598.17
76.21363,538.97,596.58
76.23305,535.49,595.27
76.25315,537.48,588.95
76.27353,537.85,587.84
76.29370,533.80,585.33
76.31421,533.40,582.70
76.33493,530.52,583.63
76.35368,530.45,578.77
76.37455,531.34,579.83
76.39400,530.33,577.06
76.41455,533.11,574.63
76.43329,532.58,574.78
76.45348,533.65,573.29
76.47378,532.04,571.73
76.49336,533.69,575.27
76.51425,537.53,575.99
76.53567,538.03,575.42
76.55654,534.37,576.51
76.57690,536.27,575.23
76.59532,537.62,575.93
76.61686,539.49,573.21
76.63555,538.40,573.17
76.65556,535.81,575.13
76.67579,537.89,573.24
76.69500,543.31,572.24
76.71598,542.49,570.14
76.73693,539.74,573.54
76.75615,540.78,570.43
76.77548,542.03,572.18
76.79664,543.70,572.99
76.81581,543.50,571.35
76.83679,543.99,574.05
76.85701,542.87,573.01
76.87506,541.80,572.70
76.89542,543.49,570.23
76.91596,540.63,572.65
76.93536,542.66,571.07
76.95638,540.52,569.99
76.97628,543.44,571.12
76.99671,545.74,570.91
77.01743,543.05,573.29
77.03697,546.24,572.55
77.05750,546.23,574.11
77.07771,544.75,575.98
77.09726,544.49,574.03
77.11653,544.26,574.10
77.13657,547.13,572.93
77.15660,546.63,572.01
77.17653,546.56,573.04
77.19667,545.12,571.81
77.21716,542.88,572.23
77.23644,545.39,572.92
77.25760,542.20,572.44
77.27741,542.43,571.49
77.29738,544.72,572.80
77.31623,541.01,572.97
77.33653,542.40,573.10
77.35797,540.85,570.96
77.37763,544.03,572.41
77.39750,542.28,572.56
77.41732,543.13,570.16
77.43606,540.09,572.61
77.45635,541.68,571.76
77.47749,540.32,572.59
77.49721,542.10,570.03
77.51622,542.12,571.67
77.53730,539.28,571.52
77.55765,539.78,572.69
77.57709,542.20,574.23
77.59734,543.53,573.95
77.61622,542.30,569.92
77.63701,541.62,571.74
77.65718,543.16,572.27
77.67655,543.16,570.37
77.69639,544.63,570.89
77.71648,544.42,572.88
77.73627,544.49,572.64
77.75722,544.66,570.73
77.77660,542.69,573.15
77.79760,544.23,572.29
77.81654,544.70,572.01
77.83641,542.59,569.79
77.85652,542.13,571.20
77.87806,544.85,569.63
77.89761,546.04,573.51
77.91686,543.84,570.58
77.93652,545.85,570.93
77.95789,542.54,570.83
77.97743,544.68,571.24
77.99646,541.51,571.84
78.01756,542.16,570.21
78.03697,541.63,568.62
78.05699,545.28,568.60
78.07619,541.40,567.51
78.09683,543.57,569.00
78.11652,543.41,569.36
78.13747,540.95,567.44
78.15769,540.52,569.42
78.17740,541.01,567.83
78.19747,542.86,566.49
78.21759,541.84,567.87
78.23630,543.95,568.76
78.25699,543.62,568.86
78.27608,542.47,567.45
78.29749,540.30,569.66
78.31612,540.98,569.47
78.33644,541.37,569.94
78.35688,540.73,569.62
78.37793,543.01,570.18
78.39742,540.93,567.77
78.41799,543.26,568.31
78.43652,541.08,568.07
78.45593,542.83,570.75
78.47734,541.36,568.79
78.49636,539.34,571.91
78.51601,541.83,569.50
78.53718,541.33,572.03
78.55651,541.49,573.10
78.57696,539.28,571.41
78.59617,541.02,573.42
78.61717,542.81,569.16
78.63768,538.94,567.63
78.65628,539.20,569.80
78.67695,535.53,568.86
78.69739,537.13,568.71
78.71656,539.72,568.10
78.73746,538.94,571.06
78.75745,538.10,571.44
78.77602,537.63,571.90
78.79731,538.38,571.51
78.81641,540.23,571.16
78.83776,539.09,572.58
78.85704,542.64,570.24
78.87677,543.01,574.25
78.89629,540.19,571.45
78.91717,541.48,571.15
78.93778,542.08,570.05
78.95784,542.02,572.57
78.97625,544.26,569.82
78.99741,541.67,569.63
79.01631,540.50,569.14
79.03703,542.10,569.68
79.05655,541.81,570.86
79.07738,541.25,571.55
79.09615,543.16,567.94
79.11760,533.82,570.14
79.13798,535.91,567.92
79.15730,537.34,569.86
79.17724,539.92,568.19
79.19712,540.43,566.79
79.21754,542.40,568.21
79.23706,545.39,570.19
79.25675,545.66,569.27
79.27595,542.74,563.48
79.29768,545.37,549.73
79.31784,543.87,532.29
79.33686,542.73,512.84
79.35666,544.54,490.56
79.37732,543.00,471.69
79.39765,539.90,457.07
79.41746,537.97,444.17
79.43711,535.89,433.07
79.45686,538.47,425.75
79.47668,535.92,422.47
79.49639,534.50,422.25
79.51780,535.54,424.51
79.53782,537.41,433.69
79.55667,538.45,437.85
79.57694,536.40,447.43
79.59603,536.51,459.04
79.61635,537.91,467.42
79.63722,540.00,478.34
79.65837,539.70,487.16
79.67784,541.90,499.35
79.69859,540.69,507.85
79.71939,543.31,517.56
79.73878,542.16,524.30
79.75858,544.28,533.86
79.77835,541.27,539.35
79.79938,543.73,543.78
79.81885,543.85,547.98
79.83807,539.70,552.39
79.85836,541.59,555.24
79.87815,540.15,572.74
79.89911,545.94,605.22
79.91966,544.73,644.75
79.93964,545.64,689.72
79.95903,547.58,726.24
79.97943,548.65,752.01
79.99906,549.79,769.03
80.01881,549.64,775.71
80.03845,552.06,772.90
80.05809,551.14,753.79
80.07958,549.53,736.76
80.09963,548.99,714.45
80.11873,545.54,692.23
80.14438,544.15,672.35
80.15828,543.66,655.80
80.17984,547.14,642.12
80.19987,543.06,630.71
80.22065,542.09,618.77
80.23982,544.52,611.67
80.25942,540.83,605.34
80.28016,542.50,602.95
80.30077,544.57,595.37
80.31954,542.39,593.96
80.34038,546.02,588.02
80.35917,548.14,585.10
80.38089,549.50,585.68
80.39880,547.40,583.88
80.42085,548.19,579.29
80.44057,546.58,580.78
80.45948,547.48,578.25
80.48037,546.00,578.41
80.50087,546.71,579.67
80.52082,544.45,578.52
80.53988,543.38,579.27
80.55996,541.50,580.20
80.57911,545.59,578.49
80.59902,545.21,579.21
80.61902,543.51,579.80
80.64054,545.98,580.08
80.65917,547.57,578.65
80.68055,549.37,580.72
80.70029,549.20,578.99
80.71941,546.01,579.24
80.73974,547.66,579.72
80.75956,546.06,580.93
80.78008,543.04,580.49
80.80034,542.68,581.07
80.82106,543.82,579.97
80.83910,545.15,579.51
80.85962,545.45,578.92
80.87969,545.67,576.46
80.90018,545.56,578.31
80.92008,546.86,578.25
80.94001,547.54,576.39
80.96043,546.05,574.87
80.98010,545.50,575.95
80.99977,544.73,576.51
81.01945,547.89,576.24
81.03991,545.84,579.47
81.05989,546.26,579.08
81.07981,546.12,576.06
81.09905,545.81,577.69
81.11974,546.89,579.81
81.14006,544.35,577.95
81.16073,543.92,579.11
81.18089,542.29,580.34
81.19951,545.11,581.32
81.21904,542.22,577.35
81.24072,542.41,579.90
81.25988,544.50,578.99
81.27911,543.75,577.02
81.30027,544.18,579.77
81.32020,544.48,577.45
81.33953,545.39,579.26
81.36085,542.76,576.88
81.38067,545.07,579.02
81.40055,541.66,576.67
81.42010,546.53,578.35
81.43927,544.13,577.51
81.45985,542.92,578.73
81.47975,545.75,576.32
81.49926,545.75,575.90
81.51992,543.03,574.80
81.54017,546.75,573.85
81.56060,544.76,574.86
81.58064,546.39,575.12
81.60002,544.96,576.42
81.61968,545.19,573.81
81.64006,543.59,574.15
81.65974,545.12,574.26
81.67879,545.66,575.93
81.70049,543.22,574.32
81.72150,544.08,574.55
81.74017,545.82,575.73
81.76145,547.63,577.23
81.78022,544.49,575.51
81.80034,544.53,575.09
81.82006,543.54,575.70
81.84171,544.19,574.51
81.86116,543.08,575.28
81.88049,542.99,574.79
81.90159,546.01,574.89
81.92165,543.86,573.84
81.94178,547.35,573.45
81.96124,546.18,573.85
81.97989,547.66,573.67
82.00104,545.31,577.60
82.02102,547.03,575.28
82.04114,543.43,576.01
82.06065,543.04,575.09
82.07989,543.36,577.49
82.10187,542.23,575.65
82.12122,543.40,578.53
82.14067,542.88,574.93
82.16093,544.01,577.44
82.18220,541.75,578.40
82.20349,541.83,575.69
82.22293,541.09,575.40
82.24224,545.17,575.29
82.26360,544.49,574.88
82.28373,540.41,575.02
82.30362,539.85,573.95
82.32277,541.16,575.48
82.34174,539.62,574.31
82.36346,542.42,574.57
82.38366,540.71,572.20
82.40251,541.02,572.75
82.42319,543.37,575.25
82.44288,539.53,575.09
82.46313,541.45,574.86
82.48315,541.45,573.96
82.50343,541.23,572.80
82.52207,542.52,575.77
82.54297,542.76,575.23
82.56351,544.55,572.40
82.58211,543.39,573.52
82.60342,542.78,574.14
82.62353,542.66,575.68
82.64331,542.76,575.60
82.66374,539.80,573.87
82.68342,540.45,574.22
82.70286,543.33,574.89
82.72316,540.92,572.80
82.74262,543.23,571.47
82.76356,541.89,574.69
82.78374,541.10,573.30
82.80382,541.89,572.67
82.82197,542.47,575.62
82.84323,540.12,573.31
82.86343,542.21,573.40
82.88297,540.49,574.70
82.90350,539.70,573.86
82.92372,539.94,574.64
82.94220,539.74,571.91
82.96195,540.99,574.17
82.98396,541.78,573.18
83.00429,542.03,574.25
83.02432,541.87,576.09
83.04278,540.89,576.11
83.06426,542.22,572.06
83.08282,542.74,573.36
83.10360,540.13,573.93
83.12384,541.86,574.03
83.14389,538.45,571.81
83.16309,540.82,572.61
83.18364,538.96,572.52
83.20382,541.61,575.27
83.22392,541.30,572.85
83.24379,541.60,573.74
83.26423,542.29,571.09
83.28388,540.98,571.04
83.30369,543.02,573.19
83.32460,540.29,573.90
83.34399,539.63,574.06
83.36389,541.55,573.20
83.38380,541.64,571.49
83.40319,540.37,570.32
83.42456,541.35,573.68
83.44308,541.53,573.03
83.46346,538.91,574.09
83.48386,537.00,574.38
83.50457,540.05,562.08
83.52369,540.14,547.96
83.54462,539.06,527.46
83.56413,535.26,506.34
83.58356,533.96,483.71
83.60484,532.46,465.88
83.62362,529.26,450.35
83.64389,531.97,438.12
83.66470,530.56,427.72
83.68374,529.67,422.34
83.70461,531.12,422.87
83.72417,531.20,424.06
83.74447,532.65,429.28
83.76352,534.83,434.31
83.78421,534.72,446.75
83.80336,534.84,457.04
83.82464,536.80,465.31
83.84416,537.32,477.68
83.86366,540.36,489.94
83.88477,538.38,498.17
83.90332,538.85,509.52
83.92458,540.57,516.74
83.94444,537.54,525.04
83.96435,536.42,527.69
83.98359,540.46,536.48
84.00350,539.35,541.66
84.02395,539.70,545.33
84.04462,538.13,546.65
84.06300,542.48,550.70
84.08459,541.34,565.57
84.10460,543.88,597.01
84.12324,542.73,633.85
84.14311,545.45,685.39
84.16429,548.66,725.98
84.18389,546.24,752.12
84.20458,546.23,758.13
84.22383,548.75,751.86
84.24398,545.33,737.54
84.26553,541.99,723.31
84.28482,540.64,703.84
84.30414,540.60,687.36
84.32561,537.90,669.22
84.34559,538.01,656.92
84.36539,537.85,643.81
84.38526,538.20,631.12
84.40390,538.17,619.49
84.42530,537.30,611.56
84.44472,537.50,606.87
84.46468,535.24,603.85
84.48550,536.49,596.19
84.50500,538.42,593.52
84.52582,536.65,591.08
84.54391,537.15,586.93
84.56541,537.16,584.46
84.58591,536.64,584.18
84.60631,537.25,580.59
84.62576,539.16,580.11
84.64526,536.72,579.40
84.66546,537.74,576.68
84.68544,535.44,573.57
84.70614,533.82,572.47
84.72628,535.66,572.25
84.74566,534.43,572.11
84.76613,535.69,571.98
84.78473,534.74,574.95
84.80622,533.12,574.33
84.82677,533.26,572.61
84.84558,532.24,571.40
84.86701,533.66,572.43
84.88637,534.21,570.88
84.90491,534.97,571.81
84.92555,533.99,572.53
84.94545,534.46,569.06
84.96655,532.76,571.64
84.98626,533.76,571.38
85.00657,531.57,568.48
85.02658,533.80,570.12
85.04602,532.07,569.29
85.06761,529.27,567.65
85.08662,532.49,572.51
85.10662,532.44,578.92
85.12690,533.15,579.77
85.14732,533.33,579.86
85.16665,534.73,580.95
85.18641,531.25,578.11
85.20723,529.82,574.96
85.22655,531.94,578.69
85.24824,529.82,574.98
85.26846,526.15,574.29
85.28961,523.57,573.87
85.30846,525.16,572.34
85.32786,522.30,572.19
85.34958,524.26,569.49
85.37025,520.42,572.06
85.38901,520.89,571.25
85.41056,521.04,569.71
85.43099,522.71,569.83
85.45125,519.56,568.15
85.47167,523.37,570.80
85.49278,522.34,567.87
85.51237,521.22,567.01
85.53330,522.07,567.63
85.55215,524.86,566.33
85.57252,523.56,565.58
85.59276,522.61,566.86
85.61230,523.67,564.70
85.63234,527.27,564.88
85.65261,526.80,566.06
85.67217,523.98,564.68
85.69326,526.42,564.04
85.71285,525.67,565.44
85.73335,523.70,563.71
85.75253,529.49,563.65
85.77265,531.00,563.60
85.79308,530.40,564.24
85.81285,530.80,563.24
85.83385,527.05,560.37
85.85215,530.76,561.26
85.87302,530.71,562.48
85.89236,528.23,564.02
85.91256,527.91,563.75
85.93277,528.76,562.98
85.95358,527.64,561.60
85.97237,525.43,561.65
85.99352,523.76,560.14
86.01258,523.56,561.67
86.03295,523.45,562.78
86.05220,522.82,562.38
86.07330,522.26,559.86
86.09241,522.71,561.19
86.11240,519.65,562.23
86.13303,518.97,562.12
86.15378,520.92,561.23
86.17280,522.13,560.76
86.19202,523.51,560.57
86.21233,524.05,561.08
86.23171,521.74,557.41
86.25187,520.73,559.01
86.27190,522.14,560.72
86.29344,519.73,557.93
86.31343,520.37,560.69
86.33334,519.97,557.79
86.35358,523.57,557.38
86.37189,523.96,553.97
86.39353,524.18,556.50
86.41303,526.61,555.00
86.43293,526.44,555.42
86.45230,524.21,557.42
86.47284,526.53,556.06
86.49310,525.82,556.65
86.51374,523.49,559.60
86.53360,526.30,558.91
86.55341,527.04,558.40
86.57398,526.73,559.06
86.59389,528.40,561.24
86.61415,528.90,562.45
86.63455,529.10,561.09
86.65336,529.23,561.90
86.67316,527.41,561.86
86.69363,526.85,561.94
86.71347,528.65,560.69
86.73263,527.94,562.66
86.75276,525.64,561.64
86.77280,525.24,560.09
86.79434,528.98,563.45
86.81380,525.69,561.01
86.83552,525.53,560.59
86.85543,528.81,563.13
86.87442,526.32,561.58
86.89509,528.10,562.24
86.91529,528.14,563.86
86.93496,530.54,564.42
86.95451,527.49,560.58
86.97397,529.26,561.14
86.99476,525.45,563.44
87.01500,528.80,563.33
87.03405,525.76,563.75
87.05384,526.98,565.27
87.07456,528.34,565.53
87.09544,528.46,565.16
87.11376,528.50,565.60
87.13530,530.94,564.36
87.15574,529.38,565.28
87.17449,527.84,564.79
87.19533,528.63,562.86
87.21480,526.88,566.30
87.23585,528.42,563.34
87.25542,529.89,565.97
87.27641,530.68,566.19
87.29622,531.74,567.81
87.31607,532.54,565.57
87.33519,533.28,564.85
87.35598,534.02,564.38
87.37567,532.07,564.25
87.39510,534.57,565.35
87.41530,533.47,567.36
87.43573,535.82,566.99
87.45660,534.16,566.99
87.47678,534.80,568.00
87.49764,535.42,566.48
87.51732,535.97,568.39
87.53727,540.53,567.64
87.55863,540.57,568.54
87.57667,538.95,568.29
87.59694,541.96,565.52
87.61753,540.10,567.71
87.63778,539.34,565.96
87.65768,541.58,566.36
87.67831,541.27,568.72
87.69811,540.84,567.22
87.71798,540.46,569.33
87.73760,542.44,569.67
87.75725,540.61,571.64
87.77777,542.22,569.99
87.79856,539.68,569.80
87.81755,538.97,571.45
87.83739,542.53,572.48
87.85774,541.39,574.44
87.87808,539.42,572.21
87.89824,539.10,575.11
87.91861,541.00,570.43
87.93749,539.75,558.32
87.95814,535.73,541.28
87.97869,533.92,517.47
87.99755,533.96,498.60
88.01705,536.46,481.28
88.03900,534.28,465.98
88.05864,536.85,456.86
88.07858,536.11,448.06
88.09838,537.69,444.87
88.11948,540.09,440.27
88.13874,540.12,439.70
88.15923,537.71,442.75
88.17963,538.49,444.31
88.19928,543.37,449.14
88.22009,542.83,455.42
88.23889,544.13,459.75
88.25936,543.60,469.57
88.28052,543.34,475.86
88.29865,545.17,483.63
88.31978,543.07,494.84
88.33881,543.63,502.05
88.35968,546.62,512.44
88.38008,546.38,520.91
88.39883,547.74,526.05
88.41881,544.89,533.53
88.43969,546.40,538.99
88.45945,547.44,544.66
88.47903,546.59,547.37
88.49872,548.25,550.64
88.51951,549.20,555.26
88.53998,545.29,559.05
88.56042,547.05,559.47
88.58020,546.32,569.76
88.59949,546.05,592.72
88.61969,550.23,627.76
88.64036,550.24,669.20
88.65922,555.60,707.46
88.67897,555.74,734.71
88.69912,555.82,758.80
88.71882,555.17,769.14
88.73957,551.59,761.18
88.75966,551.74,746.23
88.78078,549.05,727.35
88.79899,547.32,708.92
88.81914,547.41,689.48
88.83921,545.64,672.76
88.85939,544.15,656.44
88.87972,546.72,645.00
88.89897,547.89,630.14
88.91916,545.33,620.08
88.93967,541.57,615.29
88.95985,545.05,605.85
88.97974,545.83,598.06
88.99999,542.37,596.46
89.01889,544.35,590.35
89.04025,541.91,588.58
89.05983,545.21,585.79
89.07919,544.15,585.90
89.10046,542.34,581.58
89.11896,544.85,580.75
89.13905,546.11,578.83
89.16043,544.00,578.99
89.18001,544.81,579.56
89.19921,545.54,579.50
89.21938,548.11,578.23
89.23953,544.17,579.58
89.25928,545.50,580.61
89.27904,546.69,579.88
89.30045,543.92,579.79
89.32069,546.77,577.53
89.34025,546.03,578.52
89.35956,549.74,578.80
89.37992,547.99,578.46
89.39894,549.13,575.95
89.41924,550.73,575.20
89.43924,548.47,576.29
89.45985,546.43,576.47
89.47971,546.30,575.68
89.49976,547.13,576.72
89.52024,547.33,575.00
89.53975,544.30,579.07
89.55916,545.91,575.18
89.57926,549.53,576.78
89.59909,546.03,574.60
89.61977,546.44,577.74
89.63884,546.67,578.04
89.65880,545.17,575.19
89.67913,548.09,574.95
89.69986,546.25,575.67
89.71955,543.57,572.76
89.73927,542.74,574.45
89.75953,546.81,571.71
89.77926,545.56,574.42
89.79954,543.53,573.72
89.81864,543.17,572.82
89.83907,544.73,572.93
89.86025,547.77,575.12
89.88049,546.43,577.71
89.90033,545.98,578.21
89.91882,546.55,578.02
89.93899,548.93,578.74
89.96066,547.25,581.07
89.97936,549.84,580.34
90.00054,546.32,578.78
90.02024,547.54,577.52
90.03897,546.77,575.38
90.05903,549.31,575.09
90.07951,547.52,578.32
90.10007,549.33,576.72
90.11877,547.18,576.80
90.13877,546.69,578.32
90.16039,546.86,578.38
90.18070,546.88,577.87
90.20000,543.79,576.08
90.22016,545.99,578.46
90.23890,544.26,576.08
90.25932,545.54,578.57
90.27942,544.15,574.35
90.30032,545.28,577.16
90.31891,544.73,578.30
90.33979,543.71,578.54
90.36063,546.21,579.90
90.38152,544.90,579.63
90.40358,542.32,579.26
90.42424,542.90,580.05
90.44437,544.60,579.92
90.46272,544.89,581.30
90.48434,543.13,580.35
90.50445,540.70,579.42
90.52426,539.46,579.22
90.54290,540.23,580.35
90.56307,542.18,580.48
90.58396,540.49,579.90
90.60338,540.14,577.79
90.62455,540.76,577.97
90.64388,538.21,578.41
90.66300,540.11,576.17
90.68385,538.66,575.37
90.70471,541.24,577.21
90.72373,537.83,577.47
90.74527,537.15,575.77
90.76504,539.22,579.05
90.78472,538.65,578.68
90.80479,539.63,578.32
90.82466,538.79,576.00
90.84470,538.49,575.01
90.86375,538.52,577.16
90.88488,540.78,576.90
90.90576,539.22,574.73
90.92417,537.89,574.10
90.94383,534.97,573.91
90.96396,537.10,573.36
90.98365,539.63,573.25
91.00396,535.93,573.44
91.02548,537.94,573.41
91.04455,534.04,571.51
91.06455,533.66,573.35
91.08523,536.25,573.55
91.10624,532.72,571.62
91.12596,534.15,572.46
91.14571,533.78,573.71
91.16621,533.36,573.56
91.18647,534.73,575.01
91.20546,535.54,575.55
91.22618,537.26,574.86
91.24612,535.63,574.63
91.26507,535.71,578.10
91.28625,533.65,575.46
91.30488,537.05,574.96
91.32522,534.97,574.96
91.34616,536.46,574.64
91.36656,537.47,573.78
91.38497,533.29,574.08
91.40593,536.32,571.17
91.42569,532.89,573.79
91.44572,533.15,573.71
91.46592,535.44,572.13
91.48644,533.24,573.78
91.50568,534.61,573.25
91.52667,533.12,571.69
91.54663,533.47,572.50
91.56557,533.85,571.77
91.58634,534.70,573.20
91.60505,533.22,573.30
91.62588,532.06,573.35
91.64548,533.37,572.60
91.66655,534.26,571.40
91.68544,533.28,573.06
91.70555,533.58,570.08
91.72555,532.66,571.56
91.74522,531.76,571.38
91.76469,531.19,572.78
91.78537,531.90,570.40
91.80622,530.15,570.12
91.82566,532.63,570.59
91.84520,532.40,570.75
91.86616,533.58,572.00
91.88487,532.27,573.57
91.90556,532.59,571.20
91.92615,525.38,561.14
91.94636,526.51,549.67
91.96579,527.03,535.77
91.98495,523.60,524.04
92.00538,523.89,511.81
92.02639,521.18,497.39
92.04551,517.58,481.23
92.06460,516.01,470.06
92.08610,518.18,457.30
92.10496,516.54,448.86
92.12486,517.03,440.81
92.14483,522.38,436.61
92.16565,523.71,431.99
92.18483,526.40,435.65
92.20625,526.23,434.91
92.22499,526.26,440.75
92.24474,526.05,447.29
92.26634,524.54,454.77
92.28564,527.46,466.34
92.30519,524.59,471.62
92.32475,523.30,483.65
92.34643,523.39,491.65
92.36622,524.52,502.05
92.38613,527.30,511.64
92.40543,526.53,518.36
92.42553,527.10,525.98
92.44645,529.07,530.58
92.46602,529.20,537.74
92.48457,528.88,545.18
92.50492,529.90,548.59
92.52536,531.13,550.02
92.54584,528.59,559.74
92.56669,533.47,579.65
92.58577,533.91,612.51
92.60655,539.45,654.94
92.62520,542.05,695.24
92.64483,546.14,728.53
92.66498,551.46,757.34
92.68621,553.67,777.11
92.70488,553.39,776.47
92.72624,552.06,767.14
92.74506,552.43,751.06
92.76587,551.89,727.45
92.78519,546.36,707.89
92.80594,547.96,691.33
92.82539,543.22,671.01
92.84499,540.97,655.83
92.86455,542.37,644.02
92.88503,537.67,630.40
92.90542,538.88,622.23
92.92635,539.46,612.32
92.94511,538.18,606.56
92.96617,537.50,600.94
92.98495,535.66,595.07
93.00522,536.70,590.87
93.02515,534.66,588.78
93.04539,533.79,586.06
93.06582,533.19,586.71
93.08646,532.14,585.42
93.10584,535.30,583.96
93.12596,532.55,582.11
93.14652,534.57,579.59
93.16645,535.38,576.00
93.18555,535.93,572.33
93.20591,531.49,572.76
93.22541,532.83,573.77
93.24636,532.48,572.35
93.26577,532.70,571.96
93.28616,533.31,572.62
93.30482,535.07,569.24
93.32593,531.80,567.96
93.34517,531.20,572.49
93.36585,531.03,573.10
93.38470,534.52,570.82
93.40551,532.38,573.95
93.42574,532.63,572.06
93.44512,529.83,572.42
93.46613,532.33,570.42
93.48552,529.83,571.39
93.50645,530.42,571.44
93.52555,531.13,572.46
93.54628,530.59,573.69
93.56650,533.62,573.13
93.58626,531.29,574.22
93.60490,530.24,570.47
93.62549,529.23,569.59
93.64635,529.39,568.93
93.66513,530.43,570.14
93.68624,531.70,571.79
93.70656,530.53,570.49
93.72572,531.98,570.81
93.74498,530.69,571.49
93.76578,532.27,570.45
93.78596,531.37,567.92
93.80653,530.53,571.64
93.82582,533.10,569.41
93.84565,532.74,571.14
93.86620,533.20,571.92
93.88464,535.18,572.57
93.90616,533.13,573.26
93.92528,534.96,572.37
93.94491,537.20,573.61
93.96553,534.44,573.20
93.98639,534.69,574.38
94.00603,531.78,574.95
94.02554,532.25,573.59
94.04563,529.82,576.31
94.06522,528.76,573.38
94.08526,533.30,576.36
94.10656,532.78,575.50
94.12537,533.95,573.26
94.14563,532.31,573.99
94.16547,531.64,574.92
94.18588,530.00,574.31
94.20493,531.19,575.96
94.22510,528.65,576.19
94.24471,528.87,576.64
94.26497,529.83,576.47
94.28535,528.76,578.49
94.30545,530.15,574.94
94.32554,528.75,576.20
94.34614,528.64,575.34
94.36510,528.35,575.81
94.38492,527.43,574.92
94.40476,530.37,574.07
94.42626,529.77,573.10
94.44605,529.11,572.34
94.46620,530.27,573.16
94.48622,532.30,572.28
94.50582,529.03,575.70
94.52481,529.10,573.86
94.54636,529.04,576.45
94.56547,527.15,574.27
94.58486,528.07,573.12
94.60625,529.63,574.68
94.62635,529.13,574.02
94.64558,530.99,573.09
94.66572,532.42,573.33
94.68460,532.95,575.76
94.70475,533.16,574.51
94.72471,530.57,574.26
94.74553,530.65,576.81
94.76506,532.34,575.04
94.78580,530.55,576.47
94.80627,531.52,574.36
94.82488,529.57,574.56
94.84646,529.19,573.76
94.86435,529.44,575.42
94.88509,527.13,572.55
94.90527,529.36,572.45
94.92473,529.52,573.27
94.94469,532.04,572.69
94.96508,528.67,569.75
94.98451,528.33,568.82
95.00578,531.44,572.79
95.02518,530.90,572.51
95.04535,531.09,575.35
95.06481,532.37,576.83
95.08524,532.28,575.75
95.10478,528.77,576.00
95.12610,529.40,577.84
95.14493,531.16,575.96
95.16513,528.91,576.37
95.18449,526.75,575.94
95.20532,525.63,574.96
95.22507,527.60,573.27
95.24480,524.38,575.14
95.26618,528.42,574.86
95.28566,526.29,573.74
95.30564,529.98,574.02
95.32738,528.41,573.44
95.34748,530.21,572.88
95.36592,528.55,570.91
95.38634,526.88,570.31
95.40651,526.38,569.54
95.42637,526.77,572.19
95.44691,526.44,568.94
95.46709,525.68,570.16
95.48596,527.16,571.40
95.50681,523.83,569.93
95.52683,525.79,569.56
95.54577,522.99,569.95
95.56662,523.89,568.49
95.58557,522.59,567.42
95.60694,521.60,568.48
95.62700,520.87,569.99
95.64688,523.18,567.39
95.66569,522.60,567.38
95.68605,522.36,569.09
95.70705,524.65,568.20
95.72700,524.55,570.45
95.74641,525.35,571.34
95.76737,522.87,569.69
95.78613,523.20,571.25
95.80553,521.25,570.99
95.82654,520.60,568.58
95.84735,522.66,568.11
95.86603,521.47,569.67
95.88756,523.61,572.62
95.90540,521.76,571.28
95.92567,523.51,570.99
95.94638,523.65,569.73
95.96736,523.77,568.91
95.98725,523.91,568.05
96.00578,522.24,568.78
96.02581,521.93,570.78
96.04645,524.37,569.58
96.06672,523.29,568.69
96.08660,522.94,568.58
96.10717,520.64,566.90
96.12697,521.64,567.78
96.14703,523.30,568.21
96.16743,522.77,565.56
96.18560,524.21,566.77
96.20641,524.20,569.98
96.22669,522.12,571.89
96.24662,524.80,570.72
96.26670,525.68,564.56
96.28562,524.32,551.11
96.30621,522.73,536.43
96.32583,526.26,516.66
96.34595,520.89,498.94
96.36638,522.77,479.98
96.38707,518.69,459.74
96.40784,515.90,443.59
96.42718,513.99,432.28
96.44688,512.43,420.72
96.46742,515.51,417.91
96.48748,515.81,418.02
96.50751,516.37,419.82
96.52826,516.78,425.57
96.54831,517.25,435.56
96.56786,521.08,443.48
96.58790,523.06,452.40
96.60826,521.65,467.01
96.62837,522.41,474.87
96.64755,521.17,488.33
96.66751,523.86,497.45
96.68674,523.80,505.26
96.70723,523.50,512.06
96.72700,521.27,522.26
96.74798,521.05,527.75
96.76815,523.70,532.82
96.78816,522.45,549.65
96.80771,523.53,576.32
96.82728,526.98,611.98
96.84645,527.50,648.65
96.86679,528.13,677.08
96.88735,531.12,701.42
96.90664,529.34,723.64
96.92711,527.51,738.68
96.94795,526.34,749.22
96.96791,523.24,749.47
96.98763,521.98,738.94
97.00758,519.64,722.61
97.02738,519.62,703.15
97.04759,520.29,685.68
97.06782,520.15,670.02
97.08817,518.03,654.80
97.10757,518.69,640.50
97.12806,518.31,628.84
97.14710,516.62,617.04
97.16709,519.19,608.24
97.18680,519.89,599.69
97.20758,522.87,595.30
97.22765,523.37,590.00
97.24764,525.97,581.87
97.26835,527.77,578.48
97.28818,525.89,574.41
97.30641,528.62,572.78
97.32809,527.57,572.59
97.34704,529.48,570.57
97.36749,525.06,567.89
97.38843,525.78,566.41
97.40789,524.42,564.78
97.42765,524.21,566.14
97.44671,523.07,567.06
97.46784,521.79,565.50
97.48766,519.32,563.98
97.50829,521.31,563.48
97.52637,522.22,564.98
97.54781,523.73,566.69
97.56789,520.66,563.56
97.58649,524.07,564.59
97.60799,523.95,564.46
97.62736,524.82,566.08
97.64796,523.24,568.60
97.66798,523.28,565.85
97.68754,523.77,566.03
97.70831,525.51,566.70
97.72800,521.10,569.13
97.74728,523.93,569.35
97.76697,523.06,567.32
97.78677,525.85,565.69
97.80691,524.69,565.89
97.82832,525.41,565.58
97.84697,526.14,567.92
97.86751,523.98,566.54
97.88804,524.24,566.95
97.90710,523.24,568.32
97.92724,522.99,565.97
97.94741,522.76,565.34
97.96718,522.34,566.69
97.98833,519.90,566.91
98.00690,520.70,566.14
98.02687,523.61,567.19
98.04670,522.56,565.62
98.06657,524.08,566.16
98.08711,522.83,566.49
98.10690,521.71,564.86
98.12760,523.12,564.62
98.14696,521.76,564.60
98.16695,519.69,567.36
98.18846,519.17,565.27
98.20673,522.62,565.89
98.22768,522.41,567.70
98.24827,519.69,564.82
98.26693,523.46,563.83
98.28784,524.34,567.73
98.30739,522.88,566.90
98.32704,521.95,567.21
98.34683,522.91,567.94
98.36698,522.66,566.63
98.38697,524.32,566.99
98.40724,522.60,563.80
98.42845,526.58,565.52
98.44646,523.65,565.75
98.46753,526.66,565.45
98.48705,525.73,566.87
98.50754,523.40,566.37
98.52700,521.49,564.89
98.54676,524.80,566.79
98.56657,521.80,564.92
98.58711,523.87,567.27
98.60795,523.53,565.98
98.62682,519.28,564.91
98.64749,520.38,565.81
98.66780,521.90,566.71
98.68774,521.29,568.07
98.70669,521.30,565.12
98.72761,524.28,566.06
98.74832,520.38,564.94
98.76661,520.81,565.23
98.78816,520.40,566.14
98.80664,520.04,565.90
98.82822,521.53,565.28
98.84747,518.47,566.10
98.86836,522.08,568.29
98.88744,521.43,566.20
98.90719,520.80,566.45
98.92838,522.19,567.63
98.94749,523.47,568.43
98.96717,521.82,567.52
98.98780,524.87,569.83
99.00683,524.81,568.93
99.02812,523.81,567.23
99.04760,524.81,564.59
99.06722,523.38,565.31
99.08796,524.31,564.09
99.10820,525.44,561.28
99.12667,524.36,564.47
99.14644,523.33,561.98
99.16742,520.83,562.84
99.18755,523.35,563.33
99.20741,521.06,562.37
99.22689,523.41,562.17
99.24665,523.18,563.19
99.26771,520.20,560.32
99.28675,521.52,562.56
99.30667,520.56,563.43
99.32758,521.39,562.88
99.34701,521.08,563.57
99.36722,522.74,567.50
99.38784,524.91,566.58
99.40750,525.02,564.56
99.42714,521.81,566.85
99.44639,524.35,563.95
99.46752,523.31,567.02
99.48845,524.33,564.30
99.50769,523.29,565.47
99.52716,521.96,566.41
99.54771,521.23,564.42
99.56789,522.02,564.87
99.58781,519.30,562.17
99.60716,519.38,565.72
99.62726,520.73,563.41
99.64688,522.36,563.88
99.66661,522.55,566.33
99.68717,520.48,564.47
99.70790,520.98,564.80
99.72683,521.21,566.03
99.74796,521.02,566.87
99.76736,523.65,566.72
99.78760,520.94,568.79
99.80807,523.84,566.92
99.82802,525.79,567.14
99.84694,523.19,567.70
99.86739,525.12,565.51
99.88790,523.51,567.14
99.90764,523.07,568.47
99.92681,522.54,568.81
99.94675,524.08,568.38
99.96760,524.00,567.16
99.98704,524.74,567.82
100.00654,523.59,567.60
100.02716,522.57,566.53
100.04640,522.49,566.17
100.06722,524.49,565.08
100.08790,524.55,566.22
100.10745,522.04,565.96
100.12660,521.96,563.77
100.14658,522.98,564.82
100.16639,523.72,565.70
100.18756,521.20,563.88
100.20773,521.90,563.61
100.22705,524.89,564.03
100.24684,523.86,565.88
100.26724,523.78,563.86
100.28738,523.19,564.22
100.30645,522.18,561.83
100.32639,522.26,562.03
100.34740,522.99,564.99
100.36713,525.02,562.89
100.38891,523.15,565.23
100.40632,522.04,563.02
100.42769,522.88,565.43
100.44703,524.78,563.75
100.46746,524.10,566.98
100.48864,524.47,565.85
100.50722,521.37,567.66
100.52756,523.86,567.51
100.54698,524.41,564.32
100.56646,525.74,566.73
100.58758,522.00,567.13
100.60605,519.90,565.83
100.62785,522.12,564.18
100.64602,523.81,564.36
100.66689,520.31,563.98
100.68672,520.52,566.14
100.70836,521.75,564.88
100.72723,524.16,566.14
100.74780,520.12,563.30
100.76809,521.14,551.37
100.78649,521.42,534.85
100.80726,519.08,515.40
100.82797,517.86,492.51
100.84630,519.68,473.99
100.86800,522.81,456.08
100.88683,520.83,442.30
100.90773,522.81,431.50
100.92771,522.32,422.30
100.94760,521.41,420.32
100.96630,523.58,420.16
100.98778,520.74,424.10
101.00811,524.60,431.18
101.02608,523.39,436.43
101.04754,520.88,446.78
101.06686,519.01,454.54
101.08764,520.75,462.12
101.10648,521.42,474.05
101.12616,521.12,485.42
101.14606,522.81,497.96
101.16758,523.68,506.64
101.18649,526.31,513.69
101.20791,524.65,520.49
101.22705,526.84,527.77
101.24732,525.81,535.11
101.26709,527.84,537.47
101.28789,526.84,547.10
101.30640,527.44,570.98
101.32679,523.85,603.62
101.34601,523.26,637.76
101.36882,518.67,675.39
101.38726,519.06,707.64
101.40767,521.35,731.94
101.42769,523.17,749.86
101.44601,528.02,755.30
101.46768,529.43,744.24
101.48652,531.67,732.57
101.50705,531.85,713.89
101.52712,531.34,694.45
101.54722,531.75,676.93
101.56713,533.12,657.55
101.58753,530.49,646.55
101.60749,529.16,632.64
101.62718,526.43,623.47
101.64631,525.41,613.47
101.66688,525.02,605.58
101.68717,523.50,600.21
101.70782,525.75,594.21
101.72767,526.50,589.59
101.74629,525.18,585.44
101.76868,527.12,579.80
101.78691,527.81,576.76
101.80735,525.66,577.68
101.82751,524.94,576.18
101.84684,523.50,571.79
101.86709,525.40,572.59
101.88785,527.71,568.97
101.90778,525.78,569.81
101.92644,523.34,569.08
101.94734,526.73,568.02
101.96794,525.40,567.82
101.98723,525.91,570.01
102.00731,528.49,569.86
102.02638,528.02,568.34
102.04693,527.64,566.67
102.06606,528.75,568.43
102.08674,529.47,566.22
102.10637,527.19,567.38
102.12614,527.05,566.92
102.14615,527.98,570.71
102.16619,527.67,569.05
102.18689,526.52,569.11
102.20658,525.72,566.88
102.22678,526.67,568.17
102.24672,527.53,567.49
102.26613,528.61,565.75
102.28778,529.33,568.85
102.30697,528.29,568.85
102.32770,528.47,569.34
102.34861,530.35,565.89
102.36736,529.40,566.05
102.38756,528.36,564.67
102.40718,529.46,566.03
102.42639,527.64,564.95
102.44717,530.67,567.08
102.46757,528.87,568.23
102.48776,528.28,568.32
102.50732,526.80,566.50
102.52836,527.04,565.24
102.54716,528.42,566.73
102.56797,527.96,564.50
102.58791,527.85,563.26
102.60738,528.02,567.46
102.62677,527.88,564.80
102.64711,528.52,567.68
102.66710,527.42,568.32
102.68766,527.82,565.70
102.70601,526.00,567.41
102.72673,527.14,567.83
102.74651,527.44,568.49
102.76628,524.78,568.71
102.78707,528.10,564.85
102.80651,528.37,566.92
102.82688,528.59,563.01
102.84637,526.82,563.84
102.86765,527.51,565.90
102.88607,526.06,564.86
102.90676,527.62,566.88
102.92730,527.09,565.08
102.94685,525.03,564.97
102.96733,526.00,563.68
102.98772,525.39,563.09
103.00748,524.45,565.89
103.02783,524.04,566.24
103.04628,525.41,564.80
103.06746,526.41,562.72
103.08665,523.90,564.81
103.10613,526.78,563.96
103.12771,525.14,563.22
103.14773,525.69,565.69
103.16723,526.81,564.74
103.18747,524.13,565.58
103.20731,525.09,566.55
103.22684,526.79,566.01
103.24659,524.14,564.10
103.26602,525.62,566.79
103.28745,524.62,569.32
103.30745,523.65,569.64
103.32761,523.75,569.06
103.34696,524.39,568.29
103.36702,522.53,568.92
103.38610,524.86,569.43
103.40759,526.89,570.33
103.42671,525.05,568.88
103.44784,526.01,569.42
103.46726,525.05,567.18
103.48624,527.79,566.87
103.50778,527.67,569.07
103.52605,525.54,569.18
103.54644,525.81,566.42
103.56660,524.59,568.33
103.58790,526.42,567.51
103.60716,524.36,569.70
103.62736,525.76,567.54
103.64699,526.62,569.40
103.66721,524.74,569.06
103.68636,523.77,569.26
103.70640,523.49,570.39
103.72641,523.90,566.07
103.74780,527.41,565.01
103.76604,527.94,565.27
103.78900,525.77,568.28
103.80773,525.21,566.06
103.82685,526.13,568.14
103.84705,522.71,566.28
103.86785,525.17,568.18
103.88719,523.50,565.05
103.90665,523.93,566.85
103.92684,522.02,562.87
103.94654,520.62,565.07
103.96745,524.14,564.53
103.98613,522.28,565.39
104.00762,521.93,565.44
104.02767,523.61,565.15
104.04688,524.01,564.80
104.06797,523.90,564.74
104.08799,525.71,566.18
104.10684,525.64,566.97
104.12637,523.92,567.37
104.14618,526.81,564.59
104.16732,526.96,564.65
104.18772,525.43,564.45
104.20706,525.23,567.25
104.22725,523.49,565.80
104.24659,525.91,565.16
104.26783,524.40,566.10
104.28638,524.77,566.67
104.30612,525.52,565.47
104.32613,525.04,567.52
104.34668,525.98,567.61
104.36765,522.54,565.05
104.38764,526.17,564.20
104.40725,523.11,566.68
104.42724,522.59,566.42
104.44641,523.53,565.06
104.46730,527.10,564.86
104.48726,526.02,563.74
104.50742,528.11,565.13
104.52669,529.56,563.72
104.54691,529.00,565.64
104.56716,529.13,567.63
104.58700,529.80,566.31
104.60780,529.05,566.80
104.62631,528.85,563.67
104.64624,526.21,565.78
104.66612,527.04,566.46
104.68682,526.29,565.67
104.70738,523.69,565.96
104.72754,525.72,560.21
104.74713,523.62,558.32
104.76678,525.04,559.76
104.78614,526.82,557.50
104.80719,528.38,555.11
104.82627,527.50,555.19
104.84733,527.00,555.39
104.86719,524.68,556.18
104.88738,525.70,554.84
104.90750,528.47,557.62
104.92740,525.40,555.90
104.94713,526.59,558.71
104.96795,525.12,558.85
104.98712,527.82,557.99
105.00773,525.56,558.53
105.02748,527.22,562.46
105.04647,528.07,563.51
105.06668,528.18,561.27
105.08768,528.95,564.22
105.10610,526.11,563.54
105.12731,526.38,563.81
105.14659,526.01,565.37
105.16657,527.50,563.28
105.18611,525.76,564.73
105.20768,525.21,564.52
105.22678,528.64,565.26
105.24737,526.02,564.73
105.26729,524.29,566.38
105.28695,524.88,563.49
105.30630,528.30,556.66
105.32677,532.11,542.37
105.34628,535.16,520.55
105.36770,536.27,500.75
105.38654,533.76,483.78
105.40765,535.50,466.58
105.42705,533.10,450.06
105.44700,530.04,435.16
105.46762,526.76,428.48
105.48743,522.53,419.92
105.50788,522.04,422.41
105.52743,520.52,421.91
105.54701,521.41,427.09
105.56722,519.40,432.20
105.58897,521.52,440.80
105.60775,521.13,451.85
105.62792,518.26,461.60
105.64736,518.81,471.10
105.66802,519.38,481.69
105.68747,520.45,493.67
105.70730,520.32,499.11
105.72885,522.19,510.11
105.74881,524.37,515.73
105.76836,523.70,523.74
105.78864,524.40,531.26
105.80758,523.39,534.92
105.82772,527.09,558.54
105.84873,529.09,590.39
105.86743,528.95,634.79
105.88790,530.71,679.12
105.90857,536.22,710.65
105.92736,538.24,739.04
105.94724,541.82,755.59
105.96821,541.91,760.90
105.98756,539.65,753.45
106.00706,539.44,737.34
106.02754,540.51,719.53
106.04887,536.20,701.71
106.06749,536.08,685.64
106.08734,536.51,669.62
106.10732,535.94,653.79
106.12744,534.23,643.70
106.14760,535.56,632.65
106.16778,535.37,621.54
106.18763,533.43,612.72
106.20732,536.09,606.13
106.22833,534.84,601.94
106.24917,534.47,597.38
106.26714,533.18,589.33
106.28983,529.98,583.82
106.30818,532.45,577.14
106.32805,531.49,572.32
106.34839,530.78,572.88
106.36777,530.53,568.72
106.38710,528.11,569.15
106.40868,527.67,569.08
106.42855,527.27,565.28
106.44805,528.75,566.10
106.46853,526.96,566.92
106.48870,529.80,565.09
106.50884,529.51,565.55
106.52777,528.26,565.75
106.54716,528.85,564.05
106.56802,526.78,566.52
106.58893,529.71,565.74
106.60768,530.96,564.37
106.62922,528.95,564.66
106.64807,529.26,566.73
106.66837,532.52,569.83
106.68934,532.90,569.16
106.70998,530.06,567.24
106.72989,531.63,567.63
106.74850,531.50,569.68
106.76950,533.00,570.96
106.78906,535.04,569.25
106.80879,534.11,569.65
106.82861,533.24,571.62
106.84862,534.38,572.63
106.86880,532.69,570.94
106.88899,535.56,571.36
106.90939,533.15,570.76
106.92929,533.52,573.31
106.94936,533.03,572.63
106.96973,535.84,573.24
106.98856,535.43,572.88
107.00855,534.19,573.11
107.02986,537.05,572.34
107.04858,532.29,572.40
107.06942,533.90,575.88
107.08875,533.62,572.14
107.10866,533.22,573.70
107.12965,535.44,572.39
107.14992,536.02,574.99
107.16845,536.11,574.57
107.18951,534.67,570.97
107.20918,532.30,570.01
107.22836,533.06,572.33
107.24813,534.65,572.62
107.26980,536.03,572.29
107.28941,533.34,569.68
107.30936,534.71,571.13
107.32837,533.11,570.11
107.34893,534.16,570.94
107.36863,532.73,570.16
107.38826,533.50,568.26
107.40848,532.85,568.34
107.42834,531.71,566.77
107.44853,531.91,567.06
107.46884,534.82,566.86
107.48888,531.87,566.12
107.50819,533.72,565.42
107.53033,533.12,567.54
107.54802,533.37,565.82
107.56911,533.12,566.34
107.58982,535.51,567.96
107.60999,533.68,568.42
107.62929,535.83,568.16
107.64930,536.04,566.78
107.66945,537.07,567.11
107.68993,535.57,569.65
107.70847,535.02,568.52
107.72803,538.96,570.38
107.74896,537.99,567.17
107.76877,536.77,567.42
107.78954,535.37,566.76
107.80893,533.46,567.82
107.82838,533.77,567.60
107.84896,534.43,566.84
107.86992,534.57,568.34
107.88890,533.21,568.40
107.90871,531.50,565.91
107.92851,531.66,568.68
107.94974,534.35,566.68
107.96971,533.53,566.32
107.98956,535.86,568.79
108.00918,532.89,567.96
108.02839,533.86,568.53
108.04861,534.11,567.09
108.06801,536.53,565.10
108.08979,536.67,565.49
108.10986,532.76,567.44
108.12944,534.09,566.95
108.14985,535.47,567.04
108.16860,534.48,567.80
108.18883,536.33,566.19
108.20899,533.34,566.29
108.22812,537.78,568.57
108.24962,537.27,567.71
108.26922,535.50,569.54
108.28932,533.71,566.40
108.30806,536.73,568.49
108.32896,536.91,570.28
108.34912,537.30,569.99
108.36953,536.05,567.56
108.38949,534.39,569.26
108.41020,534.73,569.36
108.42823,532.09,569.84
108.44867,533.01,571.16
108.46846,533.02,570.32
108.48872,532.95,569.09
108.50804,536.13,569.48
108.52986,535.50,570.45
108.54827,535.27,571.34
108.56976,532.79,570.74
108.58929,534.60,570.52
108.60923,533.83,567.53
108.62800,533.29,569.26
108.64910,531.11,569.18
108.66865,531.02,570.29
108.68826,531.13,568.74
108.70975,533.77,567.69
108.72923,534.45,570.16
108.74841,533.43,569.87
108.76925,536.15,568.07
108.78833,536.95,567.58
108.80810,536.23,571.01
108.82943,537.00,567.68
108.84913,538.17,566.99
108.86959,535.35,568.52
108.88832,536.99,569.51
108.90844,536.04,569.23
108.92909,534.35,567.80
108.94986,535.83,566.36
108.96890,534.37,566.44
108.98997,534.10,567.52
109.00974,533.41,567.03
109.02883,532.87,570.16
109.04920,531.86,567.89
109.06899,531.80,567.32
109.08864,534.68,569.24
109.10990,535.95,566.86
109.12958,534.10,566.41
109.14867,534.53,567.23
109.16941,535.13,568.06
109.18945,536.72,568.16
109.20878,536.89,566.37
109.22930,535.04,567.02
109.24848,536.57,566.98
109.26828,535.53,566.09
109.28980,538.99,568.28
109.30888,535.87,568.04
109.32820,535.70,566.97
109.34977,535.89,568.49
109.36885,536.26,570.78
109.38881,536.20,567.16
109.40835,537.07,559.49
109.42979,537.98,543.14
109.44943,534.11,527.40
109.46856,537.37,509.54
109.48987,535.48,493.43
109.50971,534.96,478.48
109.52987,534.39,465.60
109.54974,535.67,452.12
109.56921,532.71,443.00
109.58890,529.84,434.52
109.60888,528.65,433.89
109.62949,529.49,431.42
109.64982,529.46,434.41
109.66995,530.30,437.88
109.68957,529.29,446.97
109.70980,530.02,454.23
109.72847,530.51,462.50
109.74979,531.99,473.99
109.76922,531.11,485.74
109.78808,531.61,493.47
109.80900,532.73,502.62
109.82844,530.89,513.98
109.84837,533.88,519.92
109.86809,534.34,525.61
109.88868,537.66,532.09
109.90922,537.90,537.83
109.92849,539.75,542.64
109.94812,538.59,547.40
109.96814,539.90,549.14
109.98880,539.04,551.57
110.01000,540.27,554.62
110.02958,540.99,557.15
110.04907,541.89,578.80
110.06840,545.25,616.48
110.08828,548.41,661.65
110.10940,548.56,707.81
110.12806,546.75,740.68
110.14954,550.04,758.60
110.16977,549.34,767.88
110.18907,546.16,762.54
110.20815,546.08,745.72
110.22984,545.40,724.12
110.24815,541.99,705.51
110.26972,539.27,686.30
110.28881,540.53,666.36
110.30943,540.86,650.67
110.32987,541.83,639.72
110.34980,540.37,625.57
110.36969,541.35,616.04
110.38891,540.28,607.67
110.40941,538.92,599.61
110.42819,538.75,597.67
110.44942,539.78,591.33
110.46892,539.71,587.60
110.48868,536.74,582.39
110.50944,537.13,581.15
110.52922,535.96,578.28
110.54838,533.80,574.80
110.56830,534.63,572.76
110.58835,532.71,569.75
110.60805,533.61,572.02
110.62875,534.01,572.19
110.64915,535.31,569.66
110.66803,535.43,570.85
110.68988,537.50,569.14
110.70913,540.61,568.18
110.72880,539.30,568.35
110.74865,542.90,568.97
110.76965,537.21,570.63
110.78888,538.61,572.62
110.80934,540.59,581.02
110.82841,545.38,602.01
110.84991,550.43,631.38
110.86983,552.73,669.41
110.88960,558.99,704.18
110.90804,559.33,722.00
110.92911,559.12,717.08
110.94953,555.43,698.73
110.96924,552.92,672.53
110.98865,546.93,643.04
111.00864,542.40,615.96
111.02846,542.50,586.64
111.04903,540.00,565.89
111.06881,537.64,543.68
111.08875,534.23,526.91
111.10848,535.62,517.21
111.12975,535.48,510.11
111.14973,531.39,503.29
111.16938,535.91,503.45
111.18958,533.45,504.74
111.20930,534.31,507.95
111.22965,532.43,507.83
111.24952,531.47,514.09
111.26916,530.55,517.34
111.28905,532.74,523.33
111.30927,531.84,527.10
111.32820,533.95,531.45
111.34938,534.49,535.32
111.37010,537.26,539.44
111.38991,538.16,541.95
111.41081,540.69,547.48
111.42956,539.57,551.26
111.45079,541.53,552.44
111.47012,539.83,556.47
111.48984,539.42,560.24
111.51086,542.75,562.24
111.52952,538.59,561.92
111.54944,541.89,561.46
111.56924,541.66,563.04
111.58996,540.00,567.23
111.61073,540.51,566.30
111.63003,540.96,566.12
111.65087,543.72,567.55
111.67075,543.36,569.27
111.69099,544.41,568.17
111.71121,543.55,569.88
111.73098,543.16,571.11
111.75136,544.89,573.22
111.77129,541.60,573.15
111.79103,544.94,571.51
111.81004,545.66,571.48
111.83073,544.72,574.48
111.85138,542.14,572.29
111.87045,541.94,571.36
111.89071,541.92,571.05
111.91089,545.46,571.52
111.93134,544.89,572.26
111.95089,543.73,573.03
111.97049,545.90,571.20
111.99132,545.29,569.27
112.01147,546.05,569.70
112.03083,546.02,572.49
112.05198,546.72,570.53
112.07097,544.40,570.88
112.09196,547.52,573.77
112.11107,546.10,571.21
112.13148,546.89,573.89
112.15140,546.58,572.50
112.17140,545.05,575.35
112.19112,544.12,571.79
112.21197,542.01,573.79
112.23161,543.48,571.90
112.25198,543.26,572.92
112.27015,543.70,572.31
112.29066,545.12,571.81
112.31142,545.27,574.82
112.33106,542.37,574.34
112.35168,542.09,575.15
112.37102,542.18,572.86
112.39066,545.56,571.20
112.41024,545.72,575.48
112.43154,544.93,573.16
112.45104,543.12,575.94
112.47146,542.21,572.11
112.49114,541.10,572.77
112.51114,541.46,574.39
112.53121,543.26,572.87
112.55139,542.05,574.95
112.57128,544.52,574.70
112.59082,544.73,574.69
112.61110,544.64,574.29
112.63027,543.66,574.36
112.65006,544.79,573.79
112.67083,541.96,573.33
112.69023,542.45,572.75
112.71024,540.81,574.54
112.73052,543.54,575.50
112.75101,543.14,575.51
112.77171,540.86,573.73
112.79099,540.15,572.25
112.81188,540.09,573.51
112.83103,544.05,570.37
112.85104,545.68,574.08
112.87096,542.10,575.76
112.89169,543.61,573.27
112.91112,543.96,576.49
112.93034,544.26,574.15
112.95105,541.94,573.13
112.97083,546.24,573.63
112.99150,545.84,575.97
113.01181,544.87,575.96
113.03188,543.78,575.30
113.05209,544.86,575.37
113.07288,543.92,577.24
113.09116,546.00,577.13
113.11163,544.26,578.07
113.13221,546.49,575.82
113.15112,547.65,575.10
113.17293,550.21,576.38
113.19116,547.64,578.23
113.21157,549.57,578.42
113.23131,549.03,578.32
113.25175,549.88,579.21
113.27180,550.65,588.94
113.29220,547.98,598.27
113.31272,552.87,614.83
113.33129,552.65,636.62
113.35172,557.14,652.26
113.37279,556.93,664.71
113.39248,554.82,664.82
113.41160,553.10,658.55
113.43132,551.50,636.18
113.45228,546.42,611.30
113.47140,542.44,587.47
113.49144,539.64,569.33
113.51239,534.81,555.79
113.53228,534.22,548.60
113.55267,529.67,554.72
113.57247,534.05,580.58
113.59185,534.02,606.79
113.61252,533.81,617.52
113.63145,530.39,615.40
113.65213,528.70,605.03
113.67117,525.34,591.76
113.69232,524.40,574.39
113.71125,524.17,562.78
113.73209,527.02,554.78
113.75295,528.14,545.84
113.77294,532.64,538.53
113.79110,536.98,534.89
113.81119,536.75,538.85
113.83141,538.69,542.06
113.85279,543.94,559.09
113.87270,550.06,588.46
113.89124,551.60,621.05
113.91218,556.92,647.80
113.93240,562.21,669.40
113.95237,568.88,683.92
113.97284,571.56,695.04
113.99213,570.65,702.19
114.01236,566.69,692.85
114.03366,563.46,673.05
114.05341,559.27,640.70
114.07377,550.73,608.34
114.09232,553.17,578.95
114.11405,549.77,553.02
114.13513,548.88,533.98
114.15510,547.45,520.47
114.17524,548.62,514.18
114.19479,547.66,507.23
114.21409,548.58,503.62
114.23482,547.69,506.52
114.25481,544.82,506.53
114.27474,546.08,507.80
114.29425,544.53,513.78
114.31563,542.93,517.65
114.33441,542.45,524.55
114.35440,541.20,528.03
114.37409,543.19,537.49
114.39437,540.04,540.42
114.41426,541.67,544.85
114.43483,537.72,548.58
114.45431,527.05,551.89
114.47541,521.74,550.64
114.49406,517.46,549.79
114.51424,517.91,554.30
114.53413,520.12,554.30
114.55492,521.09,557.09
114.57512,525.49,563.65
114.59481,527.15,566.37
114.61577,532.37,570.81
114.63525,534.32,573.23
114.65530,537.15,574.49
114.67577,537.59,577.36
114.69527,541.67,580.98
114.71530,541.94,581.78
114.73567,542.41,583.77
114.75573,545.88,583.90
114.77460,544.06,581.98
114.79577,545.47,581.73
114.81539,544.07,579.00
114.83582,546.09,577.70
114.85541,539.05,578.59
114.87615,525.35,579.55
114.89618,508.87,578.44
114.91651,499.36,574.07
114.93652,491.47,572.02
114.95529,489.83,569.49
114.97519,491.31,568.60
114.99565,493.23,570.60
115.01543,497.77,567.06
115.03700,502.52,565.94
115.05566,508.35,566.99
115.07536,511.56,568.58
115.09568,514.00,572.00
115.11651,522.23,575.78
115.13508,534.33,583.48
115.15585,545.52,592.57
115.17700,555.04,597.45
115.19552,561.28,602.46
115.21517,564.71,601.26
115.23579,567.43,600.58
115.25567,567.53,601.57
115.27596,565.80,599.53
115.29526,568.23,603.58
115.31644,563.33,602.84
115.33698,560.51,597.34
115.35607,562.61,597.12
115.37529,560.27,591.24
115.39550,558.33,588.87
115.41575,560.11,585.72
115.43627,560.16,583.33
115.45625,558.18,580.12
115.47556,561.11,582.38
115.49617,561.05,587.60
115.51531,564.28,590.48
115.53629,565.33,589.77
115.55686,567.69,586.53
115.57594,568.23,585.41
115.59677,573.33,586.51
115.61539,574.81,584.35
115.63527,560.64,592.23
115.65554,542.90,599.56
115.67658,530.87,600.76
115.69535,526.80,599.52
115.71511,521.80,589.39
115.73592,526.49,585.22
115.75560,528.41,573.23
115.77640,533.68,567.05
115.79639,533.72,563.69
115.81506,537.22,560.53
115.83552,541.71,558.83
115.85627,544.30,550.12
115.87611,545.65,549.17
115.89625,549.76,570.93
115.91510,551.36,593.20
115.93551,551.25,601.82
115.95550,551.93,608.29
115.97623,551.12,608.01
115.99586,549.83,603.17
116.01517,548.43,601.85
116.03598,545.69,597.57
116.05678,544.33,595.20
116.07678,543.62,589.12
116.09605,543.51,588.21
116.11530,539.31,582.23
116.13607,541.84,579.33
116.15782,537.23,567.78
116.17876,531.87,541.38
116.19803,526.77,516.24
116.21883,523.75,503.86
116.23889,517.60,493.99
116.25842,516.64,490.17
116.27824,517.57,494.11
116.29773,519.14,497.56
116.31874,519.10,504.04
116.33871,520.01,516.79
116.36040,519.18,530.24
116.37933,519.89,563.40
116.39940,513.85,605.39
116.42081,501.81,652.83
116.44107,486.65,682.20
116.46070,471.05,698.71
116.48034,450.30,695.76
116.50095,433.94,679.82
116.52030,423.09,668.65
116.54112,419.43,647.96
116.56153,420.17,622.26
116.58187,419.19,588.44
116.60160,422.46,546.48
116.62131,433.28,511.79
116.64160,440.50,473.31
116.66185,450.95,467.52
116.68119,464.35,444.24
116.70173,476.98,421.70
116.72107,488.78,426.97
116.74014,493.95,424.77
116.76062,500.44,429.55
116.78032,511.37,451.73
116.80196,516.72,466.42
116.82143,515.13,475.53
116.84198,520.92,472.10
116.86161,527.11,475.92
116.88155,526.98,489.68
116.90114,524.04,514.90
116.92200,531.47,539.77
116.94129,564.40,576.44
116.96222,595.58,630.30
116.98243,635.60,652.81
117.00260,676.44,673.16
117.02161,706.21,667.28
117.04141,722.46,702.68
117.06187,738.71,694.13
117.08195,751.82,688.51
117.10109,746.92,713.17
117.12224,750.26,713.76
117.14281,733.10,715.14
117.16320,717.09,715.42
117.18320,702.97,690.83
117.20345,681.14,679.31
117.22239,664.65,670.70
117.24480,650.10,637.15
117.26329,630.46,597.22
117.28439,602.71,557.33
117.30537,579.68,522.84
117.32658,560.64,492.19
117.34647,539.32,447.22
117.36661,524.76,453.81
117.38525,519.94,440.75
117.40647,512.51,429.74
117.42535,500.78,431.69
117.44700,495.46,432.89
117.46510,487.22,459.21
117.48685,488.53,457.18
117.50517,489.86,453.42
117.52518,490.75,429.44
117.54650,493.26,434.53
117.56527,495.43,433.71
117.58588,483.48,425.51
117.60644,473.63,414.51
117.62662,468.30,424.85
117.64603,458.58,413.57
117.66508,459.53,450.68
117.68667,464.54,462.48
117.70693,475.12,467.75
117.72516,480.04,479.60
117.74673,488.20,470.59
117.76684,483.05,508.84
117.78653,483.23,508.13
117.80527,490.52,514.63
117.82570,497.89,523.90
117.84558,500.04,519.00
117.86614,508.94,536.92
117.88677,510.09,537.99
117.90549,510.65,564.34
117.92566,515.00,590.49
117.94556,517.55,619.68
