Program Time [s],data 0,data 1
6.44160,490.79,567.02
6.46245,491.77,565.25
6.48187,490.07,563.05
6.50192,492.33,560.57
6.52256,488.84,560.11
6.54266,490.30,557.15
6.56193,488.86,554.03
6.58160,489.45,553.73
6.60252,492.70,552.03
6.62125,497.60,551.10
6.64216,497.43,545.98
6.66131,503.33,545.57
6.68092,501.42,541.66
6.70157,498.42,539.24
6.72104,495.99,534.70
6.74144,496.56,536.62
6.76133,494.25,533.97
6.78259,493.14,531.69
6.80255,490.69,524.13
6.82336,489.59,520.04
6.84197,489.72,519.07
6.86321,488.67,519.26
6.88375,489.16,516.70
6.90229,486.30,519.25
6.92376,486.47,519.56
6.94227,483.61,519.75
6.96235,487.08,523.23
6.98225,482.64,525.83
7.00241,482.50,526.55
7.02220,483.36,531.15
7.04347,478.35,535.03
7.06205,479.99,539.35
7.08205,479.01,541.44
7.10258,477.42,541.86
7.12231,480.68,543.16
7.14345,479.22,541.51
7.16334,478.46,543.31
7.18277,480.76,542.26
7.20213,480.20,543.47
7.22282,480.68,543.96
7.24382,484.93,544.80
7.26231,486.22,544.62
7.28359,483.95,543.65
7.30389,483.25,541.88
7.32291,485.99,543.97
7.34267,485.92,541.31
7.36331,484.25,542.88
7.38381,485.27,542.80
7.40373,485.22,541.66
7.42292,483.42,541.75
7.44202,485.97,540.48
7.46232,483.33,540.20
7.48262,484.24,538.15
7.50362,486.44,540.83
7.52348,484.93,540.44
7.54315,487.00,540.07
7.56230,483.61,538.91
7.58340,484.39,538.02
7.60181,484.53,536.61
7.62214,485.80,538.70
7.64217,482.88,537.82
7.66305,482.04,532.57
7.68194,480.10,533.66
7.70223,479.31,530.58
7.72321,481.73,531.37
7.74354,479.75,528.77
7.76277,479.35,530.27
7.78290,480.30,530.84
7.80278,478.73,530.25
7.82349,481.12,531.37
7.84279,479.67,527.80
7.86188,479.19,531.04
7.88241,477.34,525.95
7.90353,478.91,526.97
7.92184,479.89,526.17
7.94289,480.20,524.22
7.96225,479.24,525.20
7.98303,481.08,525.59
8.00206,481.55,525.40
8.02258,484.34,524.11
8.04218,484.23,526.28
8.06214,481.56,524.97
8.08385,478.39,525.38
8.10357,481.53,525.63
8.12350,480.56,526.34
8.14385,479.66,526.62
8.16305,478.13,525.77
8.18462,480.82,523.23
8.20423,480.32,522.40
8.22317,479.68,522.67
8.24311,480.48,523.31
8.26429,482.36,519.51
8.28404,483.76,522.53
8.30296,483.27,521.91
8.32320,484.29,523.18
8.34437,480.21,521.25
8.36471,483.05,518.17
8.38407,481.59,513.43
8.40303,478.40,509.61
8.42451,476.95,508.16
8.44452,472.76,504.87
8.46456,471.64,506.51
8.48413,464.77,504.15
8.50390,462.07,506.78
8.52369,468.06,503.59
8.54335,467.20,504.03
8.56428,470.82,503.40
8.58440,473.71,503.22
8.60409,474.49,505.09
8.62379,474.46,510.32
8.64439,475.30,511.60
8.66308,477.18,514.59
8.68475,481.76,515.39
8.70444,483.15,523.12
8.72294,486.92,536.55
8.74470,494.41,554.36
8.76436,497.33,569.11
8.78342,494.14,577.30
8.80354,497.13,582.74
8.82410,497.98,578.39
8.84371,495.76,570.02
8.86311,493.05,557.09
8.88362,492.40,551.77
8.90398,492.63,541.54
8.92398,489.24,536.30
8.94309,487.98,529.49
8.96366,487.44,522.76
8.98382,485.23,520.91
9.00348,486.17,514.84
9.02261,487.77,514.53
9.04326,487.09,509.76
9.06299,485.12,515.57
9.08489,488.38,527.30
9.10375,488.05,538.83
9.12483,489.29,545.31
9.14408,490.58,546.30
9.16415,489.74,544.40
9.18418,488.87,542.58
9.20339,490.68,538.73
9.22397,492.42,537.01
9.24468,490.95,530.47
9.26396,487.10,533.83
9.28457,488.54,529.16
9.30475,487.47,524.87
9.32321,486.00,522.22
9.34472,483.27,520.39
9.36313,481.58,522.73
9.38420,483.58,522.08
9.40375,481.26,523.02
9.42360,482.16,526.01
9.44325,477.06,530.86
9.46508,479.08,529.86
9.48511,476.93,533.23
9.50553,479.16,536.21
9.52413,478.16,536.10
9.54537,480.74,540.80
9.56465,480.99,539.47
9.58490,480.50,537.15
9.60418,481.03,538.18
9.62518,481.01,536.24
9.64467,479.13,537.15
9.66495,481.90,534.07
9.68398,482.78,535.16
9.70510,479.36,532.01
9.72522,479.38,533.77
9.74473,477.23,534.56
9.76498,480.21,533.70
9.78512,476.59,534.32
9.80545,476.90,535.46
9.82503,475.50,534.83
9.84594,479.20,535.76
9.86617,479.69,535.86
9.88521,478.62,536.91
9.90506,479.50,539.46
9.92536,481.15,540.48
9.94739,478.66,540.22
9.96659,480.71,539.48
9.98729,482.86,541.74
10.00623,481.00,542.01
10.02736,483.16,542.39
10.04600,481.25,542.99
10.06628,480.90,542.90
10.08768,478.39,541.48
10.10788,478.65,541.47
10.12761,480.21,543.03
10.14656,477.98,539.45
10.16778,478.10,537.56
10.18627,478.38,538.24
10.20630,478.51,539.69
10.22625,479.23,536.63
10.24650,475.22,538.17
10.26578,476.83,539.35
10.28626,474.97,537.95
10.30641,477.30,539.23
10.32634,475.84,537.62
10.34752,478.75,541.56
10.36770,481.66,536.07
10.38688,477.85,523.88
10.40715,477.89,501.95
10.42735,475.23,484.87
10.44747,471.50,459.52
10.46583,467.45,441.15
10.48599,467.45,423.33
10.50584,464.27,413.36
10.52847,464.80,401.17
10.54880,462.71,399.96
10.56764,466.53,399.56
10.58697,464.96,405.24
10.60829,467.28,408.30
10.62812,470.52,414.27
10.64733,471.36,426.21
10.66802,473.26,436.30
10.68819,470.09,448.15
10.70777,473.05,459.31
10.72739,471.29,469.92
10.74733,474.02,480.50
10.76741,474.97,488.12
10.78741,477.91,494.54
10.80711,475.67,500.44
10.82794,478.73,504.20
10.84868,479.53,507.78
10.86843,478.19,512.72
10.88701,482.42,521.60
10.90806,485.11,524.92
10.92854,490.59,531.58
10.94847,490.74,534.47
10.96873,491.34,538.89
10.99025,490.23,538.74
11.01026,490.75,539.56
11.02987,490.41,540.70
11.05041,490.61,543.54
11.07087,491.62,540.88
11.08978,489.94,544.86
11.11040,490.45,543.86
11.13145,486.56,547.11
11.15059,486.52,545.88
11.17148,485.70,548.63
11.19087,483.85,547.10
11.21158,481.52,549.24
11.23118,479.60,550.20
11.24990,480.56,548.44
11.27115,478.68,549.45
11.29100,479.43,547.10
11.31187,480.96,548.49
11.33088,480.56,548.20
11.34992,477.29,549.70
11.37084,479.33,548.00
11.39137,478.70,546.60
11.41017,480.60,555.75
11.43018,483.02,585.35
11.45085,480.77,624.74
11.47047,484.53,669.99
11.49125,484.27,706.25
11.51161,486.65,725.06
11.53014,485.81,725.45
11.55139,488.12,715.72
11.57099,486.42,694.40
11.59058,485.87,674.47
11.61087,483.42,653.73
11.63189,481.38,642.06
11.65040,483.22,626.15
11.66999,482.21,612.46
11.69012,483.35,603.74
11.70986,483.83,594.34
11.73044,482.65,586.14
11.75130,480.58,581.92
11.77158,481.29,579.50
11.78996,482.84,572.79
11.81077,481.56,568.33
11.83113,484.01,564.30
11.85035,485.44,560.68
11.87150,482.94,559.09
11.88995,483.95,555.15
11.91102,485.59,553.31
11.93116,484.77,555.25
11.95034,485.18,554.89
11.97006,482.82,553.04
11.99073,481.06,549.43
12.01068,481.87,552.47
12.02974,481.05,550.40
12.05212,481.14,550.07
12.07141,480.81,550.99
12.09062,483.69,551.26
12.11171,483.40,549.28
12.13096,480.80,546.34
12.15131,480.79,544.21
12.17158,480.16,544.58
12.19078,483.44,545.88
12.21100,483.89,546.91
12.23152,480.25,545.32
12.25166,480.14,546.39
12.27264,481.90,544.02
12.29193,481.63,540.89
12.31131,479.01,544.02
12.33090,480.08,544.84
12.35176,482.55,543.27
12.37179,482.59,541.58
12.39112,484.73,541.10
12.41248,482.72,540.13
12.43203,483.42,537.24
12.45256,482.48,539.27
12.47181,483.79,538.34
12.49198,485.53,539.63
12.51142,485.62,543.56
12.53123,486.20,538.96
12.55101,485.95,540.25
12.57112,481.93,541.36
12.59089,483.47,543.33
12.61131,484.02,540.45
12.63269,483.58,542.69
12.65262,481.69,540.06
12.67101,484.35,539.11
12.69163,482.65,542.75
12.71240,481.69,542.35
12.73162,481.11,542.26
12.75253,482.35,539.19
12.77149,483.27,538.88
12.79201,479.54,539.49
12.81143,480.26,540.80
12.83219,481.53,538.55
12.85198,481.59,537.90
12.87104,479.10,536.84
12.89079,481.87,537.62
12.91114,479.44,540.41
12.93148,478.95,539.28
12.95219,481.48,538.08
12.97190,480.08,537.17
12.99079,480.92,536.99
13.01271,480.66,537.77
13.03143,481.57,538.34
13.05207,483.82,537.23
13.07221,483.29,540.55
13.09187,481.39,534.16
13.11207,482.33,525.70
13.13158,483.41,514.04
13.15200,480.84,502.92
13.17203,479.16,488.45
13.19084,477.57,475.50
13.21270,473.97,461.36
13.23304,470.89,448.95
13.25238,470.46,439.61
13.27183,468.29,432.06
13.29342,469.18,426.66
13.31268,470.96,421.01
13.33369,473.36,423.61
13.35268,471.12,425.76
13.37325,474.20,428.04
13.39223,475.81,432.63
13.41360,477.11,442.10
13.43288,479.44,450.96
13.45284,479.67,459.19
13.47299,481.91,469.70
13.49459,480.45,474.92
13.51427,479.59,485.18
13.53428,479.58,489.32
13.55524,482.30,497.85
13.57478,480.06,499.88
13.59373,479.50,506.21
13.61451,485.07,511.41
13.63426,484.93,515.17
13.65515,487.85,520.91
13.67538,488.98,524.21
13.69555,488.72,524.25
13.71537,488.72,528.48
13.73458,486.02,531.09
13.75580,485.31,530.03
13.77414,482.35,532.82
13.79541,481.98,535.63
13.81563,484.33,536.89
13.83452,483.62,537.80
13.85468,482.80,538.08
13.87496,480.99,535.86
13.89404,478.76,536.77
13.91512,480.45,536.72
13.93599,479.64,538.02
13.95506,480.00,536.57
13.97491,481.04,538.49
13.99575,483.47,538.47
14.01653,480.83,536.59
14.03586,481.05,534.31
14.05606,482.08,534.34
14.07527,481.74,536.13
14.09757,481.64,533.98
14.11583,480.88,536.35
14.13715,479.17,536.48
14.15818,481.26,535.29
14.17836,478.67,534.90
14.19696,480.64,537.82
14.21777,476.67,538.24
14.23792,476.54,538.90
14.25847,477.26,536.43
14.27860,476.87,537.03
14.29824,478.31,537.85
14.31730,477.96,536.56
14.33845,479.93,561.26
14.35677,481.07,594.30
14.37840,488.34,631.97
14.39861,486.65,672.54
14.41841,487.29,699.50
14.43916,488.23,712.67
14.45754,487.92,706.41
14.47846,487.97,694.78
14.49901,488.06,676.85
14.51830,487.21,660.17
14.53837,482.46,641.49
14.55778,483.95,628.30
14.57821,483.18,615.06
14.59983,482.00,605.11
14.61964,480.27,595.80
14.63866,481.17,584.87
14.65919,479.13,579.06
14.67831,479.37,575.54
14.69800,482.04,570.73
14.71880,482.60,569.82
14.73913,483.29,566.75
14.75982,480.63,564.82
14.77936,483.92,561.22
14.79982,484.16,557.82
14.82037,481.16,556.68
14.83994,481.87,551.07
14.86001,483.37,547.69
14.88041,484.87,548.98
14.90000,482.54,548.59
14.92065,482.40,547.62
14.93963,484.16,546.46
14.96197,481.47,546.74
14.98230,484.00,543.69
15.00086,480.35,544.94
15.02118,481.21,547.18
15.04089,482.02,549.61
15.06204,485.26,548.45
15.08234,484.17,549.34
15.10352,483.35,546.56
15.12221,483.94,547.13
15.14296,486.75,544.12
15.16232,484.06,546.60
15.18353,484.01,542.64
15.20317,483.03,541.64
15.22263,484.31,540.96
15.24213,479.93,540.70
15.26242,480.29,541.23
15.28302,479.56,543.19
15.30198,482.43,544.25
15.32224,480.45,543.54
15.34348,482.71,543.06
15.36476,482.42,547.47
15.38335,482.38,546.56
15.40462,483.08,546.57
15.42408,482.01,546.35
15.44436,480.31,545.08
15.46321,484.59,547.05
15.48397,484.66,543.24
15.50394,483.07,544.59
15.52305,483.92,545.55
15.54311,486.56,542.07
15.56421,485.06,544.66
15.58308,482.52,542.05
15.60395,483.97,544.45
15.62373,483.59,547.22
15.64459,483.79,546.08
15.66406,482.77,545.78
15.68462,482.19,543.42
15.70369,480.68,541.35
15.72398,481.26,542.31
15.74429,481.05,541.84
15.76449,481.09,542.93
15.78454,482.40,545.19
15.80403,484.45,544.42
15.82467,482.88,543.01
15.84421,482.84,545.18
15.86482,483.89,544.35
15.88455,481.14,543.44
15.90555,482.59,545.77
15.92526,479.16,544.06
15.94490,483.35,540.77
15.96417,479.94,543.82
15.98535,480.93,542.81
16.00418,482.76,540.84
16.02516,484.54,540.71
16.04400,481.14,540.15
16.06379,480.95,541.39
16.08417,480.95,542.16
16.10435,481.93,540.20
16.12381,483.13,540.43
16.14410,483.87,540.64
16.16416,482.11,542.07
16.18551,481.41,544.95
16.20641,482.02,543.49
16.22486,482.93,538.68
16.24465,482.84,540.00
16.26514,481.36,540.88
16.28525,483.47,540.99
16.30558,480.30,538.63
16.32622,480.58,538.55
16.34653,483.30,539.05
16.36679,483.46,538.37
16.38521,482.30,541.76
16.40596,480.45,541.55
16.42580,482.51,540.26
16.44659,482.03,541.07
16.46489,480.03,540.70
16.48538,482.05,540.08
16.50610,481.98,540.71
16.52520,480.25,539.52
16.54470,482.89,540.57
16.56609,480.08,543.16
16.58591,482.38,541.85
16.60595,483.81,539.31
16.62683,482.78,538.95
16.64702,481.69,540.12
16.66686,481.04,542.15
16.68711,483.00,541.57
16.70757,481.53,542.58
16.72582,482.64,543.01
16.74636,484.47,542.21
16.76633,482.98,538.17
16.78687,485.03,538.28
16.80734,482.50,537.74
16.82573,483.55,537.21
16.84634,484.55,537.98
16.86739,481.51,539.35
16.88561,482.27,541.55
16.90718,483.00,542.36
16.92728,481.61,539.48
16.94564,478.79,529.62
16.96654,477.69,516.72
16.98673,478.25,497.43
17.00662,470.49,479.79
17.02734,465.07,458.64
17.04601,459.36,441.63
17.06741,458.21,428.09
17.08792,455.05,415.68
17.10722,456.61,409.05
17.12760,458.24,409.68
17.14723,462.66,410.99
17.16744,464.23,410.86
17.18691,467.60,418.64
17.20755,471.16,424.99
17.22829,473.11,436.56
17.24829,476.83,446.69
17.26786,474.73,452.78
17.28734,476.06,463.58
17.30675,475.89,471.31
17.32707,476.60,482.05
17.34824,480.56,488.53
17.36785,479.07,494.29
17.38810,482.12,501.11
17.40843,480.56,504.86
17.42724,479.98,513.02
17.44834,484.00,514.96
17.46678,484.63,521.19
17.48695,486.34,530.73
17.50772,489.26,536.05
17.52686,494.02,541.01
17.54683,495.05,543.75
17.56756,495.56,544.67
17.58690,492.25,546.83
17.60686,491.07,546.27
17.62815,489.29,544.36
17.64658,489.12,545.54
17.66728,486.60,545.01
17.68731,485.25,545.58
17.70793,483.08,544.92
17.72674,484.19,541.95
17.74817,481.38,541.86
17.76823,482.11,541.99
17.78774,481.69,544.51
17.80735,480.17,541.50
17.82802,481.44,545.16
17.84766,479.84,544.23
17.86829,479.75,545.11
17.88677,482.51,543.71
17.90804,481.73,547.06
17.92665,482.35,543.72
17.94736,479.25,544.43
17.96775,478.61,547.23
17.98780,482.18,546.30
18.00840,483.95,545.56
18.02823,482.77,546.42
18.04724,483.60,544.12
18.06837,482.31,546.49
18.08825,483.64,545.52
18.10760,483.34,543.99
18.12699,480.99,541.61
18.14713,481.16,541.01
18.16711,484.03,549.30
18.18853,483.85,573.07
18.20795,485.69,611.88
18.22825,485.49,644.17
18.24763,488.30,677.22
18.26766,489.26,697.04
18.28726,491.09,712.92
18.30791,488.75,715.88
18.32709,490.42,708.82
18.34810,488.35,693.83
18.36833,490.93,677.49
18.38757,487.23,661.19
18.40666,486.49,642.83
18.42740,488.20,629.56
18.44859,488.73,615.78
18.46689,485.38,603.22
18.48782,484.73,590.92
18.50695,485.36,584.66
18.52796,482.81,576.88
18.54821,485.09,570.44
18.56823,483.58,564.36
18.58873,481.49,558.32
18.60718,480.08,554.80
18.62689,479.81,551.43
18.64678,478.07,547.04
18.66858,477.86,545.10
18.68746,477.92,544.82
18.70730,479.63,543.82
18.72700,478.36,545.49
18.74856,480.24,542.70
18.76810,483.14,546.91
18.78798,482.46,544.29
18.80696,482.27,545.05
18.82798,485.71,541.58
18.84770,486.38,542.91
18.86730,485.70,542.28
18.88792,484.69,543.16
18.90817,484.67,541.80
18.92792,484.65,541.46
18.94899,482.27,541.39
18.96882,484.56,543.75
18.98951,483.53,542.13
19.00809,480.59,539.97
19.02858,482.39,543.12
19.04831,483.14,545.06
19.06896,481.59,544.25
19.09035,483.24,542.67
19.10971,483.78,543.74
19.12908,479.30,543.07
19.14939,480.38,543.38
19.17034,482.54,539.88
19.19006,478.49,541.13
19.20937,478.63,542.13
19.22902,482.52,540.79
19.25047,483.60,540.54
19.26938,483.79,542.00
19.28898,484.82,543.91
19.31030,484.65,542.66
19.33038,485.07,543.23
19.35149,483.13,545.10
19.37187,481.28,542.38
19.39123,481.46,542.03
19.41238,480.31,542.98
19.43248,481.35,545.13
19.45063,481.27,542.04
19.47221,480.20,544.70
19.49055,482.16,543.14
19.51142,481.82,545.77
19.53211,483.21,542.97
19.55180,479.01,544.38
19.57343,482.91,546.92
19.59290,483.08,543.29
19.61286,480.62,541.51
19.63307,481.49,541.55
19.65348,479.33,540.24
19.67362,482.18,539.84
19.69281,481.27,538.56
19.71341,483.14,539.17
19.73300,482.70,541.35
19.75367,481.28,540.49
19.77390,479.70,543.43
19.79287,479.72,543.91
19.81297,479.80,542.83
19.83354,481.54,545.00
19.85478,480.48,543.60
19.87371,480.50,545.19
19.89535,481.06,545.16
19.91657,482.83,546.21
19.93647,484.40,544.65
19.95454,483.69,543.49
19.97633,481.02,541.50
19.99599,482.16,540.38
20.01590,484.60,540.99
20.03638,486.39,541.11
20.05619,485.99,540.94
20.07580,485.32,542.47
20.09661,483.89,541.32
20.11582,483.39,541.38
20.13572,486.00,541.69
20.15595,487.61,540.60
20.17739,486.90,540.17
20.19570,488.14,543.06
20.21722,485.49,540.97
20.23616,486.79,540.64
20.25598,484.15,543.48
20.27635,485.75,545.04
20.29589,485.14,541.82
20.31726,483.50,542.41
20.33659,487.54,542.06
20.35609,487.42,540.14
20.37674,484.56,541.24
20.39671,483.98,538.21
20.41667,486.65,542.26
20.43722,484.70,540.18
20.45614,482.90,542.87
20.47666,483.40,539.78
20.49714,482.41,526.60
20.51634,481.21,509.14
20.53637,484.60,486.08
20.55609,482.89,466.97
20.57721,485.67,450.02
20.59651,485.32,437.80
20.61698,480.26,428.58
20.63632,480.93,417.95
20.65703,480.12,414.67
20.67572,477.75,413.62
20.69565,476.81,413.63
20.71629,476.59,415.13
20.73728,476.34,423.18
20.75552,477.69,429.45
20.77612,475.99,440.36
20.79750,475.90,450.14
20.81625,475.14,459.81
20.83720,476.29,468.92
20.85591,478.15,475.83
20.87551,478.08,487.40
20.89681,478.68,491.60
20.91612,479.50,497.86
20.93689,477.55,504.00
20.95698,480.20,508.96
20.97628,483.48,515.30
20.99574,483.65,519.23
21.01717,484.18,522.57
21.03569,484.68,527.41
21.05563,485.23,528.84
21.07709,487.17,530.84
21.09660,484.43,532.13
21.11643,484.44,534.01
21.13733,482.83,535.49
21.15733,484.81,537.45
21.17577,485.30,538.92
21.19691,482.19,538.94
21.21744,485.30,540.16
21.23657,484.27,543.23
21.25725,484.85,544.68
21.27685,480.40,545.58
21.29610,483.02,543.48
21.31683,480.13,546.60
21.33610,481.62,546.00
21.35573,484.06,545.47
21.37551,482.99,546.19
21.39608,482.35,545.74
21.41768,482.57,546.25
21.43674,481.48,545.37
21.45601,481.96,541.95
21.47619,481.41,541.36
21.49701,482.77,539.79
21.51672,481.59,543.08
21.53656,481.65,567.15
21.55709,482.64,600.15
21.57742,483.86,635.81
21.59704,485.80,674.57
21.61625,488.45,706.14
21.63565,485.30,720.59
21.65605,486.75,722.54
21.67732,483.84,716.66
21.69611,486.85,701.88
21.71652,484.35,683.80
21.73733,482.92,664.90
21.75659,479.78,648.22
21.77632,478.12,632.92
21.79687,478.67,619.37
21.81719,477.02,608.35
21.83565,479.68,598.32
21.85593,480.72,590.23
21.87774,478.44,581.56
21.89637,478.62,576.24
21.91582,477.44,572.25
21.93690,478.14,565.73
21.95728,478.01,558.64
21.97725,482.06,554.94
21.99674,482.50,553.83
22.01700,480.97,552.64
22.03727,479.13,548.31
22.05803,480.52,544.38
22.07716,482.61,544.94
22.09670,482.20,544.16
22.11732,481.71,540.01
22.13819,484.12,543.52
22.15841,483.33,542.05
22.17769,482.67,539.61
22.19668,481.24,539.33
22.21792,482.33,540.74
22.23708,481.87,537.44
22.25763,484.55,540.26
22.27769,484.60,541.15
22.29779,484.31,539.62
22.31699,484.06,541.95
22.33729,480.64,540.54
22.35751,481.89,539.96
22.37841,481.81,539.34
22.39809,481.92,538.67
22.41786,479.30,539.24
22.43755,479.94,540.52
22.45788,480.67,538.81
22.47678,479.56,540.79
22.49740,482.59,540.08
22.51738,482.62,541.26
22.53779,482.78,540.81
22.55717,482.33,542.11
22.57840,483.47,542.86
22.59662,481.47,540.98
22.61743,482.48,542.30
22.63748,481.63,538.72
22.65718,482.05,538.07
22.67633,482.59,540.84
22.69711,481.78,537.54
22.71718,482.86,541.14
22.73701,484.64,540.19
22.75780,483.77,539.21
22.77631,482.95,539.77
22.79791,484.44,540.91
22.81774,480.62,543.21
22.83657,481.76,540.32
22.85659,479.97,540.69
22.87819,479.03,542.31
22.89745,479.40,543.50
22.91812,477.84,544.93
22.93677,482.10,543.97
22.95790,479.66,543.39
22.97763,481.47,542.55
22.99845,482.81,540.69
23.01711,481.99,540.65
23.03746,483.46,540.70
23.05671,483.61,540.40
23.07679,481.82,540.83
23.09697,484.22,540.45
23.11791,480.77,541.24
23.13815,481.49,540.83
23.15795,480.03,540.92
23.17777,481.82,539.44
23.19735,481.66,541.21
23.21721,479.31,541.15
23.23734,479.39,539.40
23.25811,479.28,541.30
23.27707,479.95,543.63
23.29683,480.38,540.92
23.31831,479.43,541.94
23.33844,478.72,538.70
23.35841,478.86,540.91
23.37765,480.75,538.61
23.39666,483.36,541.25
23.41830,480.41,536.60
23.43830,481.91,537.88
23.45851,478.83,534.89
23.47818,481.42,536.34
23.49739,479.02,537.32
23.51658,482.88,538.26
23.53795,479.61,540.03
23.55664,480.85,537.60
23.57809,481.18,539.05
23.59826,478.74,537.02
23.61666,479.96,536.89
23.63780,481.71,538.52
23.65766,480.84,541.50
23.67686,477.62,537.54
23.69795,479.81,538.64
23.71948,480.58,539.78
23.73820,478.71,538.44
23.75758,475.67,537.95
23.77802,478.31,540.81
23.79923,476.48,540.58
23.81776,479.64,539.29
23.83822,478.71,537.88
23.86021,477.22,538.50
23.88030,477.48,537.85
23.90052,477.47,536.74
23.92025,479.58,538.32
23.94094,479.38,537.96
23.96026,481.76,539.57
23.98000,478.43,541.95
24.00017,481.98,540.94
24.02061,480.61,540.86
24.04099,482.50,542.01
24.05971,482.34,541.43
24.08239,478.66,545.66
24.10221,478.04,541.10
24.12096,479.46,528.97
24.14173,480.85,515.61
24.16243,479.90,503.16
24.18286,482.10,488.14
24.20287,483.00,474.29
24.22346,480.60,461.89
24.24218,480.53,449.46
24.26148,479.40,439.52
24.28248,476.47,429.25
24.30232,477.68,422.23
24.32264,475.70,419.75
24.34356,477.64,417.97
24.36347,477.56,421.29
24.38285,475.53,424.08
24.40251,477.01,432.94
24.42449,476.08,439.87
24.44267,477.47,449.38
24.46316,477.09,455.91
24.48417,480.89,465.14
24.50255,480.85,474.05
24.52419,478.46,483.32
24.54386,481.20,491.29
24.56298,479.25,497.92
24.58405,484.32,505.48
24.60293,481.92,512.69
24.62391,482.63,518.01
24.64384,485.43,522.68
24.66302,481.87,528.83
24.68293,482.58,530.24
24.70310,483.62,533.19
24.72403,482.31,534.09
24.74252,482.75,535.05
24.76376,482.95,539.51
24.78233,480.28,541.70
24.80333,478.89,544.62
24.82407,480.96,545.27
24.84400,478.13,547.97
24.86367,479.01,547.54
24.88369,478.41,547.75
24.90376,479.77,549.69
24.92388,478.43,549.22
24.94436,480.76,549.29
24.96397,482.64,548.33
24.98286,481.55,548.73
25.00289,482.94,546.93
25.02291,481.24,549.75
25.04337,481.35,547.19
25.06410,480.16,547.67
25.08288,479.46,547.52
25.10263,481.60,547.65
25.12431,480.28,545.16
25.14385,481.39,543.65
25.16445,480.99,544.49
25.18448,482.61,546.49
25.20476,481.68,551.60
25.22511,481.13,574.75
25.24517,478.92,605.96
25.26519,481.21,641.11
25.28530,481.28,672.82
25.30503,479.19,694.03
25.32455,483.10,711.36
25.34398,484.63,719.88
25.36420,486.05,717.82
25.38458,487.20,700.02
25.40351,487.26,686.56
25.42536,485.22,667.62
25.44453,482.46,648.97
25.46507,480.52,627.91
25.48496,480.54,614.41
25.50513,481.01,601.75
25.52523,482.90,593.58
25.54554,483.83,581.46
25.56563,479.47,575.48
25.58482,481.89,568.89
25.60581,483.90,566.56
25.62585,483.08,561.78
25.64570,485.27,560.74
25.66620,486.02,556.41
25.68507,483.71,556.34
25.70633,482.34,554.64
25.72450,483.44,551.36
25.74687,482.99,549.05
25.76697,483.47,547.91
25.78576,485.16,545.62
25.80681,484.69,544.89
25.82545,482.25,546.70
25.84661,484.72,543.21
25.86641,485.23,544.50
25.88682,482.96,544.79
25.90540,484.52,544.46
25.92555,481.54,542.41
25.94564,483.61,545.96
25.96718,484.66,544.08
25.98608,483.95,544.34
26.00680,483.10,543.20
26.02625,484.77,545.98
26.04596,483.09,545.11
26.06581,484.58,543.67
26.08573,484.69,543.72
26.10683,484.67,545.46
26.12664,485.40,544.53
26.14574,485.14,545.14
26.16555,484.22,544.17
26.18549,484.20,546.77
26.20546,483.94,543.76
26.22605,482.33,546.71
26.24540,483.39,543.92
26.26620,480.84,545.02
26.28660,480.32,544.40
26.30583,481.42,544.15
26.32670,479.76,542.67
26.34756,481.62,543.30
26.36739,480.65,541.84
26.38624,481.67,542.23
26.40631,481.11,540.81
26.42695,483.94,544.75
26.44625,481.73,543.26
26.46568,479.98,541.02
26.48551,481.51,542.86
26.50551,482.08,541.51
26.52612,480.44,540.19
26.54611,482.54,540.40
26.56563,480.85,541.17
26.58642,480.89,540.75
26.60639,482.72,539.72
26.62698,480.26,542.30
26.64640,483.00,541.69
26.66701,484.87,542.55
26.68543,485.88,539.58
26.70617,485.73,542.28
26.72732,485.04,542.57
26.74544,483.66,542.53
26.76636,483.91,541.86
26.78736,485.14,540.90
26.80549,483.50,543.34
26.82553,479.61,543.21
26.84707,480.52,545.11
26.86673,481.50,543.12
26.88578,480.65,545.02
26.90604,480.46,543.74
26.92681,478.40,544.33
26.94653,478.60,542.25
26.96705,477.48,540.72
26.98730,480.73,540.81
27.00654,478.36,544.07
27.02588,482.80,542.49
27.04567,480.51,542.37
27.06554,480.15,544.68
27.08666,479.57,543.46
27.10622,481.97,543.31
27.12704,478.88,541.12
27.14642,479.47,541.32
27.16650,478.37,540.33
27.18620,476.56,541.77
27.20660,477.07,539.15
27.22545,479.56,541.64
27.24571,479.85,538.96
27.26570,478.23,540.69
27.28564,481.67,539.35
27.30580,481.45,540.43
27.32657,479.12,536.97
27.34735,482.01,538.19
27.36629,482.71,538.90
27.38559,480.17,536.36
27.40594,483.56,538.40
27.42667,484.79,539.43
27.44575,483.38,542.91
27.46561,484.13,543.28
27.48693,481.35,539.60
27.50679,482.39,532.96
27.52560,477.87,515.38
27.54687,473.07,498.88
27.56691,472.03,483.52
27.58542,467.42,468.03
27.60717,461.27,455.77
27.62565,460.26,446.43
27.64557,456.88,438.43
27.66798,456.08,430.07
27.68654,458.86,426.38
27.70759,460.16,425.82
27.72757,462.53,425.48
27.74741,464.33,428.95
27.76683,465.70,430.78
27.78728,465.73,436.33
27.80831,468.75,442.97
27.82726,472.30,449.48
27.84835,476.69,456.62
27.86667,476.32,464.85
27.88691,480.31,470.96
27.90799,481.52,481.14
27.92795,481.85,488.02
27.94780,481.54,495.43
27.96784,481.94,497.85
27.98668,481.78,502.95
28.00763,484.01,508.46
28.02852,482.17,514.30
28.04789,483.61,518.26
28.06752,486.67,525.44
28.08732,486.89,527.46
28.10814,486.06,532.50
28.12649,488.92,534.31
28.14801,487.05,536.84
28.16672,487.74,538.30
28.18808,488.94,539.80
28.20685,486.25,538.00
28.22750,488.11,539.86
28.24681,487.73,539.23
28.26756,486.30,538.53
28.28650,487.03,540.99
28.30807,484.05,539.45
28.32760,486.58,538.34
28.34753,483.21,540.14
28.36825,484.86,538.00
28.38799,485.76,539.52
28.40788,484.98,542.22
28.42800,485.38,541.28
28.44706,483.48,543.35
28.46682,483.58,542.60
28.48706,484.67,543.13
28.50715,481.91,544.11
28.52807,481.95,545.49
28.54676,482.46,542.92
28.56753,481.25,543.69
28.58788,481.76,541.32
28.60628,482.70,540.44
28.62690,481.42,541.28
28.64685,481.67,557.99
28.66790,482.08,586.98
28.68697,488.37,628.69
28.70760,494.39,675.12
28.72748,503.73,730.85
28.74653,507.95,779.70
28.76661,510.36,809.81
28.78824,508.49,816.78
28.80628,510.58,808.51
28.82757,502.34,792.77
28.84710,498.39,760.68
28.86833,491.64,728.63
28.88677,484.98,690.48
28.90809,481.22,653.44
28.92798,478.02,623.09
28.94829,473.77,593.31
28.96691,469.04,569.68
28.98783,469.04,550.59
29.00721,468.52,535.61
29.02705,468.19,523.53
29.04770,466.80,514.56
29.06770,466.92,508.98
29.08759,467.10,507.24
29.10776,467.28,503.64
29.12807,468.20,506.24
29.14797,469.39,506.28
29.16733,473.60,506.81
29.18764,477.10,510.54
29.20828,477.90,511.21
29.22647,477.79,516.89
29.24790,480.03,517.36
29.26696,478.51,519.83
29.28812,479.89,519.95
29.30726,480.19,522.74
29.32754,481.34,523.78
29.34784,482.70,525.10
29.36808,484.10,528.27
29.38647,483.12,531.43
29.40674,481.14,531.08
29.42645,481.28,531.84
29.44727,481.67,534.05
29.46747,480.70,533.17
29.48773,479.32,534.02
29.50912,480.35,536.14
29.52753,480.20,534.24
29.54856,478.26,537.01
29.56765,480.85,539.00
29.58928,481.82,537.30
29.60819,481.54,538.93
29.62848,479.65,536.27
29.64842,479.08,536.86
29.66765,478.36,538.71
29.68848,479.79,537.51
29.70846,478.80,540.51
29.72941,479.07,537.78
29.75018,479.10,538.93
29.77023,479.59,538.53
29.79012,480.18,542.52
29.80865,480.57,541.95
29.82890,477.81,542.51
29.85032,477.96,540.33
29.86987,476.99,543.10
29.89003,480.92,542.26
29.91010,478.61,542.99
29.92905,481.03,541.95
29.94999,481.61,544.39
29.96967,481.09,542.86
29.99038,477.94,545.55
30.00959,477.03,545.17
30.03018,477.57,544.27
30.04861,479.09,542.39
30.06954,477.13,541.41
30.08892,476.54,540.62
30.10886,477.73,541.95
30.12947,477.33,541.55
30.14871,477.27,539.45
30.16982,476.88,541.25
30.19008,479.09,542.47
30.20835,477.69,540.98
30.23033,477.52,542.57
30.24909,479.45,539.65
30.26926,480.43,542.88
30.28850,480.17,542.31
30.30947,477.23,540.26
30.32938,478.48,543.52
30.34899,477.72,542.00
30.36878,478.74,542.30
30.38942,481.29,542.49
30.40981,479.96,540.50
30.42908,481.48,542.68
30.44907,481.30,542.87
30.46935,479.84,545.52
30.48899,480.31,538.29
30.50906,483.49,526.50
30.52946,480.75,512.12
30.54924,480.85,490.22
30.57006,478.60,475.20
30.59014,477.72,458.44
30.60938,475.31,443.33
30.62949,471.34,431.51
30.64970,472.09,420.68
30.67037,469.73,416.07
30.69007,472.33,413.95
30.70979,470.62,415.15
30.72900,475.82,417.57
30.74969,475.91,422.85
30.76879,477.15,431.51
30.79043,477.43,440.29
30.80870,478.06,449.74
30.83013,480.76,459.29
30.84864,480.62,467.33
30.87028,479.75,476.27
30.88908,481.23,484.09
30.90969,481.33,494.40
30.92981,480.09,498.49
30.95007,480.52,502.03
30.96889,479.47,508.30
30.99008,482.07,519.78
31.00977,483.33,531.72
31.02941,483.98,538.04
31.04868,482.37,545.44
31.06837,481.81,544.68
31.08868,482.12,549.03
31.10944,485.97,547.89
31.12898,485.51,547.95
31.15029,483.64,550.89
31.16964,484.54,550.41
31.18926,484.77,548.17
31.21027,482.12,548.00
31.22995,483.68,545.24
31.25094,483.53,545.49
31.27053,485.04,544.57
31.29004,479.12,544.77
31.31019,478.49,541.71
31.32942,479.90,542.64
31.34933,478.99,542.72
31.37052,480.63,541.53
31.39010,478.61,542.59
31.41018,481.67,541.45
31.43009,481.55,540.03
31.44923,483.06,538.17
31.46946,482.44,540.09
31.49089,483.19,539.62
31.51031,481.28,538.61
31.52943,483.60,551.47
31.55058,485.21,582.51
31.57006,486.59,623.37
31.59056,490.92,660.47
31.61092,489.06,693.72
31.62933,488.21,710.58
31.64951,487.79,711.24
31.67066,487.05,701.16
31.69104,481.05,687.91
31.71006,480.64,670.91
31.73054,479.61,655.04
31.75095,482.27,640.30
31.77056,478.46,623.23
31.78939,480.33,612.85
31.80959,480.81,599.24
31.83090,479.21,592.03
31.85071,479.76,585.76
31.87077,483.97,576.16
31.88957,481.70,575.28
31.91087,479.90,568.54
31.92963,480.67,563.67
31.95075,481.77,561.83
31.97070,481.24,556.37
31.99129,483.23,555.23
32.01101,486.06,552.52
32.02958,486.46,553.38
32.05028,485.55,552.02
32.06978,483.21,548.11
32.08936,483.82,546.17
32.11085,485.52,548.34
32.13115,485.60,547.53
32.14979,485.75,544.19
32.16934,485.06,542.28
32.18928,483.00,541.83
32.21154,483.19,542.74
32.22969,480.75,545.36
32.25008,482.18,543.46
32.27113,481.27,541.87
32.29139,482.96,543.82
32.31003,481.92,542.65
32.33078,483.53,545.41
32.35025,480.87,546.10
32.36937,483.62,544.91
32.38953,484.18,546.91
32.41122,482.69,547.87
32.43127,480.83,548.73
32.45042,482.00,544.29
32.47046,480.63,548.86
32.49066,479.33,543.89
32.51119,479.95,547.77
32.53001,482.30,544.95
32.55129,481.73,545.51
32.57037,484.13,547.72
32.59104,482.54,546.89
32.60941,482.25,544.25
32.63118,484.88,547.08
32.65011,481.70,543.49
32.67081,483.86,546.12
32.69108,482.54,545.75
32.71006,479.73,546.12
32.72974,481.49,546.81
32.75014,480.08,547.56
32.76953,482.40,544.82
32.79054,479.97,545.07
32.81118,480.58,544.91
32.83037,477.86,546.71
32.85088,477.81,544.64
32.86945,479.79,544.78
32.89114,479.88,546.43
32.91089,480.92,544.46
32.93083,478.76,543.61
32.95139,480.98,541.22
32.96979,480.78,541.98
32.99085,480.50,543.35
33.01019,480.95,543.92
33.02995,483.71,544.58
33.04986,482.07,545.17
33.07001,480.26,542.21
33.09129,480.38,543.69
33.11116,480.18,542.11
33.13090,480.42,542.76
33.14957,479.86,544.15
33.17019,481.02,543.41
33.19115,481.74,542.79
33.20963,481.50,540.86
33.23083,481.55,543.15
33.25029,481.64,545.11
33.27096,481.20,544.31
33.28987,481.72,545.40
33.31058,481.12,542.23
33.32955,478.80,542.87
33.34980,479.27,544.75
33.36967,480.98,545.14
33.39029,480.09,548.92
33.41095,477.73,547.12
33.43101,480.84,545.40
33.45013,482.07,547.58
33.46972,479.49,548.43
33.49080,479.43,545.72
33.50934,481.42,545.48
33.52931,482.41,550.21
33.55086,483.88,547.13
33.57050,483.21,546.57
33.58992,479.61,544.88
33.61071,482.90,546.94
33.63108,479.49,545.33
33.65090,482.27,547.36
33.66975,482.07,543.74
33.69061,484.39,534.62
33.70933,479.66,514.85
33.73051,478.72,495.08
33.75000,474.14,472.00
33.77096,470.09,450.61
33.79002,467.92,436.91
33.81138,467.87,424.52
33.82939,467.34,415.12
33.85007,467.79,414.23
33.86996,467.71,414.12
33.89075,469.60,418.66
33.90962,469.92,423.16
33.93116,473.95,430.95
33.95091,474.02,445.29
33.97058,477.17,452.60
33.99062,478.58,463.21
34.01009,476.68,474.05
34.02955,477.54,484.27
34.04919,478.93,492.22
34.06945,480.73,499.66
34.09118,482.48,502.14
34.11113,480.63,510.69
34.13064,482.03,513.42
34.14942,482.61,517.93
34.17104,482.20,521.52
34.19042,483.90,524.51
34.21017,484.20,528.96
34.22998,485.07,531.68
34.24955,487.40,534.60
34.27022,492.31,538.20
34.28976,489.36,544.74
34.30935,489.58,542.85
34.32940,489.60,544.06
34.35072,489.19,546.31
34.37038,490.16,545.73
34.39125,487.97,544.61
34.41063,488.96,543.89
34.43206,488.55,545.59
34.45075,486.49,543.47
34.47087,487.66,542.81
34.49040,486.54,545.69
34.51108,488.10,545.85
34.53057,487.86,543.30
34.55148,484.26,545.22
34.57071,483.25,543.99
34.59189,484.58,544.37
34.61173,480.65,541.41
34.63045,483.15,539.87
34.65091,482.40,541.89
34.67185,481.92,551.16
34.69081,483.31,571.02
34.71215,484.79,604.01
34.73106,482.88,642.47
34.75051,486.71,677.16
34.77120,485.67,702.65
34.79174,488.02,710.69
34.81207,487.12,710.41
34.83166,487.45,696.11
34.85123,485.25,681.65
34.87222,483.02,666.59
34.89039,481.79,649.43
34.91324,481.72,631.47
34.93234,481.78,617.39
34.95208,482.04,606.18
34.97208,482.22,598.67
34.99249,480.15,594.84
35.01193,481.67,598.27
35.03253,480.76,599.71
35.05180,483.01,594.93
35.07211,483.32,592.86
35.09188,482.89,589.47
35.11225,480.71,583.53
35.13138,481.77,579.75
35.15146,479.32,573.38
35.17264,482.24,568.68
35.19331,482.82,566.06
35.21407,482.86,563.11
35.23362,483.31,562.86
35.25296,483.04,558.92
35.27325,481.90,559.58
35.29374,480.28,554.89
35.31232,481.08,556.77
35.33251,479.39,552.81
35.35234,480.14,552.79
35.37361,480.75,549.90
35.39264,479.28,548.38
35.41413,477.05,549.21
35.43232,478.63,547.98
35.45275,476.27,546.71
35.47284,477.52,546.80
35.49419,479.33,548.20
35.51336,481.10,548.99
35.53436,478.66,546.17
35.55349,478.50,544.37
35.57354,478.14,546.08
35.59356,480.17,541.87
35.61509,481.91,544.07
35.63337,482.07,541.85
35.65474,483.45,545.35
35.67393,480.09,542.68
35.69350,480.33,542.02
35.71453,481.67,544.73
35.73321,478.17,542.32
35.75474,478.79,544.29
35.77347,478.80,545.03
35.79460,478.63,545.19
35.81465,479.50,542.93
35.83467,477.99,543.65
35.85501,477.96,545.05
35.87396,478.19,542.62
35.89417,480.14,545.67
35.91415,478.09,544.93
35.93495,478.25,544.38
35.95392,479.12,544.58
35.97445,478.18,545.89
35.99389,480.77,544.03
36.01514,479.46,545.27
36.03429,480.29,546.58
36.05372,481.42,545.60
36.07305,478.59,543.97
36.09454,481.62,543.46
36.11444,482.32,542.60
36.13495,481.87,541.28
36.15387,483.72,542.16
36.17433,482.38,542.15
36.19409,484.23,541.71
36.21390,484.40,538.07
36.23330,483.53,541.71
36.25518,485.17,540.60
36.27351,484.63,541.86
36.29350,482.54,540.41
36.31332,483.18,540.92
36.33384,481.98,538.90
36.35483,484.66,539.70
36.37483,484.81,538.93
36.39414,482.63,541.49
36.41399,481.84,542.73
36.43478,482.98,537.66
36.45434,484.39,541.00
36.47388,483.28,538.51
36.49479,481.60,540.44
36.51490,484.37,540.64
36.53338,483.38,541.75
36.55494,486.75,544.24
36.57366,482.79,536.39
36.59428,480.89,530.25
36.61503,479.49,518.44
36.63425,481.01,506.40
36.65414,479.33,490.41
36.67327,477.81,474.64
36.69342,477.79,460.66
36.71337,477.33,446.08
36.73408,476.56,436.47
36.75374,471.35,428.36
36.77481,470.77,426.85
36.79503,472.15,422.62
36.81422,473.56,419.26
36.83503,473.70,422.01
36.85447,472.00,425.42
36.87348,474.18,430.41
36.89407,476.67,438.69
36.91414,475.08,446.54
36.93408,478.20,456.44
36.95368,479.87,464.68
36.97420,481.07,472.65
36.99506,480.42,479.79
37.01536,484.06,489.05
37.03448,484.00,495.88
37.05469,483.57,502.64
37.07501,483.27,506.97
37.09425,481.42,513.04
37.11445,481.72,516.79
37.13326,485.47,521.17
37.15353,485.17,524.38
37.17459,483.21,525.65
37.19425,482.91,529.58
37.21491,486.40,529.65
37.23375,484.05,533.62
37.25486,484.68,531.48
37.27503,483.49,532.87
37.29452,482.12,534.07
37.31397,482.34,537.13
37.33359,478.92,538.83
37.35433,481.90,537.34
37.37425,480.11,536.82
37.39365,482.20,538.58
37.41489,482.09,539.71
37.43422,480.14,538.33
37.45423,478.86,540.17
37.47502,478.30,538.25
37.49388,481.80,539.68
37.51338,478.73,541.07
37.53337,479.10,539.28
37.55466,479.66,538.09
37.57375,481.81,545.78
37.59396,478.32,565.70
37.61332,480.91,598.52
37.63394,478.87,640.16
37.65428,480.15,678.40
37.67333,480.05,706.19
37.69478,484.97,723.14
37.71378,483.75,730.89
37.73325,487.09,724.15
37.75399,484.58,709.83
37.77475,485.54,690.14
37.79319,485.37,671.18
37.81402,484.51,652.61
37.83435,485.12,636.78
37.85393,484.41,624.51
37.87354,481.44,611.23
37.89402,483.94,597.82
37.91420,482.45,592.34
37.93461,484.19,581.74
37.95487,484.40,575.43
37.97490,483.04,567.15
37.99511,481.93,562.58
38.01343,482.30,559.91
38.03355,483.56,553.77
38.05465,482.38,552.32
38.07392,481.76,551.37
38.09472,481.48,546.44
38.11321,479.84,545.82
38.13355,480.60,545.44
38.15463,479.73,542.46
38.17366,479.46,542.69
38.19409,477.67,543.97
38.21374,480.88,543.74
38.23444,480.76,541.97
38.25448,482.66,540.20
38.27368,480.71,540.02
38.29478,478.99,541.22
38.31412,480.77,538.61
38.33401,479.95,538.95
38.35393,479.02,542.04
38.37418,478.27,541.68
38.39474,476.48,538.35
38.41333,479.11,541.20
38.43400,479.68,540.30
38.45471,478.28,541.33
38.47448,475.25,539.59
38.49435,477.15,538.25
38.51313,480.07,539.45
38.53498,476.03,540.11
38.55328,476.69,540.31
38.57487,479.31,540.55
38.59407,478.46,542.30
38.61509,474.98,544.12
38.63359,474.55,541.27
38.65477,476.45,540.22
38.67312,477.39,540.35
38.69327,478.54,540.56
38.71446,479.48,538.99
38.73446,480.01,541.34
38.75424,481.13,541.96
38.77366,478.94,540.05
38.79343,478.00,538.69
38.81323,480.27,539.84
38.83462,479.37,543.27
38.85330,479.61,540.01
38.87336,481.38,542.56
38.89441,479.71,540.64
38.91329,482.29,540.29
38.93458,483.65,540.51
38.95332,482.34,541.53
38.97342,480.70,539.21
38.99414,481.78,538.69
39.01397,482.24,539.80
39.03335,478.41,539.41
39.05407,481.24,537.96
39.07404,480.79,537.02
39.09433,483.84,538.50
39.11433,483.93,536.69
39.13393,482.30,537.19
39.15465,480.36,536.88
39.17369,482.85,536.97
39.19461,480.29,538.40
39.21388,483.39,534.09
39.23431,479.81,534.81
39.25477,483.51,537.53
39.27481,480.02,537.53
39.29345,481.80,537.02
39.31465,483.16,536.94
39.33352,479.98,539.13
39.35426,480.63,540.86
39.37453,479.88,539.31
39.39359,480.44,538.86
39.41446,479.18,539.18
39.43470,482.61,539.39
39.45446,479.70,543.40
39.47348,482.88,540.79
39.49440,480.85,530.32
39.51341,480.92,513.51
39.53339,476.78,494.61
39.55361,476.33,478.36
39.57315,474.28,462.14
39.59466,476.63,446.12
39.61394,472.55,434.51
39.63346,472.66,428.66
39.65461,473.86,420.66
39.67418,472.30,419.52
39.69336,472.14,417.96
39.71470,473.12,416.44
39.73368,470.76,419.19
39.75480,471.03,424.37
39.77339,471.31,428.95
39.79393,472.16,435.45
39.81440,473.76,440.35
39.83492,473.40,446.59
39.85351,472.37,455.61
39.87446,476.30,463.90
39.89397,473.96,474.57
39.91471,475.44,482.44
39.93328,475.47,488.42
39.95390,474.88,494.94
39.97414,473.69,501.25
39.99380,473.48,505.52
40.01487,474.38,512.48
40.03439,476.10,515.27
40.05419,476.53,520.16
40.07557,478.92,520.90
40.09475,478.34,524.21
40.11413,475.27,531.85
40.13556,480.60,535.57
40.15482,480.61,542.48
40.17527,480.85,546.11
40.19488,483.39,549.41
40.21505,484.68,553.53
40.23634,487.31,554.45
40.25572,487.20,552.54
40.27580,486.93,554.17
40.29682,485.02,551.43
40.31578,483.79,552.30
40.33538,482.68,551.70
40.35499,483.27,551.55
40.37555,483.82,551.18
40.39576,486.53,550.19
40.41573,486.35,549.75
40.43654,484.14,546.32
40.45633,486.90,546.40
40.47685,487.02,546.48
40.49618,486.80,546.80
40.51559,485.61,545.61
40.53569,485.86,544.48
40.55635,486.36,549.92
40.57556,484.43,574.85
40.59602,482.57,611.38
40.61660,486.27,651.15
40.63666,483.37,687.25
40.65633,482.84,711.23
40.67539,485.17,722.84
40.69557,481.47,720.16
40.71520,482.40,712.46
40.73562,482.30,694.47
40.75693,479.68,672.52
40.77633,478.89,656.68
40.79641,478.54,636.52
40.81612,477.80,619.05
40.83669,479.48,609.45
40.85623,478.24,597.52
40.87599,478.52,590.28
40.89646,476.20,578.66
40.91691,478.97,572.83
40.93633,478.06,569.23
40.95585,478.81,563.68
40.97630,480.69,558.49
40.99536,481.30,554.16
41.01559,477.97,552.13
41.03629,479.06,551.33
41.05664,480.52,548.31
41.07572,478.44,549.12
41.09668,477.52,544.93
41.11690,478.91,546.80
41.13556,480.41,546.81
41.15616,479.72,545.60
41.17637,478.70,543.86
41.19645,479.39,549.47
41.21727,485.32,549.17
41.23611,488.63,548.56
41.25523,485.23,549.07
41.27662,487.11,552.44
41.29635,489.26,550.27
41.31612,487.30,549.90
41.33578,488.80,549.31
41.35602,486.69,550.23
41.37642,487.65,548.00
41.39680,489.16,548.06
41.41664,487.97,549.16
41.43571,490.20,548.47
41.45527,490.15,545.37
41.47608,486.89,542.63
41.49548,487.02,544.77
41.51697,484.93,541.54
41.53530,486.19,541.65
41.55587,483.29,543.29
41.57532,484.29,543.89
41.59541,485.92,544.73
41.61568,482.95,547.46
41.63539,484.90,545.12
41.65615,480.30,545.31
41.67554,480.58,544.29
41.69603,482.06,546.32
41.71573,479.37,543.17
41.73647,482.97,545.40
41.75524,481.28,541.65
41.77678,479.02,541.20
41.79696,481.26,544.94
41.81647,478.89,544.53
41.83563,481.42,543.81
41.85603,479.68,544.58
41.87574,480.74,541.30
41.89607,481.48,542.22
41.91709,480.74,541.36
41.93527,480.14,540.25
41.95690,482.33,538.86
41.97592,480.64,540.42
41.99694,481.78,540.95
42.01710,481.42,542.43
42.03696,481.23,541.45
42.05643,479.76,541.74
42.07572,482.01,539.76
42.09519,480.92,540.88
42.11651,482.33,542.28
42.13590,480.37,542.88
42.15655,483.88,542.64
42.17691,482.21,545.60
42.19675,481.37,537.93
42.21674,480.00,532.37
42.23669,482.18,526.80
42.25691,480.83,524.19
42.27662,480.22,521.56
42.29719,481.36,522.24
42.31796,482.18,522.67
42.33729,482.76,525.28
42.35773,481.90,524.88
42.37765,482.14,529.49
42.39694,481.47,528.45
42.41613,482.79,532.20
42.43612,480.44,533.15
42.45770,483.39,530.02
42.47632,484.56,534.97
42.49771,484.86,533.63
42.51696,483.96,536.03
42.53780,481.06,535.05
42.55646,479.58,528.55
42.57629,481.29,519.21
42.59712,481.55,505.29
42.61601,479.70,490.24
42.63757,477.08,477.45
42.65772,475.07,464.45
42.67680,470.66,453.83
42.69615,468.58,446.45
42.71794,468.09,438.38
42.73614,470.21,435.66
42.75764,468.00,431.24
42.77744,472.12,430.48
42.79779,473.75,433.68
42.81695,472.52,434.96
42.83754,475.08,442.27
42.85679,477.02,448.62
42.87630,480.00,451.33
42.89796,481.18,457.53
42.91651,483.09,466.07
42.93674,485.88,473.57
42.95764,485.26,480.43
42.97667,487.97,487.97
42.99753,484.80,497.27
43.01635,486.87,501.64
43.03830,487.98,507.15
43.05723,485.75,511.63
43.07864,486.22,514.13
43.09720,486.26,519.88
43.11709,489.50,522.95
43.13687,487.78,522.55
43.15765,486.77,527.86
43.17839,488.21,528.37
43.19719,486.68,529.72
43.21864,486.25,529.33
43.23709,487.11,531.51
43.25811,485.44,531.39
43.27862,483.97,532.01
43.29920,482.18,533.29
43.31966,482.13,533.77
43.33805,483.75,536.80
43.35951,480.54,534.13
43.37908,483.51,540.47
43.39808,482.05,547.18
43.41884,483.59,549.16
43.43959,483.28,555.16
43.45864,487.72,555.36
43.47829,488.35,557.04
43.49907,486.14,553.74
43.51945,484.47,555.73
43.53834,485.06,554.92
43.55817,486.51,552.53
43.57909,483.52,553.12
43.59905,484.59,548.91
43.61806,481.20,548.44
43.63997,483.79,547.75
43.65854,479.56,543.62
43.67884,482.34,539.58
43.69844,480.66,540.62
43.71916,479.21,538.90
43.73839,479.69,534.75
43.75815,479.18,540.03
43.78239,478.43,562.21
43.79896,477.52,591.01
43.81940,479.72,630.37
43.83798,483.28,664.18
43.85871,483.94,689.57
43.87918,486.68,700.93
43.89931,485.05,699.32
43.91873,486.72,689.40
43.93945,485.24,675.79
43.95985,485.76,657.64
43.97989,486.57,642.67
43.99817,482.68,628.70
44.01937,485.49,615.09
44.03929,484.22,605.81
44.05936,484.40,596.44
44.07848,481.49,590.09
44.09804,481.90,581.80
44.11990,482.40,574.67
44.13911,481.71,564.85
44.15914,480.40,562.40
44.17841,482.50,558.29
44.19895,478.72,554.63
44.21948,480.01,553.10
44.23879,481.08,548.00
44.25918,481.89,546.92
44.27903,479.60,546.80
44.29928,479.01,543.60
44.31899,483.86,543.93
44.33939,484.26,543.29
44.35947,482.29,542.55
44.37936,483.14,543.09
44.39821,482.09,542.33
44.41948,482.44,540.53
44.43901,483.25,538.45
44.45851,481.05,543.92
44.47902,483.16,540.60
44.50006,482.31,541.77
44.51973,480.61,540.82
44.53937,482.70,538.02
44.55925,480.94,537.55
44.57872,483.33,539.45
44.59946,482.93,539.05
44.61890,483.51,537.68
44.63862,480.66,536.16
44.65981,483.43,538.29
44.67958,481.74,538.52
44.69861,479.66,536.66
44.71839,481.89,540.23
44.73872,481.25,539.69
44.75927,479.85,540.08
44.77910,479.21,540.49
44.79945,479.63,539.32
44.81844,480.20,541.53
44.83996,479.89,537.75
44.86035,476.81,541.28
44.87961,476.31,540.64
44.90025,477.07,539.71
44.91928,479.41,537.79
44.94034,477.08,535.48
44.96036,476.86,535.51
44.98040,477.92,535.43
45.00076,479.71,536.11
45.01991,480.91,535.68
45.03910,482.16,536.18
45.06069,478.30,531.89
45.07915,479.18,535.64
45.09941,481.26,533.99
45.12058,480.30,535.22
45.14034,479.69,532.89
45.15923,480.05,533.32
45.18007,478.58,535.36
45.20182,482.07,536.19
45.22114,480.24,534.34
45.24105,479.27,533.19
45.26122,480.58,535.73
45.28131,477.82,534.04
45.30184,477.27,532.75
45.32020,475.62,532.46
45.34165,478.50,532.92
45.36055,479.89,535.00
45.38143,477.44,534.61
45.40121,480.62,531.94
45.42060,479.80,535.94
45.44041,482.09,532.71
45.46093,482.45,532.86
45.48246,481.30,533.47
45.50103,481.99,535.59
45.52284,483.78,537.62
45.54245,482.53,534.76
45.56254,482.91,526.77
45.58201,483.11,518.93
45.60293,481.04,507.16
45.62116,481.75,496.65
45.64258,478.24,486.01
45.66181,479.62,474.82
45.68135,477.92,459.70
45.70104,476.79,449.11
45.72257,474.68,441.36
45.74240,475.34,434.49
45.76205,472.69,433.73
45.78290,472.56,430.75
45.80293,472.53,434.70
45.82143,474.74,436.29
45.84191,474.76,442.97
45.86248,474.56,446.89
45.88138,477.90,454.34
45.90193,475.86,461.65
45.92141,474.86,466.54
45.94153,475.10,473.22
45.96221,476.81,482.72
45.98245,477.98,490.41
46.00229,478.39,494.79
46.02279,477.88,500.03
46.04202,479.64,506.87
46.06283,480.63,507.48
46.08294,479.22,514.98
46.10245,479.61,514.15
46.12271,480.95,520.95
46.14198,479.65,522.16
46.16146,480.88,525.52
46.18281,482.13,524.80
46.20168,485.23,529.99
46.22292,484.07,528.10
46.24181,482.30,530.90
46.26112,483.59,529.99
46.28289,483.50,530.72
46.30196,484.82,532.10
46.32143,481.81,531.04
46.34130,483.69,530.46
46.36216,482.01,533.43
46.38218,481.41,532.85
46.40323,479.95,533.85
46.42353,480.95,532.98
46.44236,477.76,535.77
46.46267,479.70,535.68
46.48391,477.04,537.05
46.50294,475.11,535.58
46.52224,472.32,535.09
46.54357,472.59,536.72
46.56252,472.81,537.52
46.58201,475.41,536.51
46.60237,474.79,536.65
46.62325,476.98,537.32
46.64385,475.44,537.94
46.66363,475.92,537.27
46.68302,475.10,533.94
46.70195,479.52,536.23
46.72310,476.83,540.84
46.74246,478.19,559.51
46.76295,481.21,594.79
46.78350,479.61,632.57
46.80293,479.68,661.35
46.82278,479.92,680.34
46.84245,479.65,680.38
46.86278,481.05,671.26
46.88349,477.25,659.98
46.90233,477.65,645.08
46.92387,478.65,632.48
46.94231,477.77,619.13
46.96208,481.71,605.07
46.98373,477.77,595.95
47.00396,480.46,586.99
47.02303,480.28,577.25
47.04321,478.41,571.10
47.06353,478.00,565.71
47.08483,478.03,561.41
47.10383,481.48,557.23
47.12383,472.66,541.10
47.14310,469.34,529.89
47.16345,465.17,524.15
47.18419,468.33,520.08
47.20345,468.14,525.11
47.22337,472.31,538.35
47.24343,472.88,563.79
47.26379,475.82,602.21
47.28459,483.86,630.39
47.30337,483.72,635.60
47.32475,481.99,625.93
47.34352,479.61,610.85
47.36457,480.01,589.04
47.38458,479.95,567.13
47.40390,478.78,550.19
47.42351,478.47,537.94
47.44345,475.87,529.59
47.46409,477.36,538.39
47.48455,481.80,567.68
47.50373,485.89,600.88
47.52474,496.29,635.24
47.54313,500.53,656.01
47.56338,509.48,660.64
47.58306,508.25,652.05
47.60452,508.76,626.62
47.62374,501.91,599.58
47.64490,496.74,569.80
47.66480,492.46,544.15
47.68405,488.39,524.83
47.70313,489.65,509.51
47.72393,485.19,500.58
47.74418,486.18,496.11
47.76396,487.21,498.06
47.78367,484.62,522.67
47.80311,489.14,553.71
47.82385,487.27,584.00
47.84367,487.31,584.29
47.86454,484.05,574.41
47.88410,479.16,552.47
47.90489,478.01,529.99
47.92461,474.58,510.10
47.94292,471.29,500.86
47.96336,471.32,491.94
47.98326,469.72,487.91
48.00330,471.26,496.84
48.02467,476.09,530.50
48.04286,476.83,568.65
48.06483,479.36,589.39
48.08310,478.32,590.11
48.10366,477.94,577.57
48.12392,476.09,559.21
48.14405,475.31,538.22
48.16305,475.98,523.00
48.18394,473.07,516.06
48.20357,476.55,520.37
48.22357,477.65,544.41
48.24437,476.56,569.83
48.26426,479.46,578.42
48.28291,478.80,568.86
48.30477,480.09,551.06
48.32477,478.20,531.40
48.34368,478.53,516.49
48.36410,474.79,499.71
48.38374,474.53,488.21
48.40405,475.16,481.73
48.42281,477.73,475.38
48.44456,474.38,470.41
48.46467,474.53,467.80
48.48465,472.90,467.76
48.50402,474.04,472.95
48.52466,477.34,475.99
48.54299,477.49,481.46
48.56349,477.26,482.37
48.58379,481.09,487.00
48.60495,479.10,502.43
48.62437,482.74,509.34
48.64425,479.62,510.35
48.66324,482.48,519.15
48.68382,480.84,532.06
48.70483,483.79,537.24
48.72434,486.89,541.79
48.74424,487.10,545.43
48.76468,485.90,548.93
48.78353,482.58,552.57
48.80446,482.06,555.38
48.82428,482.92,557.78
48.84360,481.33,559.51
48.86299,479.51,560.67
48.88374,482.17,545.27
48.90396,483.94,554.80
48.92401,483.63,561.37
48.94312,484.68,563.53
48.96375,485.30,563.55
48.98406,483.96,566.71
49.00380,488.59,559.06
49.02408,487.21,554.96
49.04335,487.93,550.74
49.06411,485.59,542.85
49.08474,486.06,542.58
49.10329,482.29,535.74
49.12312,483.63,537.74
49.14281,484.84,531.61
49.16427,482.64,526.92
49.18342,481.16,530.77
49.20326,485.33,533.71
49.22469,485.80,525.63
49.24308,487.45,532.28
49.26468,489.28,530.00
49.28424,491.49,534.57
49.30300,494.04,542.18
49.32437,495.09,550.67
49.34462,497.32,553.32
49.36349,497.30,554.51
49.38334,498.63,557.10
49.40330,497.34,557.51
49.42493,496.55,556.35
49.44363,498.40,559.14
49.46417,495.54,555.11
49.48408,494.84,557.19
49.50345,489.50,561.28
49.52448,486.05,550.59
49.54298,484.54,549.40
49.56474,482.86,547.38
49.58474,485.46,552.41
49.60328,485.48,553.01
49.62435,482.10,559.09
49.64451,485.24,551.82
49.66378,482.99,551.63
49.68411,484.28,547.31
49.70463,484.33,547.44
49.72373,483.71,544.48
49.74422,486.25,544.10
49.76323,483.97,541.33
49.78312,482.84,543.15
49.80350,485.39,535.53
49.82303,484.19,536.95
49.84275,485.61,531.73
49.86578,484.52,538.06
49.88551,482.92,545.93
49.90427,482.43,541.77
49.92440,485.01,544.71
49.94443,486.14,546.28
49.96668,489.94,551.40
49.98687,492.15,548.92
50.00494,492.28,550.86
50.02657,498.72,558.46
50.04535,495.64,557.61
50.06645,495.07,559.04
50.08578,491.39,552.28
50.10546,494.41,549.87
50.12590,492.54,544.98
50.14525,490.25,548.26
50.16556,491.03,544.82
50.18602,488.78,541.37
50.20512,480.92,533.85
50.22567,477.87,535.62
50.24572,483.37,521.21
50.26673,489.70,514.80
50.28502,486.75,513.39
50.30540,487.28,511.90
50.32668,490.87,508.60
50.34539,488.84,507.75
50.36603,489.61,513.82
50.38618,488.84,515.38
50.40572,488.18,517.68
50.42538,488.21,521.00
50.44633,488.54,522.02
50.46624,486.57,522.15
50.48513,488.74,529.53
50.50703,488.85,529.22
50.52765,485.08,531.35
50.54810,488.06,533.53
50.56671,484.97,532.91
50.58846,483.09,541.04
50.60770,474.97,545.95
50.62673,471.84,547.31
50.64829,472.03,545.75
50.66808,466.27,549.57
50.68816,467.60,552.42
50.70863,463.47,548.56
50.72830,460.21,545.72
50.74885,460.53,542.18
50.76719,467.69,540.56
50.78786,468.55,539.29
50.80822,473.69,543.48
50.82813,474.42,540.80
50.84751,475.38,541.62
50.86878,477.65,544.12
50.88798,478.92,545.44
50.90849,480.66,541.58
50.92792,481.08,543.48
50.94733,482.88,538.59
50.96694,481.23,537.54
50.98831,485.44,546.74
51.00832,491.70,554.57
51.02790,493.80,563.30
51.04781,497.81,560.52
51.06766,498.18,562.24
51.08823,498.88,564.30
51.10813,495.76,559.37
51.12845,499.53,558.85
51.14812,499.42,553.46
51.16780,496.50,551.45
51.18836,492.35,552.93
51.20854,486.56,550.88
51.22873,476.48,536.97
51.24852,468.65,523.27
51.26828,461.54,517.92
51.28851,463.34,514.47
51.30746,461.87,514.23
51.32763,455.95,506.57
51.34855,452.43,513.91
51.36870,450.85,512.03
51.38815,450.02,510.36
51.40826,460.19,508.81
51.42877,464.70,505.40
51.44839,471.87,511.40
51.46896,471.68,512.47
51.48790,477.95,514.44
51.50908,478.94,519.42
51.52797,476.78,519.83
51.54858,480.94,527.16
51.56815,477.32,529.49
51.58946,482.34,533.29
51.60786,483.68,540.29
51.62927,483.24,539.33
51.64811,480.55,538.50
51.66815,484.62,539.77
51.68870,483.09,540.32
51.70930,477.05,546.65
51.72801,473.55,551.72
51.74791,472.75,554.69
51.76791,471.49,554.08
51.78834,470.90,552.70
51.80784,474.19,551.65
51.82939,475.11,550.83
51.85025,472.72,547.08
51.86919,473.14,544.97
51.88899,474.62,547.04
51.91106,474.48,543.03
51.93014,476.02,541.56
51.94953,475.84,540.29
51.96911,478.87,540.71
51.98931,476.75,539.52
52.00946,479.25,540.99
52.03053,480.34,536.47
52.04981,481.91,527.11
52.07031,481.91,515.13
52.09087,483.84,507.32
52.11009,480.50,500.57
52.12906,480.79,498.24
52.14981,479.18,500.68
52.17027,479.95,498.71
52.19070,478.85,504.49
52.20967,479.45,507.11
52.22961,478.74,509.19
52.25015,479.23,509.30
52.26896,478.97,511.16
52.29032,476.16,513.71
52.30892,477.33,514.66
52.33016,479.09,519.92
52.35104,478.38,518.64
52.37122,479.42,521.56
52.39216,479.73,537.29
52.41267,481.65,554.14
52.43184,484.27,568.88
52.45220,481.75,570.59
52.47134,482.63,572.00
52.49110,484.00,568.27
52.51074,484.17,565.14
52.53123,482.98,562.03
52.55079,483.56,557.35
52.57144,482.72,555.98
52.59118,483.17,550.40
52.61090,483.18,547.73
52.63198,483.29,545.56
52.65132,485.50,539.48
52.67225,481.76,537.03
52.69243,484.08,532.46
52.71116,484.03,533.05
52.73237,482.44,529.66
52.75270,483.18,529.52
52.77106,486.31,527.13
52.79123,486.78,527.65
52.81073,480.87,528.60
52.83297,481.18,531.12
52.85150,482.89,532.57
52.87120,480.95,531.25
52.89238,480.32,528.49
52.91093,480.74,531.58
52.93129,481.93,531.96
52.95117,486.85,539.49
52.97097,492.15,543.30
52.99204,496.17,546.70
53.01127,501.83,547.98
53.03256,503.68,549.66
53.05222,500.39,548.93
53.07153,502.03,545.40
53.09203,500.43,545.86
53.11242,497.22,543.21
53.13138,494.33,540.78
53.15144,492.25,539.73
53.17167,493.81,540.27
53.19089,492.15,539.57
53.21253,492.20,538.40
53.23165,487.10,537.19
53.25135,489.94,540.13
53.27162,489.72,541.88
53.29228,484.86,543.17
53.31155,484.61,541.70
53.33239,483.02,540.47
53.35242,486.00,539.35
53.37182,486.82,536.72
53.39153,485.62,534.91
53.41284,491.09,536.91
53.43290,494.62,536.17
53.45322,495.57,536.65
53.47369,496.54,539.38
53.49226,492.19,544.92
53.51298,492.52,547.98
53.53369,489.25,557.07
53.55303,491.24,543.82
53.57254,482.17,524.39
53.59273,477.19,504.26
53.61339,475.05,486.48
53.63336,471.85,479.02
53.65213,468.01,477.70
53.67287,469.58,477.73
53.69343,466.82,477.70
53.71303,465.95,479.45
53.73225,466.80,480.55
53.75237,465.79,482.83
53.77323,465.28,484.78
53.79362,466.08,487.31
53.81344,467.41,491.94
53.83188,469.27,493.08
53.85271,471.77,497.29
53.87284,475.53,501.25
53.89177,474.22,504.12
53.91230,477.76,505.86
53.93311,477.38,507.53
53.95320,477.25,509.83
53.97205,478.46,514.75
53.99386,478.87,517.17
54.01368,481.09,517.05
54.03271,479.82,520.24
54.05248,478.16,521.00
54.07343,473.74,523.57
54.09380,473.72,528.42
54.11379,476.04,529.67
54.13180,472.88,536.24
54.15295,470.47,532.36
54.17184,473.77,538.16
54.19338,473.37,552.23
54.21376,468.37,564.78
54.23295,463.76,576.85
54.25351,466.06,580.12
54.27328,467.40,582.53
54.29209,467.03,585.77
54.31313,468.07,580.52
54.33322,470.60,580.58
54.35232,471.55,579.05
54.37351,471.67,579.34
54.39231,474.48,576.79
54.41360,474.37,574.90
54.43304,478.38,575.56
54.45294,475.53,573.33
54.47307,477.55,568.99
54.49260,478.07,565.32
