Program Time [s],data 0,data 1
3.79500,461.15,444.70
3.81380,460.48,447.37
3.83477,462.18,448.93
3.85483,460.77,451.28
3.87403,462.99,452.18
3.89503,463.75,450.74
3.91396,461.33,451.65
3.93371,461.17,452.14
3.95531,463.15,449.68
3.97466,462.94,447.77
3.99521,460.17,448.91
4.01544,460.94,448.23
4.03458,460.84,447.26
4.05530,462.41,447.21
4.07467,458.96,446.46
4.09559,458.61,446.48
4.11502,456.51,448.33
4.13563,457.37,446.73
4.15557,456.98,447.37
4.17451,458.34,450.05
4.19460,458.69,448.29
4.21524,459.10,449.92
4.23551,463.70,448.20
4.25370,461.75,449.21
4.27459,465.45,448.75
4.29510,464.74,447.47
4.31499,466.28,446.54
4.33467,461.96,446.76
4.35468,461.35,448.99
4.37529,461.32,445.20
4.39496,462.03,446.74
4.41363,460.46,449.18
4.43502,459.51,445.98
4.45491,462.07,445.82
4.47412,459.81,445.02
4.49366,460.52,446.82
4.51490,460.85,446.86
4.53437,456.99,445.28
4.55550,458.23,449.03
4.57397,459.00,448.60
4.59426,456.88,450.91
4.61552,461.79,451.84
4.63513,460.17,453.17
4.65556,459.16,453.86
4.67551,457.51,452.08
4.69515,457.75,449.34
4.71622,457.86,448.64
4.73474,460.31,450.44
4.75472,458.87,449.34
4.77544,461.99,448.58
4.79507,462.41,450.18
4.81670,461.03,451.20
4.83590,461.09,448.21
4.85638,462.47,448.14
4.87630,460.93,447.84
4.89564,460.47,448.80
4.91521,459.49,450.03
4.93617,460.56,446.87
4.95484,459.14,447.28
4.97504,459.83,451.04
4.99658,461.73,450.73
5.01523,462.84,447.79
5.03622,461.70,449.99
5.05674,459.76,448.81
5.07504,459.97,447.46
5.09599,462.58,449.71
5.11598,461.05,450.62
5.13623,463.35,450.43
5.15495,461.89,449.91
5.17587,460.31,451.44
5.19608,461.99,453.65
5.21601,462.32,450.62
5.23662,461.32,448.13
5.25526,462.71,448.24
5.27540,460.03,449.36
5.29454,460.64,449.38
5.31491,456.95,447.95
5.33549,457.76,447.30
5.35480,457.61,447.61
5.37584,459.94,449.29
5.39552,457.54,447.23
5.41501,459.17,448.11
5.43597,456.06,446.94
5.45465,456.24,450.66
5.47637,454.78,449.72
5.49569,455.33,449.45
5.51645,454.61,448.04
5.53565,454.75,449.19
5.55560,455.70,451.24
5.57639,457.00,449.87
5.59589,453.51,448.34
5.61551,456.58,451.10
5.63608,454.21,451.21
5.65505,454.23,449.77
5.67493,452.86,449.81
5.69625,454.65,448.32
5.71555,456.37,449.00
5.73453,456.75,446.71
5.75552,456.06,449.16
5.77630,456.36,449.78
5.79468,456.00,448.58
5.81499,456.10,445.64
5.83537,455.04,445.14
5.85592,454.67,447.20
5.87653,455.69,447.41
5.89539,454.94,451.26
5.91535,457.20,443.73
5.93604,453.10,432.94
5.95638,451.47,416.64
5.97588,450.11,397.45
5.99459,445.62,376.94
6.01628,442.58,358.93
6.03518,442.35,343.95
6.05637,441.90,333.89
6.07545,441.96,325.64
6.09687,439.08,323.76
6.11601,442.25,324.21
6.13717,442.36,326.89
6.15585,440.44,332.89
6.17555,441.89,343.43
6.19732,445.96,352.26
6.21666,447.88,360.74
6.23642,448.42,372.23
6.25566,447.25,378.76
6.27687,450.17,389.96
6.29732,452.27,394.75
6.31756,454.52,403.34
6.33644,455.27,407.61
6.35736,458.19,413.41
6.37746,458.22,418.11
6.39577,457.38,421.59
6.41588,457.04,424.16
6.43632,458.00,427.84
6.45655,456.04,429.76
6.47574,454.26,432.94
6.49682,456.07,432.01
6.51679,456.57,433.72
6.53563,455.76,440.92
6.55602,456.63,470.08
6.57682,459.70,508.58
6.59695,462.01,548.83
6.61733,461.61,576.51
6.63568,463.88,593.26
6.65645,464.41,601.12
6.67701,463.99,595.92
6.69724,461.96,583.40
6.71600,459.91,566.76
6.73717,461.20,554.37
6.75697,461.58,540.90
6.77633,460.93,527.26
6.79734,460.07,515.44
6.81655,457.76,507.46
6.83589,460.23,500.40
6.85671,457.05,493.54
6.87587,458.04,488.23
6.89602,457.48,481.25
6.91721,456.66,477.31
6.93587,455.59,471.21
6.95721,454.44,466.92
6.97659,453.19,462.97
6.99574,455.98,461.64
7.01560,455.77,460.44
7.03705,456.94,459.06
7.05700,455.62,454.79
7.07714,454.28,454.83
7.09643,453.85,456.04
7.11624,452.38,454.51
7.13697,451.01,453.14
7.15671,450.13,454.10
7.17680,452.06,453.53
7.19562,450.81,453.96
7.21661,451.94,451.13
7.23573,450.34,452.48
7.25666,449.77,451.91
7.27733,449.66,450.47
7.29682,448.43,449.02
7.31649,450.33,450.61
7.33678,452.10,448.02
7.35581,451.40,450.66
7.37767,450.34,447.15
7.39610,451.32,448.91
7.41590,451.50,447.25
7.43755,449.77,448.59
7.45573,451.81,445.55
7.47617,449.01,446.52
7.49653,449.43,446.67
7.51590,452.89,446.45
7.53667,450.81,449.26
7.55626,450.69,447.56
7.57756,451.79,446.42
7.59714,449.95,446.81
7.61747,452.89,445.11
7.63570,451.30,446.02
7.65582,450.49,444.09
7.67719,450.38,445.84
7.69653,452.73,443.93
7.71719,451.27,446.42
7.73723,451.79,445.00
7.75677,451.20,446.04
7.77628,450.20,443.13
7.79683,452.27,442.91
7.81736,451.00,445.38
7.83630,450.63,444.90
7.85746,450.25,446.75
7.87684,451.39,446.21
7.89618,452.78,445.59
7.91612,451.41,444.06
7.93587,449.33,445.89
7.95560,452.01,445.81
7.97691,449.62,445.64
7.99622,449.91,445.17
8.01597,450.45,445.61
8.03645,449.08,447.23
8.05697,452.76,442.93
8.07669,449.63,445.66
8.09681,449.73,445.01
8.11738,451.66,446.47
8.13578,450.94,443.93
8.15644,450.98,443.55
8.17620,449.51,444.30
8.19743,450.06,444.03
8.21680,451.99,447.32
8.23660,452.72,446.63
8.25648,452.92,445.27
8.27623,453.51,444.91
8.29706,450.04,445.41
8.31575,452.97,446.34
8.33724,450.21,445.13
8.35795,449.70,445.29
8.37670,449.75,445.11
8.39712,451.54,443.72
8.41662,449.32,445.04
8.43836,452.19,442.24
8.45698,450.37,446.10
8.47814,450.97,446.04
8.49904,447.74,444.49
8.51841,449.33,445.32
8.53888,447.73,443.32
8.55883,448.36,446.13
8.57816,449.53,446.37
8.59908,451.42,445.22
8.61797,451.94,445.18
8.63878,450.21,443.50
8.65779,451.46,442.76
8.67749,452.89,445.40
8.69801,452.89,442.35
8.71936,453.28,443.21
8.73910,454.06,443.60
8.75945,451.30,444.88
8.77820,451.28,442.60
8.79810,453.09,444.12
8.81819,452.19,441.29
8.83766,454.03,441.60
8.85817,450.60,444.36
8.87898,453.80,443.85
8.89828,453.67,442.37
8.91838,451.42,443.83
8.93834,452.32,445.14
8.95792,453.51,442.07
8.97919,453.72,442.40
8.99930,454.64,441.96
9.01766,452.27,441.72
9.03890,453.96,443.62
9.05788,450.67,442.26
9.07863,454.57,440.89
9.09860,453.86,438.59
9.11871,453.69,440.93
9.13845,452.79,436.78
9.15805,451.09,438.56
9.17898,453.81,437.12
9.19851,453.81,439.65
9.21875,452.14,438.85
9.23781,453.16,436.31
9.25757,454.21,439.58
9.27773,452.05,437.00
9.29928,450.58,439.52
9.31960,451.90,440.30
9.33850,453.50,438.42
9.35773,452.96,440.71
9.37938,452.71,440.60
9.39777,451.31,440.76
9.41794,450.13,433.00
9.43830,452.16,420.60
9.45936,448.68,404.37
9.47840,446.41,385.31
9.49764,442.74,365.82
9.51941,438.70,350.14
9.53807,440.91,333.14
9.55988,437.60,322.33
9.57903,440.20,312.01
9.59879,441.59,307.21
9.61858,441.41,308.83
9.64041,444.60,314.31
9.65881,446.78,319.00
9.67866,448.76,327.56
9.69894,447.68,339.78
9.71847,450.57,350.18
9.73879,452.50,359.70
9.75941,453.29,371.56
9.77872,453.78,379.52
9.79938,451.32,386.62
9.82127,453.31,392.55
9.84050,452.01,401.22
9.86207,454.77,408.46
9.88328,457.72,426.44
9.90241,460.48,455.23
9.92234,461.25,497.31
9.94193,464.75,534.26
9.96286,463.90,566.07
9.98292,467.05,586.54
10.00274,469.51,597.59
10.02331,472.11,594.93
10.04236,470.23,585.63
10.06203,470.57,571.77
10.08172,468.79,561.21
10.10168,467.15,543.02
10.12163,468.42,530.50
10.14300,469.62,518.80
10.16310,467.88,508.29
10.18196,470.78,499.26
10.20287,470.36,494.50
10.22186,470.77,487.51
10.24133,468.54,479.94
10.26317,465.26,477.36
10.28252,464.93,471.68
10.30272,463.04,467.76
10.32161,463.65,466.71
10.34302,462.28,462.39
10.36216,461.45,459.03
10.38209,464.59,456.25
10.40307,464.52,455.69
10.42263,464.82,454.50
10.44271,464.63,454.07
10.46287,461.50,451.85
10.48261,463.00,452.84
10.50245,463.83,451.38
10.52246,461.89,451.86
10.54319,464.96,449.38
10.56330,462.99,450.55
10.58258,465.08,450.36
10.60223,465.14,447.72
10.62210,463.74,447.73
10.64190,462.93,447.96
10.66347,465.45,445.87
10.68274,462.11,448.21
10.70269,462.45,447.96
10.72287,463.82,448.05
10.74316,466.23,448.35
10.76297,462.57,447.19
10.78269,465.75,446.44
10.80244,465.67,447.59
10.82318,463.95,445.64
10.84306,466.19,446.38
10.86301,466.08,448.29
10.88299,463.65,449.11
10.90159,463.33,447.14
10.92177,463.00,448.91
10.94300,465.94,450.32
10.96165,466.42,448.68
10.98345,466.79,447.73
11.00200,463.45,448.53
11.02233,460.98,446.18
11.04219,461.89,446.36
11.06336,463.75,445.97
11.08337,462.36,447.09
11.10157,461.41,444.93
11.12183,464.26,446.38
11.14191,462.30,448.25
11.16291,461.48,446.34
11.18267,463.35,447.03
11.20229,463.13,446.80
11.22261,462.04,447.43
11.24215,463.58,447.46
11.26292,463.36,446.31
11.28266,464.90,449.16
11.30253,464.23,446.71
11.32247,466.64,446.87
11.34288,466.05,449.06
11.36192,463.40,448.64
11.38305,465.15,446.86
11.40182,465.84,446.42
11.42184,465.14,446.56
11.44269,465.63,446.01
11.46231,464.87,447.72
11.48270,467.39,449.26
11.50240,466.98,446.01
11.52224,464.16,444.20
11.54221,465.13,446.88
11.56219,465.68,446.11
11.58188,465.60,446.97
11.60320,467.14,448.30
11.62299,466.47,446.80
11.64353,465.55,449.96
11.66167,464.62,448.50
11.68239,464.48,451.13
11.70185,464.71,450.80
11.72279,464.12,448.66
11.74246,463.60,450.13
11.76181,463.90,447.80
11.78194,465.91,449.46
11.80239,464.77,449.13
11.82382,462.98,446.58
11.84370,466.76,450.38
11.86256,462.91,449.06
11.88286,465.25,447.75
11.90393,466.71,448.28
11.92250,465.61,448.63
11.94357,464.50,447.88
11.96343,468.57,450.69
11.98370,467.00,448.97
12.00294,467.18,449.21
12.02446,467.82,446.87
12.04413,468.10,446.64
12.06335,468.31,450.49
12.08291,465.40,448.23
12.10319,467.16,446.61
12.12415,467.15,449.82
12.14364,468.53,449.56
12.16247,464.68,448.94
12.18381,465.09,450.76
12.20546,466.08,449.65
12.22534,466.37,449.41
12.24447,464.36,450.97
12.26469,465.47,450.97
12.28392,464.63,449.50
12.30424,464.64,448.70
12.32454,466.04,450.60
12.34500,465.60,447.16
12.36529,465.88,449.87
12.38493,466.00,451.37
12.40544,467.44,449.62
12.42513,464.16,450.91
12.44500,465.77,449.89
12.46613,465.31,448.39
12.48616,465.19,451.95
12.50567,461.65,449.44
12.52508,465.50,447.34
12.54492,461.93,449.61
12.56488,462.60,446.82
12.58457,463.34,447.96
12.60550,466.58,447.63
12.62596,463.76,449.84
12.64538,467.15,450.70
12.66499,464.20,449.46
12.68542,464.10,449.97
12.70646,463.45,449.69
12.72616,463.96,450.57
12.74635,464.13,448.04
12.76457,462.77,448.09
12.78585,461.03,446.95
12.80524,462.10,445.50
12.82625,460.62,445.86
12.84570,462.84,447.06
12.86563,461.41,447.85
12.88655,462.69,448.12
12.90633,463.43,448.14
12.92630,462.32,450.61
12.94648,462.02,451.24
12.96606,462.61,449.81
12.98586,464.18,452.66
13.00667,465.17,452.10
13.02694,461.90,452.38
13.04693,462.11,452.20
13.06738,462.68,452.04
13.08575,463.21,453.45
13.10651,462.65,450.75
13.12759,460.94,447.06
13.14753,457.35,431.59
13.16686,454.78,413.85
13.18830,449.18,395.89
13.20713,445.29,371.81
13.22658,440.25,354.65
13.24825,437.34,340.50
13.26784,437.97,327.25
13.28780,438.68,321.06
13.30699,438.61,317.77
13.32742,437.87,319.44
13.34776,440.73,323.50
13.36799,443.26,327.47
13.38710,446.72,338.32
13.40781,448.51,345.15
13.42772,448.83,354.89
13.44728,451.03,363.58
13.46734,453.36,374.31
13.48785,456.28,380.47
13.50723,455.48,389.43
13.52718,457.25,397.09
13.54643,457.05,405.95
13.56753,459.13,408.18
13.58721,458.64,415.99
13.60783,459.30,419.07
13.62699,458.80,421.80
13.64659,458.82,425.53
13.66685,458.96,428.87
13.68771,460.42,433.93
13.70682,461.09,447.96
13.72636,461.59,473.30
13.74804,463.22,505.56
13.76651,465.29,541.81
13.78741,470.30,574.70
13.80749,473.82,592.98
13.82712,472.26,607.52
13.84700,476.00,602.99
13.86635,475.20,595.21
13.88743,477.15,581.16
13.90801,474.93,564.21
13.92646,472.70,548.34
13.94828,471.24,535.22
13.96731,470.50,522.28
13.98761,468.07,513.14
14.00644,466.87,500.16
14.02719,467.46,493.69
14.04830,465.31,487.18
14.06709,464.99,481.08
14.08737,464.62,475.52
14.10752,462.80,471.13
14.12731,463.37,469.30
14.14651,462.77,465.41
14.16711,460.66,461.77
14.18744,462.31,460.38
14.20779,461.72,456.02
14.22830,462.00,454.52
14.24682,461.35,452.89
14.26849,460.48,452.49
14.28672,462.11,452.49
14.30802,461.97,448.86
14.32828,462.24,450.31
14.34661,460.29,451.28
14.36769,460.74,449.96
14.38818,461.39,447.55
14.40698,462.76,448.91
14.42710,460.46,449.47
14.44773,460.38,450.87
14.46717,460.36,449.00
14.48660,457.23,448.48
14.50675,460.37,445.82
14.52750,457.15,448.77
14.54653,456.97,448.73
14.56721,457.05,445.16
14.58676,459.27,449.79
14.60881,457.40,447.03
14.62828,458.29,446.68
14.64742,458.25,450.46
14.66881,455.82,448.66
14.68792,454.51,449.51
14.70791,456.39,446.53
14.72907,455.33,448.45
14.74841,456.81,447.52
14.76821,455.32,448.49
14.78964,457.40,446.66
14.80913,456.36,448.29
14.82802,453.64,446.77
14.84925,454.14,448.14
14.86929,455.24,448.87
14.88975,454.39,445.66
14.90880,454.75,445.60
14.92907,453.22,447.18
14.94840,450.19,447.09
14.96949,450.10,446.11
14.98884,448.46,447.04
15.01004,450.93,445.51
15.02860,449.56,443.38
15.05030,450.39,443.19
15.06948,448.69,444.32
15.09029,450.45,444.64
15.10850,452.81,445.28
15.12911,452.00,443.50
15.14852,451.24,442.99
15.16884,455.70,443.58
15.18904,455.58,446.22
15.20843,451.63,444.65
15.22957,450.44,444.53
15.24850,453.20,445.48
15.26947,451.29,445.25
15.29019,452.90,444.86
15.31028,455.31,446.28
15.33005,453.25,445.34
15.34993,453.36,447.30
15.36858,451.14,444.50
15.39059,451.04,442.97
15.40977,449.75,442.95
15.42861,453.23,445.01
15.44900,451.13,444.92
15.46970,451.71,442.80
15.48865,452.78,443.18
15.51117,450.56,444.20
15.53070,452.75,442.80
15.55107,450.85,441.69
15.57033,452.60,443.82
15.59134,452.22,442.53
15.61006,450.97,444.71
15.62991,451.98,441.87
15.64998,451.00,441.81
15.67120,450.37,443.18
15.69009,451.00,441.31
15.71038,452.41,443.70
15.73039,451.66,442.91
15.74989,449.23,445.49
15.77009,449.61,445.42
15.78944,449.41,444.08
15.80941,451.59,444.23
15.83113,449.26,441.76
15.85102,448.79,442.42
15.86948,448.82,440.48
15.89053,451.16,440.31
15.91066,452.14,443.54
15.93074,452.10,440.70
15.94967,452.40,441.64
15.97131,448.71,442.68
15.99110,449.35,442.55
16.01144,449.51,445.13
16.03112,450.17,444.50
16.05130,449.90,443.68
16.07120,451.05,446.01
16.09046,450.58,444.84
16.11050,450.40,442.87
16.12964,452.67,441.54
16.14944,451.48,444.08
16.17077,451.95,443.13
16.19093,454.09,442.25
16.21058,454.17,443.93
16.23060,452.78,444.17
16.24947,455.83,443.47
16.26937,452.39,441.78
16.28949,455.47,445.69
16.30998,454.91,445.70
16.32993,455.19,445.74
16.35083,455.68,446.23
16.37016,454.69,444.14
16.39007,455.23,445.28
16.41014,456.33,444.20
16.43067,453.56,444.40
16.45022,452.48,445.43
16.47005,453.73,442.81
16.48965,450.64,444.68
16.51033,448.93,442.76
16.53100,449.11,441.28
16.54954,450.17,444.35
16.57025,449.29,443.38
16.59029,450.36,443.50
16.60959,453.53,442.95
16.63115,452.82,442.39
16.65009,453.11,445.17
16.67059,453.58,445.57
16.69007,451.43,446.39
16.70959,452.91,444.90
16.73134,452.22,445.95
16.75057,453.89,444.38
16.77018,451.51,443.67
16.79147,450.86,444.31
16.81103,452.50,442.90
16.83083,451.01,441.09
16.85202,452.02,439.01
16.87207,450.31,440.78
16.89170,453.09,440.53
16.91295,453.63,440.63
16.93154,452.30,442.59
16.95173,453.17,442.53
16.97291,451.98,441.62
16.99249,453.04,443.78
17.01284,453.92,443.83
17.03290,452.33,441.18
17.05293,455.42,442.73
17.07208,454.04,442.19
17.09277,451.80,444.33
17.11167,454.67,441.44
17.13229,454.07,444.19
17.15211,451.66,443.50
17.17272,454.77,443.21
17.19237,454.54,439.23
17.21195,450.75,429.62
17.23159,447.69,414.66
17.25309,446.43,396.44
17.27183,445.32,382.07
17.29166,445.42,373.89
17.31317,445.93,361.62
17.33285,441.46,352.44
17.35322,441.13,343.72
17.37155,439.75,336.42
17.39198,442.28,331.73
17.41262,440.74,330.02
17.43292,438.83,329.49
17.45251,442.36,328.04
17.47140,442.62,332.80
17.49193,442.88,340.33
17.51241,447.30,343.47
17.53287,446.26,353.41
17.55236,448.87,363.28
17.57312,449.66,368.29
17.59145,451.27,376.28
17.61300,452.90,383.71
17.63324,451.27,389.33
17.65288,450.93,394.89
17.67261,450.93,400.85
17.69163,449.64,403.84
17.71221,451.95,419.95
17.73293,450.30,450.35
17.75319,450.18,485.84
17.77260,456.41,525.78
17.79329,457.23,555.08
17.81394,458.25,579.42
17.83405,460.67,592.45
17.85443,463.76,593.96
17.87678,467.11,588.35
17.89581,467.00,573.98
17.91802,467.47,562.01
17.93683,467.49,546.32
17.95850,467.97,534.30
17.97774,467.35,522.65
17.99798,470.05,515.56
18.01859,468.84,503.46
18.03835,470.68,495.20
18.05922,468.83,490.30
18.07793,470.64,484.41
18.09885,466.71,478.82
18.11817,466.97,475.22
18.13738,469.25,471.63
18.15777,467.26,467.83
18.17864,468.61,463.37
18.19858,466.34,460.56
18.21813,468.26,458.48
18.23802,469.38,457.81
18.25894,467.05,454.69
18.27807,467.64,454.15
18.29769,471.02,454.37
18.31883,470.00,454.05
18.33841,467.02,451.75
18.35950,468.88,452.08
18.37948,467.31,449.85
18.39941,468.15,452.05
18.41840,468.33,450.55
18.44015,466.77,450.98
18.46134,467.77,452.78
18.48092,466.83,450.60
18.50044,466.43,452.27
18.52036,466.84,450.83
18.54145,466.97,450.59
18.56137,466.10,451.41
18.58069,468.19,450.42
18.60156,466.36,450.04
18.62238,465.78,450.10
18.64038,465.72,452.96
18.66237,465.99,450.97
18.68065,466.83,448.96
18.70230,465.09,448.83
18.72209,464.42,451.17
18.74062,464.08,453.19
18.76064,462.78,458.16
18.78046,464.80,457.48
18.80204,463.21,458.17
18.82152,465.53,456.55
18.84059,462.15,457.81
18.86037,462.61,456.47
18.88077,463.88,454.99
18.90089,463.22,455.69
18.92143,462.35,457.72
18.94208,462.69,457.65
18.96065,462.42,456.87
18.98057,461.87,455.26
19.00209,463.00,456.03
19.02126,462.82,456.41
19.04112,464.60,454.24
19.06228,464.74,453.79
19.08171,462.80,452.89
19.10198,466.00,453.53
19.12389,462.95,455.13
19.14385,462.31,451.34
19.16273,460.95,453.20
19.18280,458.90,453.32
19.20224,459.89,452.66
19.22302,460.78,450.12
19.24266,460.16,449.21
19.26384,457.76,448.71
19.28418,455.43,450.00
19.30286,459.45,447.63
19.32392,458.24,449.35
19.34271,457.64,449.10
19.36326,456.44,447.77
19.38271,456.53,446.87
19.40395,458.24,446.48
19.42490,456.07,446.61
19.44463,458.02,448.02
19.46391,457.05,448.21
19.48343,457.27,447.92
19.50387,456.60,445.46
19.52411,453.89,447.51
19.54380,456.27,445.13
19.56450,454.72,446.00
19.58467,455.25,447.98
19.60511,454.47,448.25
19.62480,455.06,447.68
19.64491,454.01,446.90
19.66464,456.52,447.67
19.68525,453.39,448.70
19.70345,454.63,451.49
19.72512,452.12,451.15
19.74482,452.59,449.98
19.76447,455.04,451.24
19.78514,455.08,446.90
19.80497,452.08,447.41
19.82431,453.25,448.62
19.84428,451.94,449.29
19.86628,451.86,446.95
19.88608,455.12,449.33
19.90580,453.18,444.83
19.92551,456.71,445.43
19.94577,452.34,442.01
19.96570,454.65,446.35
19.98605,452.50,446.01
20.00547,451.61,443.47
20.02580,454.07,447.13
20.04617,451.27,443.55
20.06575,450.98,446.12
20.08592,452.59,443.13
20.10443,453.67,443.95
20.12605,453.65,443.46
20.14458,454.56,443.86
20.16471,452.52,443.19
20.18493,455.61,442.00
20.20473,452.68,441.84
20.22571,454.06,443.65
20.24538,450.80,444.48
20.26552,453.90,444.79
20.28582,450.02,442.30
20.30424,453.98,440.39
20.32541,452.38,443.11
20.34620,451.94,443.97
20.36503,453.48,444.22
20.38436,452.81,441.10
20.40570,452.44,443.36
20.42545,454.14,443.78
20.44596,453.78,441.30
20.46471,453.49,443.00
20.48470,452.99,444.35
20.50608,453.57,442.83
20.52576,453.49,445.75
20.54548,451.06,443.89
20.56442,451.90,444.68
20.58488,452.48,443.60
20.60451,451.50,442.45
20.62489,451.15,445.99
20.64588,451.16,444.04
20.66602,451.15,444.28
20.68485,451.89,443.33
20.70560,452.87,443.95
20.72465,452.68,443.89
20.74493,453.12,442.21
20.76602,451.21,443.36
20.78526,451.06,441.28
20.80589,451.89,443.56
20.82469,450.94,441.00
20.84531,454.25,441.42
20.86431,454.59,442.20
20.88424,450.32,442.80
20.90577,452.64,443.09
20.92469,451.03,442.55
20.94469,450.51,430.71
20.96566,447.79,418.99
20.98414,451.34,407.94
21.00492,449.74,392.70
21.02602,451.00,381.99
21.04538,449.17,365.26
21.06557,447.65,351.24
21.08493,446.09,337.83
21.10513,442.49,327.25
21.12510,443.29,320.96
21.14588,441.74,316.77
21.16515,441.65,317.76
21.18461,440.77,318.18
21.20469,440.46,322.44
21.22551,444.92,329.83
21.24626,444.42,340.56
21.26580,445.85,347.84
21.28408,447.06,356.24
21.30419,447.92,367.01
21.32536,449.46,379.06
21.34449,448.10,383.46
21.36415,447.67,393.77
21.38510,450.87,400.10
21.40601,449.57,407.21
21.42573,448.30,413.02
21.44591,450.63,415.54
21.46443,445.44,419.70
21.48605,442.40,422.79
21.50489,444.33,429.14
21.52618,441.17,429.71
21.54626,443.63,429.10
21.56549,439.58,433.59
21.58501,439.63,433.42
21.60487,441.61,434.26
21.62599,443.58,447.33
21.64548,444.74,469.11
21.66476,446.91,505.34
21.68564,449.39,542.24
21.70523,451.00,579.36
21.72580,457.47,601.28
21.74595,460.11,615.70
21.76578,466.04,612.69
21.78430,464.01,602.48
21.80603,466.41,588.63
21.82595,468.02,573.97
21.84547,466.19,556.80
21.86619,462.61,540.31
21.88413,463.71,529.01
21.90441,461.41,515.54
21.92486,462.34,504.58
21.94469,459.12,497.43
21.96505,457.08,488.69
21.98413,457.65,481.24
22.00594,458.12,475.74
22.02622,459.00,471.23
22.04569,456.79,467.35
22.06562,457.68,462.89
22.08428,454.39,457.60
22.10497,453.59,457.60
22.12470,454.05,452.45
22.14547,452.33,450.95
22.16514,452.76,448.51
22.18515,454.41,450.79
22.20459,451.99,449.39
22.22529,449.68,446.58
22.24485,453.61,443.97
22.26616,451.43,446.31
22.28557,451.52,442.49
22.30534,450.56,444.19
22.32491,451.17,444.01
22.34596,452.11,443.41
22.36618,452.09,440.35
22.38428,449.66,443.80
22.40490,450.32,444.21
22.42511,451.11,443.61
22.44465,451.77,442.91
22.46555,450.67,445.64
22.48459,451.22,442.98
22.50432,449.98,443.54
22.52517,453.97,444.38
22.54507,453.70,444.50
22.56487,452.96,441.96
22.58497,449.59,441.38
22.60456,451.77,442.97
22.62511,449.95,439.33
22.64492,451.20,439.72
22.66557,447.97,440.40
22.68600,447.26,441.99
22.70595,448.92,443.46
22.72463,448.23,440.80
22.74499,449.62,443.28
22.76583,451.07,444.02
22.78417,449.96,444.22
22.80593,449.02,443.27
22.82486,448.58,442.67
22.84578,450.72,442.00
22.86587,451.24,441.00
22.88455,451.29,443.30
22.90537,449.50,441.30
22.92545,450.05,441.85
22.94575,450.35,444.50
22.96565,449.95,444.85
22.98584,450.51,442.47
23.00506,451.87,446.44
23.02561,450.75,446.40
23.04449,451.09,444.26
23.06431,450.37,446.37
23.08512,450.05,445.37
23.10542,450.72,446.24
23.12448,449.76,444.83
23.14508,449.57,444.97
23.16570,449.32,445.12
23.18597,452.35,445.64
23.20574,450.82,447.60
23.22416,451.10,446.25
23.24502,454.67,444.26
23.26584,452.19,443.05
23.28478,452.59,444.28
23.30552,453.62,440.74
23.32456,455.29,439.92
23.34429,454.32,442.52
23.36440,451.53,442.84
23.38506,453.59,441.81
23.40480,450.26,442.93
23.42576,453.43,443.14
23.44506,454.00,441.61
23.46487,453.46,441.32
23.48499,450.47,443.72
23.50584,452.24,441.94
23.52439,449.64,442.10
23.54543,451.28,441.46
23.56524,450.84,438.42
23.58458,448.70,440.01
23.60618,447.62,439.30
23.62444,448.11,437.62
23.64628,450.99,437.18
23.66567,449.05,435.75
23.68650,451.01,436.93
23.70675,452.00,440.93
23.72575,451.17,438.81
23.74644,447.57,441.10
23.76722,448.68,440.38
23.78618,448.91,440.08
23.80583,448.35,442.54
23.82638,451.38,440.01
23.84623,449.32,440.99
23.86675,448.90,441.22
23.88665,450.72,441.08
23.90571,452.31,441.49
23.92595,450.05,440.65
23.94634,452.65,439.71
23.96548,451.87,440.47
23.98649,451.73,441.08
24.00543,452.93,439.72
24.02619,454.65,438.91
24.04715,451.07,438.82
24.06631,454.71,439.34
24.08583,454.80,438.72
24.10692,455.71,439.12
24.12707,455.25,437.33
24.14711,452.85,437.88
24.16579,454.38,436.61
24.18608,452.79,437.73
24.20569,453.89,437.50
24.22615,454.14,439.29
24.24600,455.42,438.71
24.26526,453.13,438.15
24.28562,452.68,437.18
24.30563,452.58,438.11
24.32675,450.78,438.55
24.34610,450.43,439.11
24.36715,452.33,437.45
24.38659,451.43,438.75
24.40543,454.19,437.90
24.42700,452.56,438.43
24.44663,454.05,440.69
24.46509,451.67,438.21
24.48613,453.28,438.66
24.50602,453.02,441.56
24.52583,452.46,440.67
24.54709,454.17,440.13
24.56651,450.42,442.16
24.58633,450.38,439.64
24.65041,452.16,442.45
24.65068,453.55,442.42
24.65057,450.75,439.61
24.66672,451.46,440.57
24.68658,452.79,442.17
24.70683,452.27,439.05
24.72566,449.79,439.32
24.74631,449.87,440.66
24.76591,449.83,440.68
24.78578,451.62,440.75
24.80716,452.79,437.71
24.82711,453.00,437.86
24.84575,452.65,439.29
24.86589,453.13,436.40
24.88525,450.94,437.69
24.90709,452.74,440.38
24.92599,456.30,439.69
24.94757,454.43,437.84
24.96626,453.41,440.93
24.98679,453.51,441.79
25.00620,453.50,439.91
25.02764,453.66,442.27
25.04667,455.76,439.43
25.06643,453.15,442.08
25.08826,453.73,442.71
25.10724,453.80,441.95
25.12788,454.42,440.74
25.14607,453.84,439.11
25.16709,454.52,442.46
25.18686,454.59,440.30
25.20712,458.28,444.47
25.22812,458.15,447.89
25.24758,456.70,442.90
25.26836,453.88,431.78
25.28931,451.18,420.43
25.30888,449.64,400.24
25.32881,442.49,382.16
25.34851,442.17,364.90
25.36735,438.37,351.90
25.38891,438.93,338.38
25.40846,436.72,327.61
25.42880,438.68,322.80
25.44866,437.63,318.36
25.46790,440.21,320.07
25.48763,444.98,322.83
25.50863,448.16,329.14
25.52902,448.87,338.96
25.54813,453.37,344.56
25.56914,452.97,355.15
25.58734,454.59,365.39
25.60911,453.59,374.73
25.62730,457.55,381.63
25.64879,457.77,390.84
25.66882,459.81,393.86
25.68816,458.35,402.90
25.70743,461.51,408.89
25.72754,461.01,411.37
25.74806,462.32,414.45
25.76885,460.88,416.98
25.78815,461.74,419.39
25.80905,461.12,424.77
25.82800,460.84,424.80
25.84758,463.72,428.84
25.86845,463.03,430.94
25.88905,461.82,435.30
25.90763,462.80,452.85
25.92711,465.80,485.97
25.94788,465.10,526.56
25.96787,466.61,562.23
25.98797,472.11,594.26
26.00694,473.68,616.22
26.02824,475.46,619.89
26.04827,475.78,610.41
26.06739,477.54,596.67
26.08791,475.45,578.55
26.10734,473.60,561.08
26.12756,475.73,542.64
26.14808,472.95,528.93
26.16806,470.18,512.09
26.18826,470.66,501.45
26.20875,470.12,488.47
26.22787,469.82,483.20
26.24894,468.57,473.98
26.26725,464.52,468.72
26.28727,466.01,468.71
26.30726,468.44,464.09
26.32879,469.21,460.86
26.34904,470.19,456.82
26.36751,470.11,457.23
26.38798,467.28,455.12
26.40692,468.06,450.90
26.42860,468.63,451.77
26.44828,468.93,450.83
26.46888,467.99,449.43
26.48834,469.18,448.88
26.50759,467.51,446.03
26.52833,466.50,448.66
26.54828,463.50,446.17
26.56861,464.49,444.81
26.58805,465.11,445.14
26.60727,466.66,448.54
26.62843,465.58,446.08
26.64738,466.00,446.33
26.66878,464.77,445.46
26.68884,461.94,444.15
26.70756,462.07,447.42
26.72734,462.57,444.51
26.74840,461.28,446.34
26.76875,463.94,443.03
26.78891,464.66,444.47
26.80882,461.56,444.44
26.82808,464.06,445.74
26.84807,464.78,446.37
26.86900,463.68,444.69
26.88778,464.30,448.13
26.90805,466.08,446.53
26.92792,465.52,447.08
26.94876,467.87,447.07
26.96770,467.29,450.09
26.98901,465.99,448.27
27.00752,464.23,450.11
27.02846,467.62,447.89
27.04804,465.56,445.77
27.06797,463.76,445.68
27.08736,464.21,446.81
27.10821,464.99,448.38
27.12741,463.43,446.39
27.14796,467.38,446.64
27.16792,464.27,447.08
27.18880,465.67,446.88
27.20722,467.89,447.24
27.22839,467.26,444.25
27.24803,463.10,446.94
27.26706,463.10,444.89
27.28896,464.53,447.02
27.30757,466.31,445.18
27.32823,466.12,445.46
27.34893,465.66,443.13
27.36841,464.50,446.11
27.38855,466.88,445.73
27.40704,465.32,445.17
27.42721,467.11,446.27
27.44803,464.88,443.34
27.46859,465.08,445.06
27.48847,465.67,444.18
27.50879,463.28,443.17
27.52791,466.37,445.07
27.54901,466.68,444.03
27.56803,465.89,444.64
27.58750,465.75,444.44
27.60824,466.81,444.67
27.62846,464.90,446.35
27.64692,467.82,444.68
27.66834,467.55,447.45
27.68863,467.40,446.02
27.70869,464.83,446.23
27.72795,467.82,448.45
27.74763,467.06,447.81
27.76777,466.53,448.21
27.78916,466.98,445.44
27.80830,467.52,448.83
27.82827,466.87,446.64
27.84737,465.49,446.00
27.86821,463.77,444.18
27.88878,464.97,447.18
27.90732,464.81,445.22
27.92841,462.94,445.32
27.94792,464.92,445.02
27.96739,463.02,444.66
27.98829,464.77,444.80
28.00780,466.59,444.93
28.02894,466.74,445.07
28.04774,464.70,445.31
28.06764,466.32,445.41
28.08788,467.28,444.75
28.10861,466.77,444.34
28.12803,466.14,443.66
28.14704,467.88,445.05
28.16724,467.83,446.67
28.18703,468.45,444.52
28.20830,468.20,447.57
28.22882,468.16,446.24
28.24905,466.06,446.90
28.26823,467.47,445.25
28.28881,465.80,448.82
28.30858,466.82,446.68
28.32853,464.59,447.73
28.34822,464.09,447.39
28.36710,466.64,447.94
28.38894,464.63,444.31
28.40892,466.05,445.20
28.42872,467.84,444.64
28.44741,467.76,445.07
28.46838,465.15,445.89
28.48976,466.96,445.63
28.50871,467.05,446.88
28.52794,469.72,449.61
28.54968,470.16,448.24
28.56893,467.87,447.38
28.58920,467.98,447.41
28.60842,470.50,446.31
28.62839,469.34,449.42
28.64886,467.45,449.26
28.66979,468.28,449.99
28.68865,467.80,449.76
28.70983,468.74,447.22
28.72934,464.32,448.77
28.74951,465.12,449.48
28.76929,463.21,449.13
28.78902,465.08,445.34
28.80958,464.50,448.81
28.82852,467.11,448.16
28.84898,464.62,446.00
28.86844,466.01,447.22
28.88863,464.00,448.73
28.90854,466.29,447.59
28.92892,463.33,448.73
28.94955,465.89,447.48
28.96851,465.55,447.16
28.98996,463.11,450.12
29.00965,464.28,449.15
29.02823,462.31,447.98
29.04864,462.54,449.45
29.06831,461.69,447.71
29.08882,461.13,446.36
29.10949,465.30,449.26
29.12972,465.95,448.30
29.14993,464.15,450.36
29.16978,465.45,449.50
29.18934,463.49,448.23
29.20833,465.09,448.12
29.22983,463.10,448.27
29.24935,465.88,446.39
29.26852,464.78,446.26
29.28840,464.81,449.68
29.30867,467.23,448.53
29.32882,467.24,448.38
29.34830,467.50,448.84
29.36904,464.84,445.25
29.38970,464.27,448.60
29.40837,464.31,446.84
29.42926,465.37,447.84
29.45107,464.76,448.70
29.46943,462.40,448.36
29.48895,463.76,447.66
29.50954,464.63,447.51
29.53090,463.54,447.74
29.54915,464.79,449.43
29.56918,465.18,450.58
29.58897,463.59,447.42
29.60931,464.39,447.54
29.63009,467.35,451.38
29.64891,466.84,451.01
29.67073,465.49,451.78
29.69095,468.66,450.92
29.70904,467.46,450.99
29.72989,468.02,445.45
29.74899,466.20,440.67
29.77010,463.83,423.80
29.79022,459.12,410.46
29.81093,457.82,389.17
29.83019,455.91,372.91
29.85082,454.73,357.52
29.86942,450.57,344.99
29.88987,450.35,333.82
29.90941,448.85,329.03
29.93066,448.78,325.65
29.95064,450.09,328.22
29.96902,450.18,333.04
29.99070,451.83,337.17
30.00926,453.78,345.81
30.02939,455.90,354.44
30.05050,455.12,363.96
30.07065,458.93,371.18
30.09038,461.03,380.20
30.11014,461.66,389.72
30.13100,463.07,395.53
30.15035,463.74,403.30
30.17060,461.23,408.21
30.19061,460.48,412.28
30.21071,460.30,419.58
30.22936,461.01,425.03
30.24967,464.68,427.08
30.27087,464.53,430.85
30.29049,464.31,454.77
30.31062,465.84,485.71
30.33103,469.38,522.79
30.35109,472.97,559.16
30.36923,475.13,582.84
30.39022,475.14,598.80
30.41061,474.96,604.61
30.42945,475.62,601.36
30.45041,476.81,587.08
30.46965,478.41,572.89
30.48962,476.60,558.06
30.50932,473.49,542.06
30.52991,471.03,528.35
30.55011,471.01,514.12
30.56972,471.33,505.48
30.59079,469.52,495.74
30.61038,469.24,489.27
30.63090,469.15,482.59
30.65007,466.31,472.66
30.67049,469.82,469.62
30.69008,466.34,466.14
30.70911,465.51,461.07
30.73039,467.24,458.60
30.74925,464.90,457.58
30.77062,462.99,456.44
30.78933,464.27,452.65
30.80959,463.15,451.90
30.82957,463.17,451.03
30.84914,461.25,449.13
30.86999,463.49,448.47
30.89083,461.98,450.14
30.90907,463.18,450.92
30.93082,462.64,450.83
30.95019,464.20,451.79
30.97060,466.30,450.05
30.98997,464.47,453.62
31.01007,465.03,450.10
31.03015,462.22,453.45
31.04916,464.06,451.42
31.06933,462.98,451.89
31.09030,464.73,450.22
31.11062,465.71,449.83
31.12900,466.43,450.83
31.15048,464.22,448.98
31.17002,465.26,447.87
31.18900,463.86,449.11
31.20937,463.98,446.48
31.22969,464.30,447.81
31.24941,466.13,448.45
31.26937,464.40,448.72
31.28950,465.62,448.73
31.31087,465.57,446.82
31.33063,463.48,448.48
31.34966,465.49,448.96
31.36936,463.27,448.28
31.39012,463.49,448.90
31.41072,461.85,445.44
31.42996,462.57,447.70
31.44955,463.62,446.55
31.47012,460.85,447.10
31.49012,463.88,446.57
31.51015,460.05,447.06
31.52917,458.88,449.89
31.55094,459.16,451.46
31.56907,458.73,449.77
31.58985,460.27,450.75
31.61016,460.61,449.92
31.63032,463.63,452.61
31.65018,461.72,451.47
31.66948,463.00,449.69
31.69015,463.02,447.95
31.70992,464.01,449.52
31.73015,465.78,448.25
31.75043,465.64,449.82
31.76939,464.39,448.75
31.78969,463.37,448.23
31.81037,462.10,448.27
31.82991,459.64,447.89
31.84943,460.85,446.32
31.86894,459.06,449.89
31.88925,462.04,447.07
31.90904,459.54,446.10
31.92924,461.07,446.26
31.94935,460.12,446.04
31.97098,459.93,447.35
31.98951,458.87,447.04
32.01039,461.53,447.04
32.03048,463.72,448.66
32.05078,463.97,447.46
32.07089,461.62,447.66
32.09070,463.32,447.00
32.10999,460.71,446.41
32.13033,464.28,448.17
32.14984,460.25,447.40
32.16884,462.26,448.14
32.19020,459.86,449.30
32.21013,462.61,452.63
32.22922,460.79,450.99
32.25049,462.72,450.04
32.26896,463.42,452.96
32.29094,462.66,452.29
32.31090,462.55,450.07
32.33006,461.55,448.55
32.35052,463.81,447.49
32.37096,461.33,449.02
32.39041,461.80,448.91
32.41108,460.51,450.58
32.43008,461.14,449.96
32.44952,459.09,448.15
32.46905,461.26,446.41
32.49081,459.26,449.30
32.50940,461.27,446.33
32.53047,460.15,446.32
32.54973,459.14,447.01
32.56905,460.07,445.42
32.59056,460.56,448.13
32.60901,459.30,445.12
32.62919,458.71,446.84
32.64993,458.13,446.62
32.67070,458.99,447.46
32.68927,460.64,447.44
32.71005,463.02,446.91
32.72953,461.40,445.27
32.74912,461.95,445.99
32.77023,462.80,448.66
32.79007,459.22,447.66
32.81030,459.87,448.03
32.83010,460.35,446.09
32.84914,460.99,447.17
32.87036,460.25,446.87
32.88983,459.93,447.25
32.90911,462.06,446.83
32.92905,459.03,444.81
32.95082,461.89,445.76
32.96881,459.58,445.84
32.99036,458.62,447.07
33.00908,458.32,443.85
33.03066,460.08,444.08
33.05026,457.67,447.92
33.06972,457.60,447.33
33.08927,460.45,445.50
33.11004,456.37,446.75
33.13088,457.80,445.81
33.15094,458.95,447.46
33.17048,460.30,444.92
33.19047,460.37,447.55
33.21107,458.03,446.57
33.22941,460.74,446.69
33.25014,458.81,444.89
33.27008,457.46,444.10
33.29008,457.34,445.85
33.31018,456.94,445.53
33.32893,456.32,447.39
33.35012,460.07,448.27
33.36923,460.17,447.86
33.39071,458.23,446.79
33.40973,457.90,447.00
33.42968,456.38,447.31
33.44959,455.55,449.00
33.47023,459.01,447.71
33.48905,457.67,445.16
33.51088,459.97,446.22
33.53008,459.39,446.27
33.55090,462.04,444.78
33.56975,462.07,446.34
33.59009,459.18,443.34
33.61014,459.51,445.21
33.63015,457.18,444.53
33.65102,457.51,446.45
33.67076,456.89,445.50
33.69059,455.96,445.81
33.71105,456.72,445.47
33.72943,456.86,446.46
33.75044,460.68,444.00
33.76945,461.29,443.44
33.78908,459.72,444.54
33.81062,458.94,443.76
33.83068,460.07,443.43
33.84918,459.77,445.44
33.87009,460.21,446.27
33.89146,458.79,446.61
33.91128,455.82,445.03
33.93008,455.18,444.26
33.95038,455.18,442.93
33.97102,456.30,443.53
33.99191,455.64,445.14
34.01151,453.65,445.12
34.03255,454.75,443.48
34.05099,453.45,444.11
34.07183,451.72,444.01
34.09106,451.48,442.23
34.11257,452.02,441.67
34.13280,453.84,441.39
34.15203,452.20,442.48
34.17295,452.11,442.10
34.19298,454.41,440.75
34.21176,452.07,439.96
34.23251,453.50,438.41
34.25083,452.76,440.00
34.27098,451.87,440.85
34.29168,453.72,439.26
34.31290,452.11,439.79
34.33270,451.75,440.93
34.35232,450.49,441.05
34.37267,452.98,443.19
34.39160,451.16,443.22
34.41181,453.77,446.79
34.43299,453.83,442.78
34.45217,450.19,426.67
34.47127,448.83,405.98
34.49122,444.35,384.16
34.51271,441.00,366.68
34.53106,438.47,346.85
34.55102,437.98,335.57
34.57267,433.95,326.39
34.59262,435.81,322.17
34.61235,437.09,319.20
34.63127,440.16,322.89
34.65250,440.72,326.15
34.67283,444.72,333.60
34.69221,447.77,340.82
34.71111,450.69,351.08
34.73229,455.21,360.31
34.75222,456.71,370.29
34.77269,455.40,377.77
34.79248,454.15,383.71
34.81387,455.66,390.50
34.83201,453.57,398.32
34.85309,453.83,405.74
34.87286,453.54,407.15
34.89216,452.84,413.83
34.91303,451.51,415.03
34.93220,448.06,421.27
34.95386,446.20,422.84
34.97352,441.75,426.05
34.99378,443.41,426.37
35.01308,445.66,429.12
35.03357,442.58,430.64
35.05199,442.63,430.50
35.07386,445.56,441.89
35.09282,450.77,463.07
35.11211,453.99,497.45
35.13262,458.88,534.20
35.15337,465.92,564.86
35.17346,466.00,589.51
35.19267,467.05,604.27
35.21240,466.04,600.83
35.23290,466.38,592.05
35.25329,464.68,578.92
35.27200,461.55,560.73
35.29306,460.20,548.78
35.31300,459.87,532.01
35.33227,456.84,521.31
35.35318,457.26,506.20
35.37345,455.58,497.78
35.39321,456.11,490.41
35.41266,452.38,481.85
35.43319,450.23,476.89
35.45345,448.93,470.68
35.47225,449.72,464.55
35.49266,450.60,463.39
35.51360,451.70,458.32
35.53331,449.23,456.15
35.55241,451.00,451.80
35.57305,448.28,449.78
35.59289,450.34,449.17
35.61298,447.97,446.89
35.63207,450.92,446.05
35.65212,450.45,444.77
35.67328,450.33,442.70
35.69388,448.32,443.45
35.71271,451.39,444.66
35.73245,450.52,442.83
35.75311,448.90,444.37
35.77371,450.28,452.90
35.79361,449.65,455.45
35.81229,452.17,457.48
35.83309,452.24,458.66
35.85284,451.96,456.28
35.87350,452.31,454.45
35.89246,450.71,451.49
35.91346,450.61,449.81
35.93364,447.40,445.44
35.95225,448.03,445.43
35.97322,451.20,442.45
35.99331,452.35,441.88
36.01256,451.90,439.09
36.03262,450.82,440.72
36.05313,449.95,438.71
36.07323,451.78,438.06
36.09217,452.77,438.58
36.11370,453.55,436.96
36.13322,452.67,441.66
36.15317,452.66,447.33
36.17307,452.02,462.51
36.19251,453.74,483.87
36.21327,459.69,515.22
36.23330,458.94,543.03
36.25342,458.13,548.72
36.27291,457.19,543.65
36.29259,460.47,526.60
36.31259,456.37,506.64
36.33369,455.26,488.08
36.35190,449.94,466.91
36.37347,446.78,450.98
36.39196,447.22,434.35
36.41387,447.45,420.97
36.43327,444.40,413.51
36.45243,444.10,408.34
36.47186,445.06,405.62
36.49347,444.91,401.13
36.51357,443.54,402.37
36.53321,444.92,400.79
36.55256,444.99,404.89
36.57213,446.46,408.06
36.59326,444.93,409.83
36.61474,447.63,410.97
36.63564,445.11,413.55
36.65532,448.82,417.41
36.67508,446.68,420.14
36.69522,447.67,425.58
36.71564,448.76,427.61
36.73392,450.22,428.01
36.75511,451.08,430.23
36.77453,450.54,432.49
36.79582,450.67,435.99
36.81554,454.33,434.99
36.83575,450.69,436.29
36.85698,451.24,440.12
36.87537,453.03,440.75
36.89517,450.83,439.21
36.91507,451.43,440.29
36.93562,450.57,440.50
36.95527,452.58,439.82
36.97645,453.81,439.69
36.99483,453.10,440.64
37.01601,453.24,441.97
37.03517,454.91,441.51
37.05513,454.64,443.60
37.07564,453.16,441.74
37.09508,455.78,442.59
37.11603,455.63,442.31
37.13585,456.22,445.21
37.15588,457.10,444.36
37.17520,456.19,443.74
37.19609,454.71,445.40
37.21656,454.60,441.29
37.23590,457.46,444.10
37.25629,455.31,443.81
37.27521,454.64,441.44
37.29644,454.13,443.37
37.31552,453.94,442.52
37.33621,455.32,442.21
37.35636,453.52,440.68
37.37538,453.97,440.96
37.39628,456.36,439.99
37.41636,453.25,439.34
37.43647,454.38,441.72
37.45660,454.22,439.89
37.47666,455.23,441.72
37.49687,455.70,442.74
37.51533,458.25,441.86
37.53645,458.06,442.26
37.55527,457.54,443.12
37.57593,455.26,442.39
37.59501,455.22,442.47
37.61642,455.44,441.41
37.63493,455.49,444.61
37.65621,453.65,442.78
37.67658,457.47,445.03
37.69541,455.90,441.46
37.71492,456.12,443.47
37.73554,455.28,441.73
37.75517,455.51,442.25
37.77539,455.74,442.50
37.79568,454.55,442.73
37.81619,454.10,443.65
37.83634,453.65,440.47
37.85600,456.98,443.62
37.87571,457.37,442.52
37.89559,455.58,444.08
37.91549,456.44,442.53
37.93528,454.91,444.91
37.95527,457.77,443.47
37.97671,456.76,444.04
37.99594,460.21,442.30
38.01561,457.35,441.61
38.03537,458.55,442.10
38.05648,456.28,442.24
38.07509,456.46,440.26
38.09530,459.18,441.23
38.11554,454.87,442.57
38.13580,457.49,441.05
38.15492,456.56,439.73
38.17675,458.68,439.70
38.19740,457.56,442.48
38.21629,457.74,443.62
38.23631,457.39,441.88
38.25610,457.88,443.34
38.27767,458.53,443.84
38.29619,457.62,441.31
38.31608,456.26,442.55
38.33751,458.11,444.05
38.35679,457.23,442.50
38.37737,460.61,445.77
38.39664,458.63,446.02
38.41633,459.08,445.02
38.43642,457.85,445.67
38.45657,459.21,443.53
38.47675,456.54,444.15
38.49646,456.89,444.76
38.51706,455.40,445.36
38.53737,458.71,446.09
38.55712,456.79,445.82
38.57630,456.54,444.53
38.59719,456.31,446.13
38.61751,458.45,443.49
38.63682,458.95,444.98
38.65696,461.79,445.15
38.67644,459.27,445.61
38.69624,461.83,445.98
38.71718,461.80,446.09
38.73774,460.06,446.67
38.75610,460.12,446.44
38.77730,461.96,446.73
38.79689,457.83,445.08
38.81657,459.56,443.03
38.83585,461.43,444.41
38.85675,459.29,442.56
38.87781,463.33,444.96
38.89645,462.57,447.84
38.91685,460.30,446.31
38.93642,459.31,438.68
38.95726,459.66,421.73
38.97776,458.81,402.33
38.99740,455.47,381.53
39.01856,452.18,364.40
39.03823,451.13,348.26
39.05684,448.17,337.49
39.07845,444.27,331.96
39.09728,445.51,328.84
39.11857,444.46,328.17
39.13827,445.44,331.05
39.15726,446.42,333.99
39.17745,447.85,338.44
39.19778,452.10,345.94
39.21865,450.95,353.33
39.23868,452.37,358.96
39.25738,451.88,366.38
39.27761,455.53,377.28
39.29799,456.67,387.27
39.31848,454.69,392.84
39.33863,459.46,399.89
39.35871,461.07,407.80
39.37861,464.15,409.68
39.39868,464.69,415.59
39.41962,465.60,421.31
39.43945,466.55,421.95
39.45931,466.72,425.59
39.47870,466.74,430.51
39.49810,467.67,432.49
39.51783,466.18,433.85
39.53782,466.95,444.14
39.55969,468.84,472.78
39.57892,472.08,507.98
39.59813,474.13,543.17
39.61817,477.60,570.06
39.63835,476.01,591.41
39.65843,482.58,601.02
39.67984,482.35,597.44
39.69858,479.83,589.59
39.71827,481.65,575.14
39.73958,477.67,560.52
39.75827,476.07,544.89
39.77982,476.47,530.86
39.79923,477.55,519.03
39.81930,474.25,506.60
39.83948,473.96,496.65
39.85881,473.67,489.85
39.87808,469.61,481.54
39.89860,469.99,475.86
39.91902,468.87,470.44
39.93784,470.66,467.05
39.95892,467.47,461.67
39.97920,469.06,457.98
39.99936,466.19,455.84
40.01869,465.24,457.08
40.03966,466.23,452.88
40.05852,464.96,451.14
40.07947,465.04,453.74
40.09794,463.46,450.32
40.11820,464.27,450.14
40.13915,466.26,449.62
40.15903,465.72,449.04
40.17932,465.51,451.52
40.19984,468.04,448.59
40.21779,465.70,449.82
40.23780,467.91,449.36
40.26043,467.57,448.56
40.28059,465.87,448.64
40.29936,463.54,449.25
40.31883,466.35,447.41
40.33999,465.86,447.57
40.35938,464.90,450.30
40.37982,464.12,450.74
40.39966,465.67,450.08
40.41871,465.83,450.39
40.44064,466.98,448.69
40.45905,466.99,449.13
40.47938,468.74,450.80
40.50044,467.77,449.60
40.51936,467.37,450.40
40.54076,465.11,447.63
40.55992,468.26,448.90
40.58063,464.90,447.53
40.59913,466.63,448.85
40.62005,466.88,449.22
40.64030,466.37,448.22
40.65994,464.02,452.18
40.68069,466.61,450.34
40.69955,464.89,450.51
40.71943,467.06,449.99
40.74004,466.33,449.03
40.75924,467.03,450.35
40.77971,468.39,450.11
40.80050,465.72,451.50
40.82031,465.89,449.69
40.84021,467.09,449.08
40.85908,466.43,450.31
40.87941,464.64,450.20
40.89887,465.72,446.07
40.91963,465.75,447.97
40.93909,464.94,445.93
40.96022,469.00,449.64
40.97967,466.44,447.43
41.00028,465.46,448.65
41.01935,465.83,447.78
41.03980,466.87,447.47
41.05959,463.46,448.72
41.08050,464.23,450.43
41.10004,462.60,447.21
41.11906,462.60,449.80
41.14151,464.78,448.19
41.16127,465.14,447.00
41.18179,463.83,450.18
41.20076,463.46,447.99
41.22028,463.31,449.91
41.23995,466.65,451.11
41.26031,466.66,450.71
41.28094,466.12,447.62
41.30071,464.43,446.72
41.32078,464.06,446.42
41.34086,463.75,447.75
41.36067,464.60,446.11
41.37993,464.76,449.98
41.39993,467.67,446.36
41.42123,464.41,449.23
41.44012,465.44,450.41
41.46147,467.77,451.09
41.48104,466.29,450.88
41.50111,468.53,452.96
41.52047,466.95,451.81
41.54031,468.23,452.55
41.56112,467.22,451.21
41.58138,467.14,449.74
41.59994,466.27,449.72
41.61997,465.36,450.10
41.64171,467.88,448.45
41.66088,467.98,450.31
41.68110,468.41,450.83
41.70081,468.27,449.80
41.72004,471.55,447.78
41.74044,469.89,449.60
41.76116,469.85,449.48
41.78007,472.77,446.47
41.80075,472.24,446.96
41.82106,471.72,447.62
41.84100,470.89,446.13
41.86074,469.15,447.33
41.88104,470.03,446.14
41.90016,468.73,447.51
41.92029,467.07,447.33
41.93996,467.33,446.21
41.95997,466.82,444.84
41.98166,465.81,447.12
42.00057,464.64,447.45
42.01981,467.04,448.22
42.04053,464.00,447.76
42.06169,465.63,445.77
42.08018,463.36,446.39
42.10043,464.34,446.20
42.12038,466.22,448.59
42.14099,462.52,449.58
42.16010,462.36,445.98
42.18002,462.21,449.68
42.20116,463.91,446.98
42.22043,462.73,448.51
42.24176,463.94,448.92
42.26040,463.61,445.19
42.28025,462.56,448.07
42.30146,462.29,448.38
42.32146,461.54,446.72
42.34117,463.93,445.62
42.36148,463.76,447.86
42.38098,463.80,448.52
42.40011,462.74,446.81
42.41982,465.56,452.35
42.44171,461.92,456.38
42.46007,462.72,453.86
42.48050,463.07,454.32
42.50052,462.42,453.85
42.52120,463.25,452.71
42.54165,466.02,451.35
42.56137,465.16,449.07
42.58118,462.72,450.35
42.60140,462.40,446.96
42.62061,462.92,447.34
42.64158,463.09,447.41
42.66094,465.68,448.19
42.68063,466.91,447.37
42.70186,466.06,447.85
42.72015,464.87,447.39
42.74006,464.72,446.05
42.75999,463.92,446.93
42.78017,466.78,450.01
42.80113,465.39,450.32
42.82170,464.67,451.11
42.84119,465.50,449.06
42.86059,464.59,448.90
42.88132,464.29,449.48
42.90131,463.78,449.41
42.92080,464.70,451.36
42.94082,464.07,447.61
42.96133,465.69,447.65
42.97974,466.77,446.79
43.00199,464.13,449.01
43.02152,466.01,446.52
43.04021,465.38,445.50
43.05985,466.48,445.84
43.08056,463.41,446.73
43.10165,465.00,443.00
43.12119,463.52,444.47
43.14087,463.69,445.28
43.16002,465.40,446.23
43.18032,462.56,445.72
43.20039,465.03,447.64
43.22071,464.73,447.30
43.24055,466.80,445.73
43.26130,465.64,447.76
43.28106,465.03,447.17
43.30055,465.04,448.86
43.32034,466.10,449.79
43.34135,467.77,449.24
43.36041,467.38,448.02
43.38092,468.35,448.38
43.39996,463.73,450.10
43.42080,464.83,447.67
43.44068,464.74,439.62
43.46137,460.95,426.18
43.47986,459.29,405.99
43.50103,454.47,382.28
43.52015,450.72,361.11
43.54052,448.37,342.36
43.56029,443.91,330.37
43.58103,440.32,320.36
43.60122,441.45,317.52
43.62020,442.35,313.59
43.64095,442.86,318.72
43.66154,447.49,322.45
43.68099,449.22,330.06
43.70109,449.88,338.19
43.72081,451.86,348.77
43.74136,453.04,355.33
43.76143,454.72,366.41
43.78068,453.41,372.64
43.80100,455.36,381.32
43.82066,456.88,391.99
43.84017,459.62,398.33
43.86145,457.30,407.38
43.88150,460.19,411.20
43.90125,463.74,423.58
43.92024,471.66,439.54
43.94187,474.92,457.77
43.96218,478.75,469.87
43.98169,481.16,475.96
44.00245,482.91,480.31
44.02231,482.33,478.07
44.04165,483.37,475.05
44.06128,481.71,470.20
44.08126,479.99,479.21
44.10077,476.68,497.14
44.12177,474.39,525.39
44.14157,469.56,551.94
44.16170,465.08,570.45
44.18127,465.43,580.65
44.20173,462.96,579.13
44.22227,459.13,569.63
44.24112,458.35,561.55
44.26182,457.45,550.47
44.28171,456.89,537.10
44.30089,458.94,525.19
44.32247,459.60,515.81
44.34232,459.15,503.31
44.36268,456.00,497.07
44.38212,456.18,489.64
44.40198,456.23,486.54
44.42322,458.30,479.21
44.44224,456.11,474.29
44.46260,458.68,469.50
44.48250,462.29,465.98
44.50251,465.73,463.61
44.52218,466.68,458.82
44.54332,465.57,455.68
44.56208,466.88,452.61
44.58229,465.83,451.95
44.60223,465.70,450.66
44.62190,466.93,449.01
44.64342,467.30,448.09
44.66345,465.46,448.26
44.68310,467.21,449.76
44.70156,465.52,446.72
44.72291,462.90,450.64
44.74305,463.00,450.46
44.76241,464.66,447.78
44.78334,463.99,449.02
44.80353,464.44,451.66
44.82319,460.18,450.42
44.84245,460.10,449.72
44.86289,459.03,448.58
44.88211,459.20,448.96
44.90361,460.15,448.48
44.92300,458.49,450.21
44.94318,460.39,447.18
44.96237,457.62,446.55
44.98286,456.80,448.38
45.00259,455.70,449.90
45.02191,459.90,449.04
45.04194,456.52,447.72
45.06361,456.43,449.82
45.08246,458.18,448.86
45.10331,457.78,447.79
45.12221,455.78,451.72
45.14189,459.68,448.89
45.16265,458.64,449.24
45.18224,458.90,448.22
45.20216,457.86,451.45
45.22235,457.87,450.53
45.24274,454.50,448.57
45.26296,454.74,447.47
45.28192,454.69,449.95
45.30269,454.76,446.80
45.32303,456.55,449.24
45.34265,454.78,449.02
45.36224,456.93,449.19
45.38294,457.43,448.59
45.40212,455.73,448.30
45.42398,457.16,446.81
45.44441,455.82,449.54
45.46407,455.91,449.13
45.48290,456.41,448.93
45.50428,457.21,445.96
45.52279,454.79,443.46
45.54315,454.53,447.05
45.56447,454.21,445.59
45.58452,454.15,450.83
45.60297,452.78,455.03
45.62372,455.38,457.83
45.64303,454.02,457.24
45.66347,457.49,456.91
45.68336,455.97,456.11
45.70334,452.61,456.48
45.72296,453.82,454.46
45.74366,453.60,453.47
45.76349,454.16,453.74
45.78380,453.57,452.85
45.80536,452.97,454.73
45.82584,450.85,452.51
45.84615,450.52,450.73
45.86650,452.96,452.06
45.88497,452.50,448.95
45.90584,449.40,449.70
45.92556,450.82,451.41
45.94498,452.55,450.03
45.96506,450.07,448.19
45.98620,451.61,448.69
46.00662,451.47,451.26
46.02558,453.44,448.86
46.04731,452.86,451.17
46.06566,451.02,451.01
46.08721,453.79,449.39
46.10734,452.53,448.63
46.12783,451.40,444.89
46.14723,451.77,447.78
46.16769,451.59,443.34
46.18757,452.49,443.61
46.20798,453.22,446.33
46.22789,450.97,444.98
46.24835,452.52,442.75
46.26748,450.15,442.17
46.28767,451.86,445.64
46.30690,452.37,441.78
46.32823,452.37,444.44
46.34713,449.83,442.54
46.36846,450.29,443.43
46.38687,448.94,439.25
46.40690,451.02,440.04
46.42730,452.47,441.15
46.44771,452.21,440.07
46.46669,450.52,439.57
46.48798,451.86,439.69
46.50942,451.85,438.96
46.52949,451.19,438.75
46.54763,451.45,441.14
46.56789,453.91,443.41
46.58875,452.40,442.86
46.60787,450.76,443.19
46.62924,453.07,443.24
46.64939,454.19,442.91
46.67028,455.16,444.43
46.68910,455.53,444.17
46.71165,457.27,443.71
46.73072,454.83,443.33
46.75041,455.28,446.91
46.77120,457.89,446.70
46.79073,458.65,446.09
46.81139,457.70,444.24
46.83111,457.90,447.30
46.85019,456.31,444.21
46.87093,456.43,443.40
46.89035,456.91,446.50
46.91011,457.85,445.70
46.92977,454.81,444.23
46.94954,456.81,443.49
46.97123,455.10,446.63
46.99010,457.08,446.62
47.00963,454.85,445.49
47.03124,457.96,443.54
47.05001,458.31,446.68
47.07147,458.17,442.97
47.09028,459.71,446.29
47.11130,460.33,444.86
47.13057,458.67,444.40
47.15154,459.54,442.58
