Program Time [s],data 0,data 1
3.57623,495.19,515.29
3.57626,499.15,518.83
3.57629,504.92,520.27
3.57633,509.94,520.41
3.57636,513.35,519.13
3.57639,514.88,516.3
3.57642,514.7,511.84
3.57646,513.56,506.07
3.57647,509.86,515.29
3.57793,495.19,518.83
3.57797,499.15,520.27
3.578,504.92,520.41
3.57804,509.94,519.13
3.57807,513.35,516.3
3.5781,514.88,511.84
3.57814,514.7,506.07
3.57817,513.56,515.29
3.57818,509.86,518.83
3.57821,495.19,520.27
3.57825,499.15,520.41
3.57828,504.92,519.13
3.57831,509.94,516.3
3.57834,513.35,511.84
3.57837,514.88,506.07
3.5784,514.7,510.2
3.57843,513.56,510.56
5.09388,510.6,510.65
5.11446,508.88,509.92
5.1348,506.5,508.33
5.15528,505.6,502.87
5.17574,505.48,497.09
5.20032,496.39,488.68
5.22083,479.71,480.54
5.24134,459.17,471.63
5.26177,433.73,464.71
5.28225,408.79,462.56
5.30273,396.23,463.25
5.32728,389.98,466.6
5.34803,391.39,471.68
5.36827,394.31,478.74
5.38871,400.65,485.2
5.4093,406.52,492.76
5.43371,414.01,498.41
5.4544,421.01,502.92
5.47483,428.41,506.54
5.49528,435.93,509.23
5.51589,441.94,508.39
5.5363,447.75,506.31
5.56081,452.6,501.85
5.58126,457.68,499.28
5.60178,465.55,495.02
5.62229,472.44,492.42
5.64273,477.35,491.53
5.66717,484.68,491.83
5.68778,488.54,493.46
5.70841,492.43,496.17
5.72883,494.15,499.34
5.74926,495.92,502.67
5.76971,496.13,507.93
5.7942,495.51,512.75
5.81476,494.21,516
5.83526,492.97,517.2
5.85575,491.17,518.16
5.87619,490.34,518.33
5.90068,491.27,515.26
5.92118,492.22,511.61
5.94171,493.97,507.89
5.96229,494.98,503.51
5.9827,496.78,499.41
6.00318,499.03,496.73
6.0277,501.42,495.98
6.0483,502.54,496.78
6.06874,504.23,499.63
6.08915,504.78,502.3
6.10967,504.03,506.24
6.13411,504.02,510.59
6.15465,502.62,514.07
6.17519,501.49,517.06
6.19572,497.6,517.45
6.21611,496.08,518.36
6.23667,494.66,517.49
6.26114,494.53,513.79
6.28163,495.62,509.03
6.30213,495.9,505.43
6.3227,496.92,500.54
6.34313,497.94,496.63
6.3636,497.95,494.11
6.38817,498.96,493.08
6.40868,500.57,492.87
6.42908,502.85,494.49
6.44966,504.28,497.2
6.47006,504.43,501.96
6.49458,502.54,505.77
6.51514,502.03,509.21
6.5357,500.63,511.57
6.55607,499.1,514.06
6.57659,496.88,513.44
6.59709,495.7,511.36
6.62157,495.16,508.28
6.64206,494.13,505.23
6.66262,495.5,501.18
6.68302,495.2,498.15
6.70359,497.56,495.32
6.72807,498.85,493.05
6.74854,500.28,491.24
6.76911,501.42,491.59
6.78952,500.94,494.28
6.81003,502.75,498.42
6.83049,503.2,504.34
6.85505,501.16,514.67
6.87558,506.93,526.54
6.89606,522.14,537.03
6.91664,543.11,544.62
6.93699,562.89,548.3
6.9615,580.71,548.64
6.98202,594.57,543.71
7.00256,604.46,537.17
7.02302,609.57,529.53
7.0435,608.25,523.23
7.06395,607,516.98
7.08857,602.6,509.19
7.10899,595.08,506.15
7.12962,589.06,501.92
7.14995,582.45,498.94
7.17047,574.56,500.35
7.19504,566.85,502.68
7.21575,558.68,505.14
7.23596,550.14,504.71
7.25654,542.91,504.77
7.277,534.93,503.02
7.29741,527.55,502.41
7.3219,525.24,499.93
7.34249,518.59,495.94
7.36302,516.07,491.76
7.38344,514.06,487.6
7.40399,513.25,484.08
7.42446,510.8,481.47
7.44899,510.64,479.17
7.46951,511.51,477.54
7.49,511.21,477.23
7.5104,500.57,477.18
7.53099,477.45,476.35
7.55553,449.96,478.08
7.57608,419.57,481.46
7.59649,396.66,486.17
7.61705,385.12,491.54
7.6375,380.3,496.23
7.65783,382.64,499.38
7.68243,385.91,499.51
7.70289,392.13,499.21
7.72345,399.5,497.96
7.74388,409.6,496.17
7.76438,418.28,493.74
7.78883,427.83,489.79
7.80937,437.86,487.23
7.82991,441.69,486.59
7.85035,439.35,488.07
7.87096,441.08,490.45
7.89152,443.46,494.76
7.91598,446.57,499.81
7.93637,450.86,505.45
7.95685,454.89,511.16
7.97746,456.91,514.73
7.99786,459.93,515.78
8.02228,462.54,516.63
8.04281,464.43,514.7
8.06344,467.95,511.76
8.08388,469.56,508.21
8.10436,472.05,504.17
8.12484,473.84,500.13
8.14933,475.67,495.91
8.16993,478.54,494.73
8.19035,482.03,494.18
8.21096,484.02,494.54
8.23134,485.82,497.44
8.25183,490.05,501.15
8.27636,491.64,505.12
8.29683,492.51,509.29
8.31729,493.61,513.04
8.33777,493.89,517.43
8.35828,493.51,520.14
8.38287,502.61,521.11
8.40336,511.09,518.89
8.42384,517.67,517.11
8.4444,519.54,512.49
8.46483,520.23,507.79
8.48522,520.58,503.43
8.50976,521.87,498.95
8.53036,521.29,496.76
8.55074,521.23,495.01
8.57128,519.79,494.6
8.59169,518.63,496.48
8.6162,517.5,499.39
8.63671,515.6,503.11
8.65725,512.88,506.49
8.67771,510.11,510.79
8.69838,507.88,513.23
8.71879,504.91,514.99
8.74326,502.93,515.19
8.76371,499.94,514.75
8.78427,497.75,512.6
8.8047,497.6,509.08
8.82522,498.08,506.86
8.84972,499.47,502.09
8.87019,500.57,499.67
8.89081,503.06,497.14
8.91119,504.85,495.31
8.93178,505.08,495.65
8.95212,507.86,495.92
8.97674,508.69,498.34
8.99718,507.75,503.27
9.01774,507.8,506.61
9.03815,508.44,511.69
9.05871,505.55,514.55
9.0831,504.04,517.04
9.10367,500.83,517.03
9.12421,497.07,516.23
9.14479,494.85,514.18
9.16517,494.88,511.35
9.18563,494.71,507.28
9.21019,496.77,502.22
9.23067,498.61,497.98
9.25116,499.49,495.58
9.27163,500.79,493.07
9.29228,502.83,493.05
9.31268,505.87,494.44
9.33708,506.49,498.55
9.35769,505.19,502.44
9.37817,503.56,506.95
9.39861,501.84,510.56
9.41903,498.88,513.85
9.44357,497.3,515.88
9.46416,495.84,515.9
9.48465,493.67,515.12
9.50525,493.14,512.5
9.52554,493.31,510
9.54602,492.85,506
9.57073,492.48,501.4
9.59111,493.98,495.92
9.61164,496.19,492.34
9.63204,498.75,491.47
9.65255,500.4,492.17
9.67715,501.32,494.14
9.69754,501.86,495.51
9.71811,501.48,499.61
9.73851,500.79,504.29
9.7591,499.83,508.03
9.77952,497.46,512.82
9.80397,495.37,514.66
9.82458,494.1,515.53
9.84501,493.88,515.22
9.86554,493.3,513.18
9.88598,493.64,510.14
9.91046,494.51,505.71
9.93107,495.01,501.97
9.9516,495.21,498.18
9.97211,494.77,495.34
9.99253,489.01,494.27
10.013,481.21,494.02
10.0374,476.37,495.01
10.0581,476.69,497.61
10.0785,476.96,500.29
10.099,476.56,504.63
10.1194,476.05,508.91
10.14,475.44,511.72
10.1645,476.95,514.38
10.185,474.56,514.9
10.2055,477.25,513.72
10.226,477.4,512.38
10.2466,478.52,510.1
10.2711,480.42,505.08
10.2914,481.33,500.67
10.3119,480.47,495.73
10.3325,482.77,492.19
10.3531,485.22,490.55
10.3735,488.97,489.84
10.3981,490.78,494.07
10.4184,490.82,503.66
10.4389,496.86,516.93
10.4594,513.49,528.34
10.4799,539.99,538.27
10.5044,567.19,548.02
10.5249,589.75,556.01
10.5455,607.4,560.21
10.5659,619.92,560.37
10.5864,627.34,555.9
10.6069,629.67,549.52
10.6314,629.54,542.41
10.652,627.03,532.93
10.6725,620.42,523.94
10.6929,615.14,514.56
10.7134,608.31,505.84
10.7379,601.45,500.48
10.7584,593.36,497.78
10.7791,582.89,497.62
10.7995,574.51,498.3
10.8198,565.61,500.04
10.8404,555.49,502.43
10.865,546.99,505.35
10.8855,538.59,510.88
10.9059,533.67,512.5
10.9265,528.14,506.4
10.9468,524.31,495.12
10.9714,512.45,480.3
10.9919,489.76,463.24
11.0124,461.41,450.19
11.0329,432.33,443.55
11.0533,406.86,440.84
11.0738,392.29,441.07
11.0982,386.23,444.86
11.1189,387.18,450.29
11.1393,393.35,457.83
11.1599,401.48,467.06
11.1804,409.38,476.05
11.2008,413.91,484.84
11.2253,422.12,491.07
11.246,431.5,497.86
11.2664,437,506.09
11.2868,437.4,511.87
11.3073,429.92,514.5
11.3317,426.34,514.2
11.3523,427.47,511.96
11.3728,429.98,509.17
11.3932,434.38,504.33
11.4137,439.3,499.87
11.4342,448.64,498.09
11.4587,455.11,497.27
11.4793,462.69,497.02
11.4997,465.35,499.22
11.5203,470.08,503.57
11.5407,473.67,507.06
11.5653,477.13,510.05
11.5858,478.11,513.44
11.6063,480.29,515.15
11.6268,481.23,518.12
11.6472,482.78,517.9
11.6677,482.83,516.12
11.6922,486.06,513.49
11.7127,488.85,508.99
11.7332,492.08,504.2
11.7539,494.66,499.96
11.7742,495.13,496.77
11.7988,495.7,494.81
11.8193,497.76,494.45
11.8398,497.61,494.76
11.8602,497.49,497.21
11.8806,499.59,500.77
11.9012,500.47,504.41
11.9256,500.18,508.53
11.9462,499.14,512.22
11.9667,497.71,514.58
11.9872,495.37,516.26
12.0077,495.1,516.21
12.0322,494.48,513.37
12.0526,494.18,511.29
12.0733,493.55,508.84
12.0937,494.04,506.47
12.1142,494.03,501.98
12.1347,496.62,499.78
12.1591,498.5,492.62
12.1797,499,487.5
12.2002,508,486
12.2207,516,487.4
12.2411,520,489.72
12.2616,522.2,494.98
12.2861,521.36,499.58
12.3067,519.89,504.06
12.3272,518.11,507.85
12.3476,517.09,510.28
12.3683,514.87,511.03
12.3926,512.1,511.62
12.4132,509.48,509.7
12.4337,506.38,508.76
12.4542,514.31,505.01
12.4747,521.24,501
12.4951,523.8,498.6
12.5195,525.84,495.28
12.5402,527.67,493.23
12.5606,527.94,493.58
12.581,527.95,496.06
12.6017,526.56,499.65
12.626,523.65,504.32
12.6466,521.32,508.46
12.6673,515.05,512.37
12.6876,512.04,515.49
12.7082,508.23,517.59
12.7285,506.99,518.28
12.753,504.59,517.22
12.7736,502.07,514.98
12.7941,500.06,512.38
12.8146,501.25,508.9
12.8351,500.4,504.52
12.8596,501.32,499.42
12.8801,502.05,496.94
12.9007,503.44,495.55
12.921,504.55,495.64
12.9416,503.64,495.91
12.962,503.31,499.33
12.9866,501.85,503.26
13.0071,500.48,507.41
13.0275,499.19,511.53
13.0481,497.15,515.62
13.0685,497.12,517.3
13.0889,497.49,517.64
13.1135,497.4,517.71
13.1341,496.92,512.77
13.1545,496.33,506.41
13.1749,494.67,499.93
13.1955,490.33,491.95
13.22,488.47,486.56
13.2405,489.17,483.05
13.2611,489.14,481.44
13.2815,492.91,481.15
13.302,493.93,483.72
13.3224,493.74,487.98
13.3469,494.19,494.18
13.3674,493.56,501.34
13.3881,493.44,512.68
13.4085,493.56,529.14
13.429,502.44,543.11
13.4534,519.16,551.29
13.4739,542.72,552.63
13.4945,567.38,550.91
13.515,585.5,546.12
13.5354,597.2,540.1
13.556,603.96,533.28
13.5804,604.77,526.22
13.601,605.02,520.38
13.6215,600.21,517.3
13.6419,595.97,515.24
13.6626,592.78,514.39
13.6869,587.02,514.92
13.7075,579.42,516.93
13.728,571.93,518.95
13.7483,564.95,520.56
13.769,556.76,523.25
13.7893,549.61,524.6
13.8139,544.08,524.88
13.8344,537.27,523.7
13.8549,532.01,520.56
13.8755,527.01,517.65
13.8959,521.81,512.32
13.9205,522.45,506.86
13.9409,520.56,501.88
13.9614,518.45,499.51
13.9819,516.56,497.01
14.0023,515.45,494.2
14.0229,516.76,490.36
14.0473,509.81,485.29
14.0681,492.64,478.63
14.0883,467.92,474.11
14.1088,439.13,474.69
14.1293,415.11,476.55
14.1539,400.28,479.64
14.1744,392.23,482.51
14.1948,390.58,484.01
14.2153,395.07,485.01
14.2357,400.45,484.61
14.2562,408.16,481.88
14.2807,415.73,479.91
14.3013,423.98,478.13
14.3218,434.99,476.9
14.3423,443.39,478.72
14.3627,452.71,479.78
14.3832,458.37,482.82
14.4077,463.7,487.26
14.4282,467.96,492.21
14.4487,474.37,497.76
14.4692,476.89,502.81
14.4898,476.31,506.85
14.5143,476.65,509.28
14.5348,477.32,511.02
14.5552,478.26,511.22
14.5757,480.41,509.38
14.5962,480.72,505.5
14.6167,481.58,501.4
14.6413,485.66,497.52
14.6619,491.33,493.22
14.6822,495.66,490.77
14.7028,495.93,489.42
14.7232,499.15,489.73
14.7477,500.52,492.19
14.7682,504.01,495.55
14.7889,504.81,499.04
14.8093,503.05,504.03
14.8298,502.04,508.63
14.8502,502.83,511.9
14.8747,500.06,515.12
14.8952,497.05,516.3
14.9157,495.04,514.84
14.9362,494.23,514.27
14.9567,494.39,510.82
14.9812,499.11,506.85
15.0016,498.49,502.88
15.0221,498.39,499.11
15.0427,500.31,496.08
15.0632,502.65,494.87
15.0839,504.72,494.09
15.1082,504.58,495.28
15.1287,503.26,497.82
15.1492,501.21,501.26
15.1698,501.57,503.8
15.1902,501.25,507.24
15.2107,496.8,510.6
15.2352,489.44,513.08
15.2556,485.75,513.86
15.2762,482.6,513.49
15.2968,481.08,512.79
15.3171,480.87,509.03
15.3416,480.29,505.63
15.3621,482.43,501.3
15.3827,485.95,496.84
15.4032,489.76,493.87
15.4236,489.21,490.3
15.4442,492.97,490.64
15.4686,495.77,491.71
15.4891,499.82,494.37
15.5097,496.65,500.89
15.53,501.32,506.12
15.5505,506.66,510.29
15.575,508.33,514.43
15.5957,508.86,518.75
15.6162,505.49,519
15.6368,506.59,519.2
15.657,503.67,516.96
15.6776,504.74,515.57
15.7021,502.99,512.05
15.7227,503.79,507.24
15.7432,503.23,502.39
15.7636,504.39,497.92
15.784,505.71,494.73
15.8086,508.37,493.59
15.8291,506.69,494.07
15.8497,506.16,495.45
15.8702,505.92,499.96
15.8905,504.14,503.57
15.911,502.31,508.66
15.9355,500.25,513.33
15.9561,500.4,516.66
15.9765,497.52,521.73
15.997,496.82,530.98
16.0176,498.85,542.79
16.042,510.48,549.03
16.0625,528.99,547.22
16.083,548.79,541.58
16.1036,569.03,535.86
16.124,588.02,528.29
16.1444,599.82,522.43
16.169,606.26,518.35
16.1896,610.2,516.48
16.2099,608.36,515.98
16.2305,602.29,515.19
16.2509,596.23,517.55
16.2714,587.79,518.84
16.2959,578.63,519.87
16.3165,568.5,522.3
16.337,557.6,522.04
16.3575,550.28,522.23
16.3781,541.43,519.38
16.4024,536.34,515.91
16.423,530.27,511.93
16.4434,525.42,506.74
16.464,523.53,502.19
16.4843,523.03,497.55
16.5048,522.82,495.44
16.5294,521.06,493.95
16.5499,519.05,493.16
16.5704,517.24,494.93
16.5909,516.79,499.14
16.6115,514.63,505.52
16.636,513.91,516.41
16.6565,507.72,530.33
16.6769,490.18,533.46
16.6975,467.94,524.77
16.7179,441.75,512.02
16.7383,415.4,502.41
16.763,397.12,493.73
16.7834,388.5,483.58
16.804,386.4,474.87
16.8244,391.52,469.09
16.8449,398.22,465.48
16.8693,407.17,463.38
16.8898,418.74,462.1
16.9104,429.19,464.08
16.9308,436.95,468.07
16.9513,444.36,473.45
16.9718,451.49,478.36
16.9964,458.59,483.29
17.0168,464.27,488.83
17.0373,466.22,493.07
17.0579,468.17,496.85
17.0784,469.14,499.08
17.1028,471.91,498.47
17.1233,474.53,496.57
17.1438,478.62,494.46
17.1643,481.1,491.97
17.1848,481.88,488.77
17.2054,485.7,485.62
17.23,489.36,484.09
17.2503,491.29,484.08
17.2708,493.63,485.46
17.2912,496.91,489.37
17.3119,498.92,493.69
17.3324,501.14,498.56
17.3567,499.31,503.44
17.3774,497.65,506.96
17.3978,497.92,510.76
17.4183,496.74,514.61
17.4387,495.39,515.29
17.4634,494.31,514.43
17.4837,492.85,511.15
17.5042,493.28,507.92
17.5248,492.62,503.53
17.5453,496.5,498.23
17.5658,495.2,493.18
17.5903,493.56,491.34
17.6108,494.05,490.68
17.6313,495.04,491.14
17.6518,496.03,493.31
17.6723,499.42,497.05
17.6966,497.34,501.64
17.7172,497.47,506.11
17.7377,497.78,511.09
17.7583,495.22,514.27
17.7786,491.78,516.82
17.7993,490.22,517.05
17.8236,488.18,515.44
17.8442,488.94,513.35
17.8647,488.15,511.48
17.8853,486.12,508.39
17.9057,490.5,505.51
17.9301,492,501.61
17.9506,494.2,498.09
17.9712,495.76,495.87
17.9917,497.01,495.9
18.0122,499.81,497.52
18.0327,500.84,500.61
18.0572,499.08,504.89
18.0777,498.06,508.71
18.0981,497.25,511.57
18.1188,497,514.06
18.1391,494.2,517.04
18.1596,494.56,516.84
18.1841,494.65,515.87
18.2047,493.52,513.29
18.2252,492.81,509.44
18.2457,492.25,506.15
18.2662,492.8,500.12
18.2906,494.64,495.5
18.3112,497.11,491.6
18.3316,498.09,489.88
18.3523,498.87,489.9
18.3726,501.7,491.72
18.393,501.96,494.78
18.4176,503.17,500.02
18.4382,500.33,506.22
18.4587,499.47,511.37
18.4792,496.57,516.1
18.4997,496.26,518.88
18.524,496.61,519.1
18.5446,494.09,517.48
18.5652,491.87,515.19
18.5857,492.09,512.35
18.6061,492.68,509.48
18.6265,495.54,506.98
18.651,495.63,503.59
18.6715,496.91,501.67
18.6922,498.52,501.74
18.7125,499.62,501.59
18.733,502.1,504.47
18.7574,504.08,509.18
18.7781,503.06,520.74
18.7985,504.05,536.19
18.819,511.84,548.95
18.8396,530.07,556.36
18.8599,551.06,558.29
18.8845,571.65,562.03
18.9051,587.92,563.23
18.9256,602.93,561.38
18.9461,610.55,552.7
18.9664,615.64,539.56
18.991,618.71,526.05
19.0115,613.77,514.64
19.0321,606.21,505.31
19.0525,598.37,497.85
19.0731,590.3,495.48
19.0934,581.04,493.58
19.1181,570.03,493.67
19.1386,562.42,495.13
19.1591,555.34,495.91
19.1796,550.47,500.13
19.1999,540.38,504.5
19.2204,530.9,507.6
19.2451,521.32,510.68
19.2655,519.66,511.34
19.2859,518.13,509.28
19.3066,515.3,507.22
19.327,512.44,504.58
19.3516,513.15,501.66
19.3719,512.12,496.33
19.3926,511.3,493.66
19.413,508.24,491.73
19.4334,508.19,490.38
19.4539,508.95,485.11
19.4784,507.56,476.49
19.4991,495.25,468.19
19.5195,470.4,463.95
19.5399,441.32,464.36
19.5603,418.26,467.29
19.585,403.8,470.43
19.6056,396.24,473.14
19.626,393.99,476.12
19.6465,397.8,478.49
19.6668,402.64,480.59
19.6874,411.11,478.48
19.712,419.29,477.58
19.7325,426.03,477.06
19.7528,434.42,475.25
19.7733,443.14,475.6
19.7938,452.71,476.68
19.8183,460.97,480.74
19.8389,463.78,484.6
19.8594,469.42,489.88
19.8798,473.54,495.7
19.9003,478.63,500.96
19.9209,482.7,505.57
19.9453,482.16,508.66
19.9659,483.33,510.92
19.9863,483.66,512.14
20.0068,482.93,511.31
20.0273,485.15,509.65
20.052,487.12,507.12
20.0723,488.29,503.1
20.0929,491.63,498.48
20.1134,495.11,495.38
20.1338,496.69,492.5
20.1543,499.55,492.2
20.1788,498.44,492.56
20.1993,499.35,495.45
20.2197,495.48,498.36
20.2402,489.98,503.49
20.2608,486.59,507.19
20.2813,483.47,510.75
20.3058,480.18,514.4
20.3264,477.74,515.52
20.3468,477.59,515.62
20.3673,477.87,513.49
20.3877,480.1,510.2
20.4124,480.68,506.76
20.4329,483.94,503.4
20.4533,486.95,499.12
20.4738,488.16,494.7
20.4942,490.73,493.76
20.5147,492.58,492.61
20.5392,496.27,491.69
20.5597,498.61,493.55
20.5802,497.69,496.64
20.6007,496.55,500.91
20.6212,495.84,505.13
20.6457,493.47,508.3
20.6661,491.18,512.24
20.6867,489.74,514.59
20.7076,488.19,515.28
20.7277,488.96,514.02
20.7481,489.56,511.82
20.7728,488.05,508.05
20.7933,488.24,505.04
20.8138,487.39,501.63
20.8341,492.31,497.91
20.8546,497.25,494.33
20.8791,498.4,492.46
20.8997,498.32,493.77
20.9204,498.26,496.01
20.9408,499.21,498.61
20.9612,500.76,502.09
20.9816,500.01,505.87
21.0061,497.01,510.7
21.0267,495.61,513.36
21.0473,492.89,515.09
21.0679,495.31,515.67
21.0881,494.05,514.14
21.1086,493.64,513.31
21.1332,491.71,510.05
21.1537,490.17,506.84
21.1742,492.73,502.07
21.1946,494.19,497.26
21.2151,494.95,493.8
21.2396,496.36,492.04
21.2601,496.89,491.44
21.2807,501.11,493.75
21.3011,501.49,497.4
21.3216,500.79,502.32
21.3422,499.83,507.85
21.3666,499.67,513.08
21.3873,497.53,516.07
21.4076,497.03,517.45
21.428,496.62,517.56
21.4485,494.5,517.25
21.4731,493,515.6
21.4937,493.4,512.68
21.5141,493.72,508.34
21.5346,494.57,504.28
21.5551,495.26,503.82
21.5756,500.21,506.66
21.6002,513.17,509.33
21.6207,532.73,511.86
21.6412,553.39,513.29
21.6616,569.11,512.43
21.682,574.29,516.34
21.7065,581.03,520.48
21.7271,591.02,524.38
21.7476,598.62,526.3
21.7681,604.1,527.24
21.7885,604.88,526.59
21.809,604.7,524.88
21.8335,597.76,520.9
21.854,589.01,516.12
21.8745,580.21,510.5
21.8949,575.57,504.8
21.9155,566.65,499.64
21.94,560.32,496.31
21.9605,554.46,494.85
21.981,549.17,494.08
22.0015,546.93,493.46
22.0221,540.15,495.57
22.0426,534.52,499.86
22.067,529.61,504.69
22.0875,523.89,508.75
22.1082,522.51,512.2
22.1284,518.61,514.96
22.1489,515.29,515.77
22.1694,512.43,514.61
22.1939,507.94,513.29
22.2146,506.76,509.03
22.2351,508.2,504.63
22.2555,507.56,500.5
22.2759,507.25,497.4
22.3005,507.2,495.92
22.321,508.76,497.74
22.3414,509.21,502.59
22.3619,511.17,509.27
22.3824,504.73,512.02
22.4029,488.19,511.81
22.4274,461.95,508.05
22.4481,434.36,506.24
22.4684,413.49,506.19
22.489,399.79,504.55
22.5094,395.03,503.04
22.5339,393.83,501.63
22.5544,396.06,498.71
22.575,401.05,494.57
22.5955,407.44,491.45
22.6158,416.55,487.96
22.6363,424.24,483.77
22.661,434.59,479.42
22.6814,444.07,476.33
22.702,453.46,474.27
22.7224,461.17,475.41
22.7429,465.93,479.33
22.7675,472.15,483.86
22.7881,477.52,490.09
22.8083,480.61,496.67
22.8288,482.09,501.94
22.8493,484.67,505.55
22.8697,485.74,507.64
22.8943,487.39,509.11
22.9149,486.71,507.89
22.9355,485.57,505.91
22.9559,486.06,501.93
22.9763,487.04,497.74
23.0008,488.64,494.2
23.0213,489.71,490.96
23.0419,491.37,488.56
23.0624,494.29,487.65
23.0829,495.43,488.72
23.1032,497.35,491.18
23.1277,498.48,495.54
23.1482,498.98,499.83
23.1688,497.99,503.67
23.1892,494.79,508.53
23.2098,493.43,511.83
23.2302,493.34,513.46
23.2547,490.68,513.97
23.2753,490.34,513.18
23.2957,492.27,509.34
23.3163,492.42,505.47
23.3367,493.93,500.98
23.3612,495.15,497.38
23.3818,495.92,494.71
23.4022,497.53,490.96
23.4227,498.03,489.57
23.4433,499.02,490.46
23.4637,500.62,493.17
23.4882,501.69,496.13
23.5087,502.36,500.91
23.5292,500.68,505.72
23.5497,498.55,510.58
23.5703,496.64,514.06
23.5946,493.51,516.45
23.6153,493.81,516.56
23.6357,493.25,514.25
23.6563,491.6,510.6
23.6767,492.48,506.88
23.6971,492.18,502.9
23.7217,492.55,498.32
23.7421,494.44,494.26
23.7628,494.15,491.01
23.7833,495.92,490.41
23.8038,496.74,489.32
23.8281,496.99,490.86
23.8486,497.39,494.69
23.8692,498.31,498.75
23.8899,498.85,503
23.9103,499.08,506.6
23.9307,498.66,509.88
23.9552,497.13,511.7
23.9757,495.71,512.76
23.9963,495.16,511.81
24.0167,494.33,509.65
24.0372,493.67,507.12
24.0615,494.93,502.3
24.0821,494.95,496.44
24.1028,496.76,491.75
24.1232,499.61,488.6
24.1436,501.08,486.68
24.164,501.87,486.34
24.1885,501.89,487.67
24.2091,502.12,490.94
24.2298,501.89,495.75
24.2501,500.91,500.8
24.2705,498.13,506.44
24.291,496.7,509.55
24.3156,495.96,511.84
24.3361,492.77,513.67
24.3566,490.22,513.74
24.3772,490.17,511.79
24.3976,496.34,509.23
24.422,500.47,505.79
24.4427,503.98,500.43
24.4631,505.18,494.94
24.4836,505.35,493.55
24.504,507.68,493.84
24.5245,512.14,499.68
24.5491,523.51,507.54
24.5696,540.21,514.43
24.5902,559.37,521.55
24.6105,575.69,528.24
24.6312,589.16,532.59
24.6556,595.92,535.27
24.6761,600.74,537.82
24.6966,598.79,537.45
24.7171,594.23,534.56
24.7374,586.59,531.25
24.7581,581.27,525
24.7824,575.82,517.8
24.803,569.05,511.84
24.8236,563.44,507.87
24.8441,556.95,503.1
24.8645,548.56,499.28
24.8889,544.85,497.22
24.9096,540.48,498.38
24.9301,535.58,500.7
24.9505,530.87,504.56
24.971,525.49,509.65
24.9914,522.4,513.32
25.016,516.72,516.66
25.0365,509.97,518.72
25.0571,505.18,518.78
25.0774,503.74,516.62
25.0981,502.79,514.3
25.1225,501.84,511.64
25.1429,501.47,508.31
25.1635,500.77,504.05
25.184,500.02,499.84
25.2045,500.02,497.27
25.2249,503.01,499.42
25.2494,505.21,506.13
25.2699,501.97,512.91
25.2904,486.37,512.53
25.3109,464.7,508.22
25.3314,441.56,501.38
25.3518,419.45,497.1
25.3764,404.36,494.08
25.397,396.29,492.06
25.4174,394.63,491.05
25.4378,398.1,489.44
25.4583,402.08,486.95
25.4829,407.67,482.36
25.5034,415.93,480.29
25.5239,422.15,476.23
25.5444,431.92,474.39
25.5648,439.93,472.71
25.5855,447.15,471.57
25.61,455.72,471.45
25.6304,465.57,473.36
25.6509,473.06,477.69
25.6714,478.05,484.15
25.6918,481.04,489.92
25.7163,482.23,495.34
25.7368,484.38,500.07
25.7574,484.51,503.66
25.7781,485.41,506.32
25.7983,485.92,507.06
25.8189,486.54,507.25
25.8433,487.23,504.4
25.8638,486.39,502.32
25.8844,487.31,497.65
25.9049,492.25,492.92
25.9253,488.4,488.34
25.9498,478.32,486.07
25.9703,473.05,486.86
25.9908,471.04,487.29
26.0115,471.63,489.43
26.0317,472.71,492.94
26.0522,475.17,496.95
26.0768,474.13,502.36
26.0973,474.91,506.89
26.1178,474.53,511.51
26.1382,476.82,513.81
26.1588,478.26,514.25
26.1832,480,512.4
26.2037,481,511.12
26.2243,482.4,509.9
26.2448,483.12,508.52
26.2653,494.3,504.81
26.2857,507.04,501.45
26.3102,514.63,498.76
26.3308,518.7,497.21
26.3512,521.16,496.97
26.3717,522.73,498.77
26.3922,523.18,501.42
26.4128,519.95,504.73
26.4372,517.16,508.59
26.4577,513.93,513.47
26.4782,512.34,516.78
26.4987,510.27,517.22
26.5192,505.42,516.18
26.5437,503.33,515.94
26.5643,502.07,512.75
26.5847,502.45,509.2
26.6052,503.16,504.16
26.6257,503.13,498.93
26.6461,504.3,493.54
26.6707,507.04,490.64
26.6912,507.03,489.71
26.7117,507.23,491.77
26.7321,506.58,494.21
26.7527,507.87,497.37
26.7771,506.29,500.5
26.7977,504.63,505
26.8181,503.91,509.8
26.8387,502.73,512.84
26.8591,502.78,516.47
26.8797,501.62,516.78
26.9041,500.7,516.22
26.9247,500.36,513.38
26.9452,498.29,511.1
26.9656,499.43,505.88
26.9861,498.74,500.11
27.0105,497.2,496.28
27.0311,498.76,493.63
27.0517,500.61,491.5
27.0722,501.48,492.6
27.0926,502.79,495.28
27.1131,504.03,498.42
27.1375,501.22,502.34
27.158,501.38,506.47
27.1786,500.1,511.38
27.1991,498.08,514.7
27.2195,501.27,516.56
27.24,502.41,517.65
27.2646,503.53,517.92
27.2853,502.62,515.14
27.3056,500.1,511.11
27.3261,500.88,506.69
27.3465,502.1,502.35
27.3711,504.08,497.08
27.3918,505.47,493.26
27.4121,505.97,491.41
27.4327,506.58,490.93
27.453,506.66,495.14
27.4735,508.33,503.71
27.4982,513.06,514.17
27.5186,524.85,523.54
27.5391,539.88,530.83
27.5596,560.1,533.06
27.58,574.88,535.45
27.6046,585.51,535.56
27.625,592.61,534.05
27.6457,596.88,529.44
27.6661,597.91,524.35
27.6867,597.13,519.88
27.7069,592.7,513.9
27.7315,586.76,508.12
27.7522,583.81,502.9
27.7726,576.65,499.52
27.7931,569.32,497.82
27.8135,561.65,498.65
27.8382,553.92,502.32
27.8584,549.54,506.66
27.879,546.03,509.33
27.8994,541.82,514.66
27.9199,533.46,517.13
27.9405,527.97,518.9
27.9649,520.57,519.32
27.9855,516.06,518.46
28.006,514.85,515.97
28.0266,511.28,512.17
28.0472,510.02,506.14
28.0715,508.02,500.91
28.0919,505.81,495.73
28.1125,505.05,491.38
28.1329,505.84,489.71
28.1534,503.47,489.17
28.174,503.98,490.93
28.1986,506.18,493.55
28.2189,507.15,496.44
28.2394,505.92,501.55
28.26,504.53,506.44
28.2804,502.03,509.95
28.301,500.82,509.96
28.3254,501.06,504.37
28.3459,490.85,493.5
28.3665,471.08,482.8
28.3871,446.06,475.44
28.4073,420.25,470.35
28.4318,406,467.48
28.4524,399,465.78
28.4729,396,465.63
28.4934,401.2,465.7
28.5139,408.76,468.36
28.5344,416.81,472.49
28.5588,424.45,477.59
28.5793,432.56,482.67
28.5999,437.65,489.34
28.6205,441.92,495.47
28.6409,444.93,500.98
28.6654,448.35,505.78
28.6859,452.88,508.83
28.7064,456.9,510.06
28.7269,461.32,509.45
28.7474,464.86,507.16
28.7678,468.29,502.13
28.7924,472.63,497.3
28.8128,473.5,492.44
28.8333,476.2,487.55
28.8539,478.56,485.24
28.8742,481.45,484.99
28.8988,484.16,485.6
28.9193,486.13,488.68
28.9398,488.3,492.74
28.9603,489.04,497.79
28.9808,487.03,503.43
29.0014,487.63,508.75
29.0258,486.3,511.6
29.0463,486.44,513.88
29.0668,486.35,514.9
29.0872,485.08,514.32
29.1079,486.47,511.86
29.1284,486.77,508.69
29.1528,488.22,505.55
29.1733,488.57,500.24
29.1938,490.66,495.79
29.2144,493.93,493.43
29.2348,495.74,492.75
29.2593,497.59,493.4
29.2797,498.88,495.72
29.3002,500.9,499.37
29.3207,498.72,504.5
29.3412,498.18,509.8
29.3619,497.34,514.04
29.3862,495.67,514.83
29.4068,496.34,516.27
29.4274,494.67,517.41
29.4478,494.54,516.13
29.4683,493.83,514.1
29.4927,493.86,510.88
29.5132,495.29,505.31
29.5338,496.23,500.45
29.5543,498.19,496.76
29.5748,498.75,493.8
29.5951,499,493.44
29.6196,499.8,493.76
29.6402,500.84,495.2
29.6607,501.67,498.36
29.6812,502.54,502.69
29.7018,502.83,507.75
29.7262,498.86,512.6
29.7466,495.69,515.08
29.7672,493.95,516.27
29.7877,491.36,516.41
29.8082,490.49,515.13
29.8286,489.99,512.5
29.8531,489.79,510
29.8737,490.63,507.2
29.8941,494.51,503.76
29.9147,498.21,500.61
29.9351,501.57,496.49
29.9595,505.05,494.59
29.9801,508.04,493.87
30.0007,510.83,495.3
30.0211,510.47,498.04
30.0415,509.17,502.23
30.0621,507.54,506.58
30.0865,505.03,510.87
30.1071,503.62,514.29
30.1276,500.7,515.44
30.1482,498.36,516.75
30.1686,496.49,515.8
30.189,493.59,512.84
30.2135,494.87,509.47
30.2341,497.5,504.98
30.2545,498.8,500.98
30.275,499.64,496.19
30.2956,502.31,492.15
30.32,502.65,489.92
30.3406,501.92,491.93
30.3611,502.94,502.35
30.3815,508.55,516.68
30.402,518.24,532.94
30.4225,534.79,545.55
30.447,552.83,551.84
30.4675,569.87,553.47
30.4881,582.09,551.58
30.5085,591.47,547.26
30.5291,594.18,540.61
30.5536,595.54,534.29
30.5739,596.03,526.83
30.5946,593.03,518.66
30.615,586.22,510.93
30.6355,578.78,504.15
30.6559,571.02,499.52
30.6804,564.42,495.41
30.701,558.93,493.73
30.7216,553.15,494.98
30.7421,548.12,498.19
30.7625,544.89,501.55
30.7869,542.32,505.04
30.8074,538.65,510.83
30.828,533.32,514.07
30.8485,525.86,516.25
30.8689,520.69,517.4
30.8894,517.55,516.92
30.9139,514.24,514.14
30.9345,513.19,511.11
30.955,510.95,507.49
30.9754,510.76,502.59
30.996,509.61,497.27
31.0204,509.49,493.42
31.041,510.39,491.33
31.0615,510.31,491.27
31.082,509.05,493.21
31.1025,509.64,500.97
31.123,506.51,513.58
31.1475,497.01,522.46
31.1681,479.61,524.77
31.1884,458.69,522.42
31.209,435.15,515.73
31.2294,413.92,507.99
31.2498,397.14,502.19
31.2744,385.91,496.55
31.2949,384.73,489.64
31.3156,386.98,482.91
31.3359,393.79,478.53
31.3565,399.43,473.42
31.3809,409.74,470.54
31.4015,419.59,467.63
31.4219,429.88,466.91
31.4427,438.5,467.12
31.4628,445.6,470.7
31.4833,453.08,475.56
31.5078,460.66,481.25
31.5283,464.53,488
31.5489,467.63,494
31.5693,470.1,498.2
31.5899,471.88,500.96
31.6143,474.5,502.17
31.6348,474.6,501.33
31.6554,477.68,499.87
31.6759,479.75,496.89
31.6965,483,493.51
31.717,486.8,491.01
31.7413,486.84,487.41
31.7619,492.67,485.33
31.7823,494.74,484.46
31.8029,496.19,484.97
31.8232,496.75,488.38
31.8478,496.8,491.5
31.8682,496.64,495.2
31.8888,500.31,499.76
31.9093,504.25,503.81
31.9298,505.8,508.05
31.9504,505.24,511.04
31.9749,506.39,512.03
31.9953,507.31,512.22
32.0158,505.85,507.98
32.0363,503.28,503.18
32.0568,501.62,497.35
32.0774,501.7,492.08
32.1019,502.16,487.66
32.1224,500.73,484.93
32.1428,501.78,485.14
32.1634,502.03,485.91
32.1838,501.22,489.53
32.2083,501.78,492.83
32.2287,501.22,496.46
32.2492,500.98,501.57
32.2697,497.78,506.25
32.2902,497.83,511.4
32.3107,496.26,514.92
32.3352,494.21,515.34
32.3559,492.77,515.07
32.3762,491.81,513.06
32.3967,493.45,511.25
32.4173,494.16,510.4
32.4417,494.13,509.72
32.4623,496.3,508.17
32.4826,498.24,505.54
32.5033,499.79,504.43
32.5238,499.24,503.74
32.5443,499.39,504.4
32.5688,500.71,505.72
32.5892,504.77,508.77
32.6097,504.41,512.22
32.6302,501.73,516.58
32.6506,497.99,519.86
32.6751,497.59,521.29
32.6957,497.07,521.83
32.7162,497.66,520.06
32.7368,495.53,517.45
32.7572,494.22,514.16
32.7777,493.78,509.53
32.8021,493.02,503.82
32.8227,493.22,498.46
32.8432,492.97,494.77
32.8637,494.78,493.21
32.8841,497.62,492.37
32.9046,498.7,493.9
32.9292,500.16,497.12
32.9496,501.13,500.49
32.9702,500.5,504.8
32.9906,498.2,509.44
33.0111,497.36,513.55
33.0356,496.69,515.64
33.0561,499.15,515.51
33.0766,497.72,514.21
33.0971,496.78,512.97
33.1175,496.42,508.77
33.1381,496.34,505.02
33.1626,495.87,503.62
33.1832,496.9,507.49
33.2035,504.32,514.59
33.2241,515.25,523.68
33.2445,532.2,531.34
33.2691,551.56,535.27
33.2897,567.05,538.82
33.3102,580.64,541.05
33.3305,590.71,541.64
33.351,594.77,540.51
33.3715,597.42,539.21
33.3962,596.13,536.37
33.4165,592.31,534.3
33.4371,587.64,531.04
33.4577,583.32,525.43
33.4782,575.85,518.14
33.5026,570.08,511.91
33.5231,563.27,505.93
33.5436,556.01,499.95
33.564,551.61,496.56
33.5846,548.09,494.05
33.6051,545.67,492.04
33.6294,540.74,492.43
33.6502,535.59,494.54
33.6706,530.67,498.23
33.6912,525.74,502.39
33.7114,520.59,506.71
33.736,514.67,510.97
33.7565,509.74,513.37
33.7771,508.19,514.3
33.7976,506.75,514.64
33.8181,505.2,512.31
33.8384,503.16,508.85
33.8629,501.53,505.48
33.8835,501.02,501.78
33.9039,502.02,499.03
33.9245,502.81,497.42
33.9449,503.45,500.74
33.9694,501.96,508.59
33.9899,497.37,515.07
34.0105,488.7,517.46
34.0311,472.96,513.57
34.0515,451.77,506.65
34.0719,431.01,499.32
34.0963,410.61,493.26
34.117,400.29,488.81
34.1374,392.43,484.25
34.158,389.94,479.8
34.1784,393.36,475.84
34.199,397.88,471.67
34.2234,405.51,469.34
34.244,413.81,467.87
34.2644,422.24,466.89
34.285,431,464.72
34.3053,439.2,464.97
34.3298,450.76,465.18
34.3504,460.61,468.14
34.3709,467.88,472.71
34.3913,473.51,478.97
34.4119,478.61,485.58
34.4323,482.09,491.86
34.4568,483.27,498.49
34.4773,483.21,502.19
34.4978,482.97,505.55
34.5183,483.18,507.24
34.5388,483.54,506.39
34.5633,486.23,504.12
34.5839,486.99,501.49
34.6045,487.99,499.19
34.6249,490.59,495.76
34.6453,493.67,490.8
34.6659,495.74,488.84
34.6902,498.19,487.87
34.7108,498.15,488.1
34.7314,498.92,491.08
34.7518,499.34,496.66
34.7723,498.07,501.73
34.7967,495.26,505.78
34.8173,493,508.63
34.8379,493.4,511.1
34.8582,492.52,512.28
34.8788,492.22,511.83
34.8992,491.97,511.86
34.9237,491.78,510.09
34.9442,491.62,506.67
34.9649,491.3,502.14
34.9853,493.84,497.11
35.0058,496.87,493.29
35.0302,497.7,490.83
35.0507,499.36,487.86
35.0712,498.89,488.89
35.0917,500.91,490.51
35.1122,502.93,493.81
35.1328,502.34,499.45
35.1572,500.67,512.36
35.1777,502.14,530.29
35.1982,509.51,547.23
35.2187,525.41,555.58
35.2393,541.33,557.47
35.2597,558.26,555.57
35.2842,572.61,550.26
35.3047,584.89,543.01
35.3252,592.51,534.21
35.3457,596.81,524.76
35.3661,599.25,516.41
35.3906,597.8,509.93
35.4112,594.64,505.34
35.4317,588.31,502.87
35.4524,581.85,502.9
35.4727,574.68,504.52
35.4931,565.94,507.22
35.5177,557.35,509.37
35.5382,548.28,513.1
35.5586,541.23,515.68
35.5792,534.98,517.14
35.5996,528.99,516.91
35.6241,522.39,515.33
35.6446,517.31,513.87
35.6651,513.45,509.29
35.6858,510.96,505.23
35.7061,504.77,500.59
35.7267,495.81,492.87
35.7512,482.65,482.3
35.7717,467.12,471.84
35.7921,446.7,463.67
35.8126,426.96,459.94
35.8331,413.57,460.55
35.8575,407.25,465.44
35.8781,406,470.95
35.8987,408.8,477.56
35.9192,412.24,483.45
35.9396,418.39,488.16
35.9601,422.31,491.33
35.9845,426.85,493.26
36.0051,432.88,492.41
36.0256,438.11,489.73
36.046,445.88,487.98
36.0667,451.51,485.79
36.091,459.81,482.63
36.1116,465.84,481.1
36.1321,471.08,479.88
36.1525,477.46,480.51
36.173,480.37,483.2
36.1935,484.29,487.36
36.218,487.04,491.89
36.2386,488.83,497.31
36.2591,489.26,502.85
36.2795,489.41,507.28
36.3,488.93,510.82
36.3246,488.74,512.46
36.3451,488.59,512.57
36.3655,486.28,510.25
36.386,487.62,508
36.4065,488.3,504.4
36.4271,489.64,499.72
36.4516,492.91,495.18
36.4721,494.53,491.34
36.4925,494.42,489.27
36.513,497.74,488.62
36.5335,498.19,490.5
36.5539,499.75,493.4
36.5784,500.4,496.92
36.599,499.72,501.73
36.6196,499.18,505.79
36.6401,498.14,508.43
36.6604,498.11,511.94
36.6851,496.49,513.95
36.7056,495.19,514.16
36.7261,493.15,512.33
36.7466,491.32,508.66
36.767,491.66,505.13
36.7875,493.13,500.91
36.812,495.1,496.12
36.8326,495.68,493.1
36.853,497.55,491.08
36.8735,499.04,489.86
36.8939,501.63,490.49
36.9183,500.7,493.39
36.939,501.76,497.71
36.9595,501.61,500.97
36.98,498.49,505.58
37.0005,496.19,509.86
37.0209,494.95,512.69
37.0454,492.16,514.75
37.0661,491.53,515
37.0866,491.02,513.8
37.1071,488.02,512.04
37.1276,489.42,508.03
37.1518,490.53,503.43
37.1725,491.43,497.94
37.193,493.74,493.55
37.2134,495.79,491.04
37.234,497.63,489.03
37.2543,500.31,490.43
37.2788,501.45,492.74
37.2995,501.76,495.79
37.32,502.21,499.63
37.3405,501.96,504.71
37.3608,501.77,508.57
37.3814,500.42,513.05
37.406,498.33,517.24
37.4265,497.47,522.39
37.447,495.37,529.32
37.4674,497.1,537.45
37.4878,506.48,545.16
37.5123,522.18,549.73
37.5329,538.15,547.78
37.5535,554.92,543.63
37.5739,566.53,537.9
37.5944,577.63,531.72
37.6148,584.9,525.78
37.6393,587.52,523.02
37.6599,590.22,521.22
37.6803,589.37,522.17
37.701,586.1,522.34
37.7214,583.48,524.27
37.7457,576.38,526.22
37.7663,570.11,525.37
37.7869,567.29,523.3
37.8073,561.63,520.44
37.8278,553.9,515.95
37.8483,547.72,512.16
37.8727,541.98,508.33
37.8933,538.38,502.26
37.9138,531.71,498.41
37.9343,528.56,495.13
37.9548,525.05,493.3
37.9793,523.64,492.44
37.9998,521.51,493.95
38.0203,519.81,498.56
38.0408,517.05,503.25
38.0613,512.64,507.8
38.0818,507.51,511.04
38.1063,505.41,514.83
38.1267,502.33,515.47
38.1472,496.26,516.77
38.1677,495.01,516.02
38.1883,493.61,516.01
38.2128,490.69,512.61
38.2333,482.35,506.69
38.2538,466.88,498.55
38.2742,448.7,488.24
38.2948,428.76,477.59
38.3152,411.81,469.87
38.3399,397.05,467.5
38.3603,388.04,468
38.3807,385.03,468.2
38.4013,385.42,473.16
38.4217,391.14,480.13
38.4422,395.91,486.1
38.4667,404.33,491.68
38.4871,411.46,495.55
38.5077,418.77,497.04
38.5281,426.22,498.63
38.5486,434.57,493.1
38.5731,439.06,484.48
38.5939,449.85,477.19
38.6141,460.48,471.95
38.6347,468.78,468.96
38.6552,477.43,467.97
38.6756,483.94,467.57
38.7002,489.15,469.66
38.7207,492.12,473.33
38.7413,496.1,477.86
38.7617,496.08,483.49
38.7821,496.66,489.19
38.8067,496.93,494.75
38.8272,496.34,500.4
38.8477,495.28,503.52
38.8681,495.02,506.22
38.8886,494.42,508.77
38.9091,500.33,508.82
38.9337,506.47,507.26
38.9543,511.97,503.8
38.9746,514.98,499.04
38.9951,516.18,493.43
39.0156,518.75,490.75
39.04,518,488.2
39.0606,517.2,487.76
39.081,517.76,492.01
39.1015,516.21,499.01
39.1221,513.77,505
39.1426,512.01,510.2
39.1671,507.61,515.36
39.1875,505.69,519.09
39.2081,502.35,521.27
39.2286,499.08,522.02
39.2491,497.26,521.81
39.2694,495.21,520.25
39.2941,493.17,516.4
39.3145,492.54,512.12
39.335,494.03,507.3
39.3555,496.62,505.04
39.3761,492.9,503.63
39.4006,481.72,501.7
39.421,469.97,500.36
39.4416,463.38,501.29
39.4621,459.9,503.23
39.4826,457.72,505.99
39.5031,456.58,509.59
39.5275,457.86,513.67
39.548,459.29,517.54
39.5685,459.43,519.63
39.5889,461.55,520.5
39.6094,462.84,519.8
39.6339,464.67,517.24
39.6544,467.74,514.19
39.6749,471.19,509.16
39.6954,474.35,504.32
39.7158,479.68,500.66
39.7364,483.14,500.73
39.7609,485.52,508.78
39.7814,487.61,528.03
39.802,498.69,553.42
39.8226,518.55,578.74
39.8431,542.04,598.59
39.8676,567.83,608.67
39.8881,591.87,610.94
39.9085,612.29,608.75
39.9289,624.23,601
39.9495,629.79,588.6
39.9698,633.63,575.48
39.9943,630.3,561.38
40.015,626.04,546.71
40.0354,621.03,533.57
40.0559,614.03,519.65
40.0764,605.62,508.12
40.1008,596.9,496.9
40.1214,587.92,491.12
40.142,581.73,486.69
40.1625,573.99,484.36
40.183,566.79,483.88
40.2034,559.43,488.31
40.2278,554.95,493.05
40.2484,549.56,496.24
40.2688,541.45,495.39
40.2894,534.16,490.71
40.3099,523.92,480.77
40.3303,510.14,463.42
40.3549,489.51,445.73
40.3753,464.21,431.59
40.3959,438.77,423.87
40.4163,418.81,419.7
40.4367,409.85,418.36
40.4613,406.28,419.28
40.4819,407.82,424.03
40.5023,409.46,433.22
40.5228,417.57,443.98
40.5433,424.45,453.38
40.5637,430.76,464.11
40.5883,437.21,474.28
40.6088,441.37,483.83
40.6293,443.89,491.86
40.6497,449.12,497.69
40.6702,452.89,502.35
40.6947,458.11,504.08
40.7153,460.49,504.67
40.7358,460.99,503.73
40.7562,465.59,501.59
40.7768,469.68,498.47
40.7972,473.94,494.97
40.8218,476.95,492.58
40.8423,479.36,491.86
40.8628,483.49,491.09
40.8833,488.79,491.27
40.9037,491.03,494.22
40.9282,493.23,497.97
40.949,494.98,502.98
40.9692,493.59,507.78
40.9897,493.07,511.83
41.0102,492.45,515.06
41.0307,487.56,517.05
41.0554,484.45,516.64
41.076,480.56,516.11
41.0963,479.25,513.09
41.1167,478,509.67
41.1372,478.8,505.74
41.1618,480.44,500.39
41.1823,482.55,496.71
41.2027,485.24,493.57
41.2234,487.59,491.86
41.2438,490.27,493.48
41.2641,492.22,494.99
41.2887,494.38,497.59
41.3091,495.5,502.27
41.3298,495.4,506.82
41.3503,494.12,511.25
41.3708,494.1,515
41.3911,495.08,517.6
41.4158,494.26,519.48
41.4362,495.01,518.39
41.4567,497.61,516.11
41.4772,499.29,511.69
41.4976,501.83,506.95
41.5221,503.86,501.76
41.5428,505.29,497.41
41.5633,506.83,494.33
41.5837,506.47,491.26
41.6042,506.97,490.01
41.6245,507.18,492.21
41.6492,505.54,497.57
41.6697,505.03,507.45
41.6902,505.83,522.16
41.7107,515.46,537.53
41.7312,533.97,546.62
41.7555,552.98,547.1
41.7761,573.18,547.48
41.7966,586.54,544.78
41.8171,593.44,539.23
41.8377,597.35,530.98
41.8581,596.88,523.79
41.8825,595.9,514.83
41.9033,593.92,505.86
41.9236,587.74,497.49
41.944,582.39,492.99
41.9647,577.71,490.79
41.9891,569.37,489.83
42.0095,562.7,490.07
42.0301,553.56,491.25
42.0506,545.45,493.4
42.071,539.36,496.72
42.0916,532.49,500.18
42.116,525.99,503.94
42.1366,521.59,506.35
42.157,514.27,507.48
42.1775,509.42,506.39
42.1982,508.53,504.31
42.2225,506.63,502.25
42.243,503.9,501
42.2636,504.52,500.4
42.284,503.82,498.32
42.3045,493.25,495.86
42.3249,473.2,490.68
42.3495,445.56,487.55
42.37,420.05,487.64
42.3905,406.64,490.31
42.411,401.51,493.45
42.4315,402.01,497.16
42.4519,403.41,501.53
42.4764,406.73,503.62
42.497,412.18,505.3
42.5174,418.74,505.24
42.5381,425.4,503.39
42.5584,430.92,500.31
42.5829,436.33,496.25
42.6035,445.27,492.4
42.6239,452.81,487.52
42.6444,458.65,484.62
42.6649,463.52,482.49
42.6854,466.82,482.59
42.7099,471.45,485.08
42.7304,474.76,489.26
42.7509,478.41,493.81
42.7714,480.13,498.25
42.7919,480.1,503.6
42.8163,480.08,508.08
42.8369,481.07,512.66
42.8574,482.05,514.93
42.878,482.64,515.34
42.8983,483.31,513.48
42.9189,484.25,510.58
42.9433,485.6,506.46
42.9639,488.08,501.97
42.9844,488.26,497.18
43.0049,489.01,493.74
43.0254,492.61,491.79
43.0499,495.09,490.23
43.0704,495.67,491.39
43.0908,498.94,493.71
43.1113,500.75,496.77
43.1318,499.4,500.61
43.1523,497.92,506.89
43.1769,498.74,511.31
43.1974,498.79,513.85
43.2179,498.63,515.88
43.2384,497.3,516.1
43.2588,494.64,515.08
43.2793,495.71,512.27
43.3038,495.57,509.21
43.3243,495.26,503.97
43.3448,495.81,497.98
43.3653,496.84,494.58
43.3858,497.88,491.67
43.4103,500.7,489.13
43.4308,502.56,488.51
43.4513,502.85,490.4
43.4718,502.88,493.52
43.4923,502.1,497.42
43.5128,502.68,502.34
43.5373,499.95,508.07
43.5578,498.56,516.85
43.5782,498.45,526.88
43.5988,510.16,533.91
43.6192,528.73,535.33
43.6437,547.78,532.66
43.6643,566.22,530.33
43.6848,579.58,525.06
43.7053,590.46,518.25
43.7257,599.97,512.2
43.7463,602.58,508.16
43.7707,601.66,505.93
43.7912,597.73,503.34
43.8118,592.38,503.67
43.8322,587.11,505.34
43.8528,581.49,507.87
43.8773,574.99,512.5
43.8977,563.19,515.4
43.9182,554.15,518.52
43.9387,546.32,520.61
43.9593,537.86,520.29
43.9797,531.09,519.23
44.0042,526.07,515.19
44.0247,522.26,508.55
44.0452,519.2,503.04
44.0658,518.36,496.43
44.0861,516.29,492.55
44.1107,515.43,489.44
44.1311,514.35,487.75
44.1517,512.88,488
44.1723,512.3,490.6
44.1927,510.44,495.48
44.2131,509.15,498.98
44.2378,510.12,502.79
44.2582,506.1,506.03
44.2787,503.08,506.22
44.2991,491.46,502.38
44.3197,467.57,497.3
44.3402,441.06,492.24
44.3648,416.04,488.99
44.3853,398.04,485
44.4058,388.23,482.2
44.4261,385.78,479.56
44.4466,386.83,477.05
44.4711,395.06,475.44
44.4917,404.85,475.15
44.5123,413.08,476.92
44.5326,422.66,479.94
44.5532,431.53,484.15
44.5735,439.62,490.52
44.598,448.3,496.22
44.6187,454.64,501.97
44.6391,457.31,506.58
44.6596,462.25,510.46
44.68,465,512.57
44.7046,469.8,516.46
44.7251,474.24,519.56
44.7456,468.99,517.85
44.766,456.39,515.08
44.7865,448.51,509.47
44.807,444.81,504.97
44.8315,444.85,500.98
44.852,448.88,498.18
44.8725,453.3,497.35
44.893,459.64,498.28
44.9135,462.51,501.22
44.938,465.61,504.18
44.9585,470.29,505.94
44.979,473.83,510.75
44.9995,477.27,514.4
45.02,478.81,517.32
45.0405,478.25,518.46
45.065,478.8,518.77
45.0855,477.84,516.21
45.106,478.67,512.97
45.1265,480.94,508.18
45.147,483.55,502.74
45.1675,485.64,498.59
45.1919,487.11,494.87
45.2125,490.69,492.5
45.233,492.35,493
45.2534,493.28,493.6
45.274,496.23,496.88
45.2984,494.78,501.5
45.319,491.82,505
45.3394,491.66,507.8
45.3599,491.13,511.44
45.3804,490.1,513.55
45.4009,489.88,515.24
45.4254,487.51,515.39
45.446,487.2,513.92
45.4664,486.16,510.93
45.4869,484.73,507.55
45.5074,485.78,503.24
45.5319,490.83,499.39
45.5524,495.46,495.91
45.5729,496.77,492.53
45.5934,496.02,491.82
45.6139,497.01,493.06
45.6344,499.81,494.45
45.6589,501.65,498.76
45.6795,501.32,503.21
45.7,503.65,507.76
45.7204,501.92,512.41
45.7409,501.54,514.53
45.7653,501.23,515.82
45.7859,498.19,515.26
45.8064,496.35,513.61
45.8268,497.08,509.89
45.8473,498.46,506.31
45.8678,499.57,503.45
45.8923,503.26,498.36
45.9129,504.4,495.09
45.9335,503.52,491.27
45.9539,504.62,488.62
45.9743,506.9,489.69
45.9988,508.72,491.75
46.0193,508.77,494.6
46.0399,509.02,498.28
46.0604,507.81,502.63
46.0809,509.05,504.9
46.1013,508.84,507.12
46.1258,507.47,6.474e-43
46.1465,504.18,5.06429e-39
