Program Time [s],data 0,data 1
3.98863,513.81,518.63
3.98865,515.25,519.91
3.98866,515.8,522.12
3.98867,516.24,523.5
3.98869,515.79,525.2
5.50628,514.2,515.4
5.52691,514.56,516.72
5.54726,513.85,517.58
5.56781,512.68,518.06
5.58827,512.74,517.45
5.61274,512.99,516.16
5.63332,513,515.33
5.65388,514.8,515.26
5.67425,516.44,516.61
5.69472,516.75,517.69
5.71924,517.6,517.95
5.73973,516.68,519.76
5.7603,517.34,521.61
5.7808,518.28,525.49
5.80122,518.62,527.19
5.82174,519.3,527.95
5.84629,520.04,528.16
5.8668,519.43,529.33
5.88725,518.54,529.86
5.90771,518.03,528.89
5.92819,516.23,527.31
5.95273,514.78,525.85
5.97319,514.63,523.68
5.9937,513.5,522.74
6.0142,513.6,521.6
6.03467,513.28,522.68
6.05515,515.82,522.14
6.07972,518.26,521.71
6.10021,518.61,521.97
6.12074,519.49,523.98
6.14115,518.79,525.78
6.1617,518.23,528.62
6.18212,523.18,529.7
6.20672,536.55,527.56
6.22716,548.44,526.25
6.24771,553.55,524
6.26813,553.64,523.6
6.28861,551.31,523.28
6.31315,547.65,520.82
6.33363,543.12,518.66
6.35412,539.5,517.93
6.3746,536.8,519.14
6.39517,534.84,519.11
6.41557,531.07,520.29
6.44017,528.46,521.03
6.4607,528.96,521.23
6.48118,528.97,522.78
6.50166,528.58,524.22
6.52215,527.46,525.58
6.54665,525.97,527.06
6.56714,525.38,527.85
6.58765,523.1,527.68
6.60812,522.28,527.54
6.62857,522.02,526.44
6.64915,520.42,523.75
6.67358,518.94,522.6
6.69411,518.75,520.68
6.71472,518.2,519.14
6.73513,517.96,518.11
6.75558,516.37,519.49
6.7801,512.29,522.59
6.80055,510.24,524.27
6.82117,510.79,527.22
6.84154,511.03,528.98
6.86202,511.62,530.98
6.88256,511.9,532.38
6.9071,513.12,532.71
6.92766,513.5,532.97
6.94804,514.4,532.57
6.96861,515.52,531.06
6.98907,515.01,529.85
7.01356,513.81,526.08
7.03401,513.45,524.26
7.05462,513.36,521.81
7.07513,513.49,520.45
7.09551,513.99,519.36
7.11601,513.99,518.29
7.14047,515.59,518.63
7.16108,516.87,519.1
7.18155,517.3,521.28
7.20204,517.44,522.83
7.22249,519.15,524.86
7.24698,519.32,527.69
7.26748,520.46,528.35
7.28807,519.77,528.48
7.30845,519.21,528.38
7.32896,517.77,527.91
7.34946,517.02,526.33
7.37391,517.01,524.46
7.39451,516.61,523.97
7.41494,517.69,521.98
7.43549,516.35,520.58
7.45597,516.48,517.86
7.48039,515.98,517.29
7.50091,516.99,517.63
7.52151,518.19,518.31
7.54193,519.95,519.45
7.56239,521.36,520.76
7.58286,523.29,523
7.60746,521.03,524.2
7.62793,520.63,525.96
7.6485,519.3,527.97
7.66903,518.24,527.98
7.68947,516.79,526.98
7.71395,515.23,524.58
7.73448,514.79,523.07
7.75491,513.83,521.25
7.77556,511.66,519
7.79602,511.13,517.2
7.81636,512.1,515.76
7.84095,512.88,515.21
7.86145,513.31,515.57
7.88189,514.45,517.65
7.90238,515.56,520.12
7.9229,516.25,522.7
7.9433,516.8,524.16
7.96791,517.04,526.13
7.98846,518.23,527.7
8.00902,518.38,529.76
8.02949,517.71,530.81
8.04983,517.37,530.85
8.07439,516.09,530.08
8.09489,515.67,528.26
8.11542,515.54,525.61
8.13585,516.23,523.89
8.15636,515.79,522.31
8.17706,515.83,520.65
8.20139,518.06,519.32
8.22195,517.25,519.65
8.24236,517.6,520.52
8.26287,518.28,522.82
8.28327,519.62,523.86
8.30792,521.3,525.08
8.3285,521.84,526.47
8.34897,522.07,528.77
8.36951,521.86,528.22
8.38993,520.89,527.98
8.41036,517.11,528.98
8.43491,523.49,529.38
8.45536,540.79,535.31
8.47583,562.83,543.65
8.49649,584.47,545.72
8.51689,602.37,543.57
8.54124,616.7,541.26
8.56195,622.56,539.41
8.5823,621.85,537.13
8.60277,617.48,535.3
8.62324,611.38,533.64
8.64371,604.51,532.31
8.66844,596.8,530.65
8.68887,589.04,530.12
8.70926,581.43,531.3
8.7299,574.15,531.24
8.7503,566.52,530.19
8.77473,560.41,528.95
8.79528,554.53,526.96
8.816,550.03,525.57
8.83637,542.82,523.66
8.85676,538.46,523.32
8.87723,533.36,522.66
8.90176,530.49,521.53
8.92236,529.19,520.42
8.9428,528.35,521.14
8.96325,528.48,522.91
8.98371,528.99,525.73
9.00821,518.79,530.38
9.02869,496.83,537.71
9.04925,472.47,545.56
9.06974,452.97,548.45
9.09032,440.38,546.56
9.11087,431.5,539.05
9.13528,427.4,530.24
9.15569,427.92,520.19
9.17633,430.74,512.35
9.19684,434.99,506.48
9.21728,440.79,500.79
9.24187,447.23,496.63
9.26232,453.79,493.9
9.28266,461.23,492.52
9.30328,468.78,491.62
9.32367,475.23,493.29
9.34415,482.18,494.64
9.36881,487.55,497.51
9.38911,490.84,501.41
9.4097,494.27,504.33
9.43025,497.62,507.26
9.45067,501.29,509.01
9.47121,503.23,510.21
9.4958,504.59,510.97
9.51612,504.87,511.57
9.53664,506.3,511.66
9.55707,506.04,511.93
9.5776,506.63,511.34
9.60203,505.5,510.67
9.62265,507,510.94
9.64316,508.2,511.95
9.66354,509.96,513.36
9.68406,510.77,517.09
9.70457,512.22,523.07
9.72905,515.17,532.06
9.74967,516.94,549.45
9.77004,520.15,588.36
9.79053,529.32,647.68
9.811,539.26,701.55
9.8356,554.21,738.24
9.85619,571.76,746.39
9.87663,589.21,731.11
9.89711,605.57,696.69
9.91756,618.26,653.35
9.93801,626,607.48
9.96248,626.8,564.79
9.98309,626.24,526.83
10.0036,622.19,496.06
10.024,614.16,473.85
10.0445,603.12,460.88
10.069,592.9,454.1
10.0896,585.12,453.88
10.11,576.7,455.71
10.1305,568.16,458.57
10.151,561.93,463.85
10.1715,550.94,466.28
10.196,524.35,459.83
10.2165,490.48,448.26
10.237,454.99,439.21
10.2576,435.59,434.77
10.278,423.47,432.81
10.3025,418.78,435.25
10.323,418.62,440
10.3435,422.7,446.2
10.364,427.36,453.16
10.3845,435.29,459.33
10.405,445.43,466.66
10.4294,453.14,474.93
10.45,463.31,482.14
10.4706,470.45,489.32
10.4912,476.56,495.65
10.5115,481.85,501.12
10.5319,485.88,505.1
10.5564,489.5,507.88
10.5769,493.4,509.9
10.5974,496.52,510.92
10.6179,497.82,511.74
10.6384,499.65,511.39
10.6629,499.32,510.31
10.6834,501.46,510.45
10.7039,503.77,510.36
10.7245,506.01,511.49
10.7449,508.41,513.39
10.7653,510.93,514.71
10.7899,511.34,517.17
10.8105,511.27,521.14
10.831,512.42,522.91
10.8514,511.94,525.13
10.8719,513.35,526.9
10.8965,514.48,528.12
10.9169,515.18,528.5
10.9375,515.55,528.4
10.9579,513.24,527.32
10.9785,511.19,525.65
10.999,510.95,523.72
11.0234,510.16,522.18
11.0439,510.93,519.74
11.0645,509.14,518.59
11.0848,509.11,517.28
11.1053,511.09,517.42
11.13,513.07,517.74
11.1505,514.06,518.39
11.1709,515.25,520.11
11.1913,515.6,521.49
11.212,517.48,522.79
11.2324,518.78,524.43
11.2571,518.63,526.75
11.2773,518.1,527
11.298,515.88,526.6
11.3184,513.9,526.28
11.3389,513.72,524.02
11.3633,513.18,521.82
11.384,512.14,520.25
11.4044,511.71,520
11.425,512.17,519.4
11.4454,513.34,518.92
11.4659,514.27,520.74
11.4903,513.62,521.79
11.511,514.89,523.03
11.5312,517.51,524.43
11.5518,519.81,526.14
11.5723,520.45,528.71
11.5967,520.36,529.77
11.6173,519.49,530.02
11.6378,518.59,529.81
11.6584,518.07,529.85
11.6789,516.46,528.48
11.6993,513.97,527.38
11.7237,512.57,525.91
11.7443,512.86,523.73
11.7649,513.09,523.38
11.7854,512.27,522.3
11.8057,512.02,521.64
11.8262,514.81,522.51
11.8507,518.25,523.81
11.8712,522.4,525.45
11.8918,523.72,527.16
11.9123,524.58,529.93
11.9327,525.06,530.14
11.9573,525.05,531.11
11.9778,524.24,532.49
11.9983,521.19,533.19
12.0188,519.75,532.55
12.0393,521,532.24
12.0597,518.8,533.59
12.0842,522.24,541.08
12.1049,538.39,557.46
12.1252,561.91,575.17
12.1456,586.53,593.73
12.1663,610.23,613.39
12.1907,626.58,629.51
12.2112,636.86,638.21
12.2319,644.09,634.57
12.2523,643.47,620.85
12.2728,635.98,604.08
12.2934,625.58,585.87
12.3178,613.87,568.49
12.3383,599.89,552.79
12.3587,586.31,540.64
12.3791,575.05,531.71
12.3996,563.84,524.17
12.4241,543.87,510.13
12.4446,516.3,490.11
12.4651,485.04,466.69
12.4857,452.43,446.15
12.5061,429.54,433.52
12.5267,420.24,428.81
12.551,417.99,430.65
12.5716,421.59,435.72
12.5922,426.87,443.58
12.6126,433.1,451.46
12.633,441.08,460.97
12.6576,450.06,468.98
12.6781,458.65,476.58
12.6986,465.92,483.86
12.719,470.94,489.29
12.7395,474.95,495.03
12.76,479.16,498.83
12.7846,485.13,501.46
12.8053,489.5,503.57
12.8256,491.6,504.26
12.8462,492.68,504.4
12.8666,493.54,505.52
12.887,495.64,506.82
12.9116,497.91,508.45
12.932,502.13,510.96
12.9525,503.9,513.77
12.9731,506.72,517.22
12.9935,509.38,520.57
13.018,508.5,523.86
13.0385,508.2,527.89
13.059,508.16,529.91
13.0798,509.13,530.53
13.1,507.9,531.42
13.1205,508.12,531.14
13.145,507.5,530.31
13.1656,506.8,528.45
13.186,506.04,526.96
13.2065,506.03,525.57
13.2271,506.82,524.45
13.2515,508.66,523.16
13.2721,509.53,522.73
13.2925,510.42,522.98
13.3129,510.74,523.19
13.3334,511.19,524.75
13.3539,511.95,526
13.3785,510.96,527.4
13.399,515.37,527.72
13.4195,519.5,527.98
13.4399,522.6,529.38
13.4605,523.68,529.3
13.4849,523.54,528.04
13.5055,523.43,527.23
13.5261,523.55,525.39
13.5466,523.24,522.91
13.5671,522.79,520.73
13.5874,521.63,519.78
13.6119,520.31,519.83
13.6326,519.24,519.86
13.6529,518.4,520.49
13.6734,518.32,522.19
13.6939,519.45,524.95
13.7184,520.56,527.36
13.739,519.05,529.89
13.7594,518.24,530.91
13.7801,517.99,530.93
13.8005,518.19,531.94
13.821,517.75,530.95
13.8454,517,529.76
13.8659,515,528.01
13.8864,513.8,527.01
13.9069,512.24,525.21
13.9273,511.79,522.37
13.948,509.63,520.29
13.9724,509.51,519.23
13.9929,508.01,519.19
14.0134,509.21,518.75
14.0339,510.16,519.8
14.0544,513.53,521.44
14.0788,512.43,523.95
14.0994,512.94,525.96
14.12,513.15,527.37
14.1404,514.72,527.3
14.161,514.58,528.04
14.1812,513.66,527.83
14.2059,511.53,527.06
14.2264,511.62,526.85
14.2469,511.7,526.68
14.2673,511.36,524.54
14.2879,510.09,522.44
14.3124,509.47,521.35
14.333,509.18,520.48
14.3535,510.34,521.18
14.3741,510.47,522.35
14.3944,511.98,523.28
14.4149,514.78,525.22
14.4394,516.23,526.38
14.4599,516.58,527.1
14.4804,517.06,528.68
14.5008,517.05,528.55
14.5213,516.44,528.64
14.5458,514.75,528.11
14.5663,511.6,527.29
14.5868,511.08,526.43
14.6073,510.47,524.94
14.6279,510.57,523.56
14.6484,506.86,521.24
14.6727,507.69,519.8
14.6933,507.15,519.04
14.7138,508.52,519.03
14.7344,509.82,519.42
14.7548,510.85,520.34
14.7794,512.08,523.07
14.7998,514.67,523.66
14.8203,516.33,525.93
14.8408,517.47,527.14
14.8612,517.37,528.71
14.8819,514.1,530.57
14.9063,521.68,531.66
14.9268,537.54,534.72
14.9473,556.63,539.78
14.9678,575.51,545.22
14.9883,594.01,552.78
15.0128,613.4,570.82
15.0334,631.72,599.86
15.0538,637.78,626.69
15.0744,640.22,641.55
15.0947,641.98,642.04
15.1152,635.38,629.23
15.1397,627.91,611.59
15.1603,619.73,590.87
15.1807,609.78,573.49
15.2013,596.22,559.4
15.2218,584.58,547.32
15.2461,573.66,536.85
15.2666,561.93,527.88
15.2872,552.34,519.71
15.3078,543.68,513.56
15.3283,537.74,509.45
15.3487,535.19,507.36
15.3732,522.55,498.89
15.3937,499.64,482.31
15.4141,471.11,461.85
15.4346,443.89,443.88
15.4552,430.51,435.1
15.4755,421.81,434.68
15.5001,420.65,439.55
15.5206,424.12,445.64
15.5412,430.9,452.91
15.5617,436.12,460.73
15.582,442.09,468.78
15.6066,448.87,475.43
15.6271,454.5,481.34
15.6476,460.4,486.47
15.6681,465.92,491.38
15.6885,470.54,494.7
15.7091,476.23,496.76
15.7336,480.38,498.41
15.7541,485.31,499.53
15.7746,489.45,501.82
15.7952,492.16,504.46
15.8157,495.92,507.17
15.84,500.14,512.13
15.8607,504.11,515.91
15.881,508.09,518.93
15.9016,510.07,521.94
15.9222,511.26,524.55
15.9427,513.01,527.24
15.9671,514,528.79
15.9877,512.8,528.83
16.0081,512.24,528.07
16.0285,510.19,527.25
16.0491,508.56,525.4
16.0734,506.44,525.12
16.0941,507.16,523.9
16.1147,506.32,522.72
16.1351,506.86,521.37
16.1556,507.49,522.1
16.1761,509.59,522.88
16.2006,511.67,523.5
16.2211,513.94,525
16.2417,515.55,526.4
16.262,515.44,528.92
16.2826,517.55,531.14
16.307,517.24,531.31
16.3277,515.59,531.25
16.3481,514.07,530
16.3685,514.66,528.2
16.389,514.13,525.76
16.4096,512.9,524.41
16.434,512.52,522.13
16.4546,511.22,519.5
16.4751,510.17,518.4
16.4955,509.74,518.32
16.516,511.59,518.46
16.5364,514.07,518.17
16.561,518.66,521.73
16.5816,535.33,535.19
16.602,559.86,552.15
16.6225,585.69,568.32
16.6429,606.15,579.86
16.6675,618.92,585.28
16.6879,624.94,589.83
16.7084,627.55,586.66
16.729,623.04,583.53
16.7495,616.43,579.02
16.77,608.55,573.02
16.7944,597.44,567.02
16.8149,589.75,563.01
16.8355,584.6,564.41
16.856,577.68,577.73
16.8765,573.34,600.58
16.9009,564.87,622.67
16.9214,551.3,636.73
16.9421,533.84,635.99
16.9624,511.47,617.59
16.9829,485.78,581.47
17.0035,464.02,536.38
17.0279,447.02,492.5
17.0485,435.21,461.2
17.0689,429.77,442.36
17.0894,427.22,431.49
17.11,430.37,425.99
17.1345,433.9,425.99
17.155,436.92,428.19
17.1755,442.14,432.56
17.196,448.31,438.84
17.2164,457.05,445.68
17.2368,464.64,453.34
17.2614,470.51,461.67
17.2819,475.41,469.74
17.3024,480.33,477.59
17.3229,488.26,485.07
17.3434,492.61,492.06
17.368,495.49,498.25
17.3884,497.79,503.4
17.409,501.23,506.92
17.4293,502.19,509.93
17.4498,503.15,511.75
17.4703,503.12,512.4
17.4948,504.29,512.92
17.5153,507.04,513.73
17.5358,508.43,513.79
17.5563,510.14,514.23
17.5767,510.51,515.78
17.5972,513.01,516.63
17.6217,515.01,518.5
17.6423,517.41,521
17.6628,519.73,522.6
17.6833,519.58,524.28
17.7037,518.86,526.22
17.7282,517.69,527.98
17.7487,517.15,529.18
17.7692,517.32,529.15
17.7897,518.26,528.52
17.8102,516.41,527.41
17.8306,514.53,526.33
17.8552,513.22,524.67
17.8757,512.98,522.93
17.8962,511.18,521.15
17.9167,511.94,520.92
17.9372,511.76,520.53
17.9617,513.4,519.83
17.9822,514.72,521.46
18.0028,516.98,521.97
18.0233,517.58,523.78
18.0436,517.07,525.22
18.0641,516.65,526.38
18.0887,518.12,528.7
18.1092,517.7,530.16
18.1297,515.96,530.33
18.1501,514.57,529.86
18.1706,514.05,528.09
18.1951,512.64,526.07
18.2157,511.11,525.06
18.2362,509.29,523.85
18.2566,509.03,522.48
18.2772,510.63,521.98
18.2976,511.5,521.19
18.3221,511,521.75
18.3427,511.2,523
18.3633,511.56,525.4
18.3836,512.05,529.72
18.4041,513.04,530.98
18.4285,513.63,531.58
18.4492,513.5,532.06
18.4696,513.4,532.25
18.4901,514.12,530.2
18.5106,511.3,529.96
18.531,507.84,527.37
18.5556,506.07,524.5
18.5761,504.06,522
18.5967,502.45,519.8
18.6171,502.16,516.04
18.6376,500.93,515.03
18.658,502.74,513.62
18.6826,503.79,512.5
18.7032,504.23,513.4
18.7235,505.99,515.32
18.744,508.39,517.46
18.7645,510.71,520.36
18.789,513.77,522.69
18.8095,514.82,524.55
18.83,515.65,526.84
18.8505,516.12,527.47
18.8711,514.9,527.98
18.8915,513.32,527.58
18.916,513.25,526.87
18.9366,514.4,526.49
18.9571,513.72,525.19
18.9775,513.78,523.56
18.998,515.02,523.04
19.0225,515.42,522.24
19.0431,517.73,523.19
19.0635,517.99,523.55
19.084,518.59,524.04
19.1045,519.07,525.23
19.125,519.86,526.59
19.1494,521.29,528.87
19.1701,519.83,528.7
19.1905,520.66,529.76
19.2109,519.13,529.8
19.2315,519.1,529.44
19.2559,518.08,528.36
19.2765,517.27,526.68
19.297,516.61,524.55
19.3175,514.49,522.84
19.3379,514.39,521.87
19.3584,517.11,520.9
19.383,516.69,520.52
19.4035,516.35,519.41
19.4239,514.68,519.93
19.4445,523.15,525.74
19.465,541.32,536.6
19.4894,563.25,546.88
19.51,586.2,553.9
19.5304,603.96,558.12
19.551,615.97,561.3
19.5715,622.98,562.44
19.5919,623.98,563.95
19.6164,622.78,569.36
19.637,619.43,577.89
19.6574,617.54,598.91
19.6779,616.23,620.33
19.6984,608.19,632.06
19.7229,602.75,632.25
19.7434,595.2,619.8
19.7639,587.76,599.04
19.7845,579.61,576.63
19.8048,568.29,557.51
19.8253,553.63,540.2
19.8499,528.9,521.16
19.8704,501.32,497.13
19.8909,470.66,472.1
19.9114,442.33,451.48
19.9318,426.86,440.79
19.9523,418.29,437.23
19.9769,417.83,438.58
19.9974,420.06,440.87
20.0179,424.45,443.89
20.0384,428.56,448.11
20.0589,435.45,452.89
20.0833,444.16,458.31
20.1039,452.13,464.45
20.1243,459.3,470.76
20.1449,466.84,477.21
20.1653,472.87,482.77
20.1859,480.9,489.61
20.2104,485.72,495.89
20.2308,488.38,501.71
20.2513,495.7,504.97
20.2718,500.96,507.38
20.2923,503.97,509.9
20.3167,506.37,512.52
20.3374,508.9,513.62
20.358,508.12,514.09
20.3785,509.3,516.07
20.3989,510.44,516.86
20.4194,510.95,516.49
20.4438,510.56,516.39
20.4643,511.25,515.91
20.4849,512.2,517.33
20.5053,512.96,519.06
20.5258,514.97,521.05
20.5502,516.17,522.84
20.5709,517.54,525.67
20.5912,518.63,527.54
20.6117,519.1,529.03
20.6322,518.08,529.02
20.6527,517.07,527.82
20.6773,517.65,527.86
20.6979,516.92,527.28
20.7184,516.94,526.23
20.7387,514.15,524.38
20.7591,512.52,523.31
20.7837,511.22,521.84
20.8043,511.57,522.08
20.8248,513.86,521.46
20.8453,514.09,521.17
20.8658,514.07,521.73
20.8863,515.26,522.99
20.9107,516,523.79
20.9312,518,525.43
20.9518,520.4,526.95
20.9722,520.32,527.56
20.9927,519.46,527.25
21.0132,519.77,526.6
21.0378,519.61,524.88
21.0584,518.49,523.7
21.0787,516.79,522.96
21.0992,515.43,522.37
21.1197,514.95,521.5
21.1441,514.36,520.6
21.1646,513.09,518.88
21.1852,513.27,518.1
21.2057,512.42,518.68
21.2261,514.33,520.15
21.2467,515.27,521.72
21.2711,515.61,523.37
21.2917,515.89,524.7
21.3121,516.91,526.56
21.3327,517.33,528.45
21.3531,517.26,528.96
21.3776,516.81,529.77
21.3981,516.65,529.81
21.4186,515.12,529.25
21.4391,514.1,528
21.4597,514.08,524.8
21.4801,512.46,522.84
21.5046,511.77,521.67
21.5251,511.62,520.54
21.5456,511.49,520.43
21.5661,512.19,520.14
21.5867,513.15,520.52
21.6111,513.72,521.81
21.6316,514.38,523.85
21.6522,515.1,526.08
21.6727,516.28,528.06
21.6931,515.63,528.05
21.7135,515.1,528.04
21.7381,514.28,527.03
21.7587,513.22,525.83
21.7792,513.78,524.06
21.7996,513.02,521.65
21.8201,512.02,519.12
21.8445,510.42,517.9
21.865,510.33,516.52
21.8856,510.47,515.81
21.9062,510.57,515.65
21.9266,511.06,516.12
21.9472,512.05,516.9
21.9715,513.04,518.32
21.9921,515.23,520.05
22.0126,514.98,521.24
22.0331,516.79,521.99
22.0535,518.83,523
22.078,518.06,523.6
22.0985,517.45,523.68
22.119,516.16,522.74
22.1395,515.33,521.79
22.16,512.06,520.83
22.1805,510.05,519.87
22.2051,508.64,519.69
22.2257,508.51,518.96
22.2462,509.81,520.16
22.2667,511.25,519.53
22.287,511.8,519.63
22.3075,512.84,520.1
22.3321,513.47,522.68
22.3525,515.58,523.94
22.3731,516.26,526.76
22.3935,516.41,528
22.414,517.73,528.4
22.4384,517.18,529.52
22.459,517.55,530.22
22.4797,524.84,533.97
22.5,542.27,540.38
22.5205,563.82,548.5
22.5409,586.25,554.8
22.5655,603.6,559.44
22.586,615.08,563.55
22.6065,623.67,564.84
22.6269,626.73,565.07
22.6473,624.99,562.86
22.6719,619.59,562.09
22.6925,616.67,565.27
22.713,609.54,575.62
22.7334,607.83,602.49
22.7539,604.46,635.39
22.7744,597.37,663.52
22.7988,587.5,676.41
22.8194,576.8,674.53
22.8399,564.24,663.02
22.8603,548.59,640.22
22.8809,528.87,608.18
22.9055,504.1,566.14
22.926,476.68,516.71
22.9464,451.74,467.77
22.967,432.19,431.62
22.9873,421.56,412.09
23.0078,417.84,403.67
23.0324,417.88,402.54
23.0528,423.7,407.03
23.0734,430.16,414.43
23.0939,436.73,424.74
23.1144,443.18,434.99
23.1388,450.35,445.19
23.1594,458.28,453.76
23.18,464.42,462
23.2003,470.94,469
23.2209,476.35,474.6
23.2413,481.68,479.28
23.2659,487.14,484.03
23.2863,492.32,488.22
23.3069,495.85,491.38
23.3274,498.48,494.3
23.3477,499.79,497.64
23.3682,502.63,501.31
23.3927,505.7,506.45
23.4134,508.36,510.76
23.4337,510.49,514.81
23.4542,513.59,517.85
23.4747,515.27,522.48
23.4992,515.82,524.38
23.5198,515.46,525.51
23.5404,514.76,526.6
23.5608,514.01,526.68
23.5813,513.21,525.55
23.6018,511.97,523.44
23.6263,510.17,521.55
23.6467,509.94,520.44
23.6674,510.15,519.55
23.6877,509.92,518.24
23.7083,508.54,518.79
23.7328,509.43,519.43
23.7532,512.34,519.35
23.7737,515.67,520.28
23.7942,516.94,521.62
23.8147,518.35,523.9
23.8351,517.48,525.72
23.8597,518.59,526.57
23.8803,519.07,527.46
23.9007,518.05,526.77
23.9212,516.64,526.81
23.9417,514.91,525.45
23.9661,514.33,524.36
23.9867,513.47,523.89
24.0072,513.37,521.91
24.0278,511.3,519.93
24.0481,508.24,520.54
24.0686,508.19,521.63
24.0932,509.75,523.51
24.1138,511.2,524.21
24.1343,512.96,526.16
24.1547,514.77,527.93
24.1751,515.02,529.95
24.1996,516.81,530.36
24.2202,517.25,531.69
24.2407,516.8,531.55
24.2611,515.24,530.24
24.2816,514.19,528.79
24.3021,514.15,525.43
24.3265,514.52,523.15
24.3471,514.02,521.12
24.3676,512.81,518.89
24.3882,512.25,516.51
24.4087,512.6,515.61
24.4331,513.68,515.09
24.4536,513.54,515.27
24.4743,514.24,516.42
24.4947,514.99,517.93
24.5151,516.19,520.15
24.5356,517.95,522.12
24.56,518.16,523.29
24.5805,517.33,524.64
24.601,517.06,525.11
24.6217,516.05,525.29
24.6422,514.04,524.83
24.6625,512.83,524.46
24.6871,512.87,522.17
24.7076,514.09,520.14
24.7282,513.07,517.71
24.7486,513.46,517.17
24.7691,512.97,516.73
24.7936,513.37,517.19
24.8141,514.3,517.95
24.8346,515.04,520.16
24.855,515.43,521.93
24.8755,514.95,523.94
24.896,516.56,525.95
24.9205,516.84,528.16
24.9411,516.08,528.53
24.9616,515.66,528.62
24.9821,514.33,529.1
25.0025,512.66,528.08
25.027,511.73,526.06
25.0476,510.18,524.45
25.0682,508.75,521.76
25.0886,508.6,518.81
25.1091,507.88,517.65
25.1296,509.3,515.92
25.1539,510.04,515.93
25.1745,509.43,516.35
25.195,509.95,517.88
25.2156,510.56,519.5
25.236,511.85,522
25.2605,513.08,524.2
25.281,514.46,525.56
25.3015,514.77,526.25
25.322,516.02,526.8
25.3425,516.41,526.84
25.3629,515.33,528.07
25.3875,514.26,527.26
25.4081,513.61,524.61
25.4286,512.69,522.28
25.449,511.95,520.63
25.4694,511.56,519.7
25.4939,511.45,518.36
25.5144,512.36,518.09
25.5349,516.49,519.47
25.5555,530.59,528.78
25.5759,552.47,540.22
25.5963,576.98,550.38
25.621,601.58,559.3
25.6416,619.67,564.64
25.662,627.93,568.11
25.6825,631.95,568.29
25.7029,631.56,567.63
25.7273,628.65,565.51
25.7479,621.52,563.6
25.7684,616.81,570.08
25.7889,609.25,590.47
25.8095,602,619.77
25.83,594.4,647.22
25.8543,584.92,663.38
25.8749,575.14,669.1
25.8954,565.11,663.68
25.9159,554.09,646.54
25.9363,538.87,621.24
25.9569,521.9,587.19
25.9814,499.52,544.15
26.002,475.61,497.52
26.0224,451.29,453.62
26.0429,436.43,424.49
26.0634,428.35,408.99
26.0877,425.28,402.2
26.1083,425.62,401.76
26.1288,427.7,403.61
26.1493,432.36,407.88
26.1699,438.69,415.71
26.1903,445.95,424.17
26.2148,454.36,433.13
26.2353,461.49,443.91
26.2559,467.19,453.92
26.2764,474.15,463.34
26.2969,480.32,472.07
26.3213,485.86,480.86
26.3419,490.49,488.69
26.3623,494.19,495.55
26.3827,498.55,501.64
26.4034,501.64,505.51
26.4238,502.71,509.01
26.4483,502.97,510.41
26.4689,504.18,511.13
26.4894,504.94,511.1
26.5099,505.35,512.28
26.5305,505.68,513.62
26.5547,505.95,514.7
26.5753,506.96,515.36
26.5958,507.97,516.49
26.6162,510.17,518.99
26.6368,511.74,521.79
26.6573,514.19,525.43
26.6817,516.15,527.35
26.7022,515.92,528.48
26.7228,516.54,529.98
26.7433,516.23,531.19
26.7636,517.58,531.15
26.7882,517.87,530.92
26.8087,516.49,529.74
26.8293,515.2,527.39
26.8497,514.36,525.51
26.8703,512.68,523.61
26.8908,510.95,521.89
26.9152,510.76,520.71
26.9357,511.81,519.37
26.9562,513.25,520.09
26.9767,514.4,520.48
26.9972,515.72,522.18
27.0217,517.37,524.14
27.0422,516.9,525.72
27.0627,518.32,526.77
27.0833,519.86,529.02
27.1038,517.08,530.01
27.1241,516.27,529.81
27.1486,515.81,529.25
27.1692,515.25,527.8
27.1897,514.8,525.84
27.2101,513.24,523.87
27.2306,511.19,521.9
27.2511,510.35,519.92
27.2756,509.28,518.33
27.2962,511.03,519.07
27.3166,512.02,518.85
27.3372,511.42,520.68
27.3577,512.53,521.75
27.382,514.23,523
27.4028,516.58,526.2
27.4232,517.07,528.36
27.4436,515.85,529.69
27.4642,515.08,529.75
27.4846,516.27,529.2
27.5092,516.01,529.56
27.5297,514.21,528.65
27.5502,511.77,527.72
27.5707,513.61,525.37
27.5912,512.89,523.1
27.6155,512.11,520.28
27.6361,510.49,518.62
27.6566,512.19,518.3
27.6771,514.55,517.04
27.6975,516.04,517.43
27.718,517.83,518.75
27.7426,517.47,520.6
27.7631,519.57,523.68
27.7835,520.06,524.54
27.804,519.65,525.43
27.8245,519.72,526.75
27.849,516.97,527.6
27.8696,515.78,527.88
27.89,515.42,527.1
27.9105,514.14,524.48
27.931,514.51,522.19
27.9514,512.61,520.35
27.976,512.29,519.48
27.9968,511.63,518.98
28.017,512.3,519.19
28.0375,513.84,519.15
28.0581,515.27,520.32
28.0825,515.62,520.86
28.1032,517.5,522.68
28.1235,518.8,523.75
28.1442,518.64,524.8
28.1647,519.11,525.84
28.185,519.49,525.87
28.2094,518.19,526.5
28.23,518.35,526.4
28.2505,517.68,525.72
28.271,517.95,524.17
28.2915,516.56,523.74
28.3161,514.65,522.19
28.3364,513.32,521.15
28.3571,512.05,520.12
28.3776,511.04,520.3
28.3981,511.83,520.84
28.4185,514.27,521.27
28.4429,516.21,522.42
28.4634,516.57,524.33
28.484,516.66,527.47
28.5044,517.13,528.77
28.5249,518.1,529.02
28.5494,519.08,529.81
28.5699,517.46,530.25
28.5905,516.37,530
28.611,515.7,529
28.6315,514.16,527.2
28.6519,513.93,525.96
28.6764,514.34,523.77
28.697,513.27,523.01
28.7175,513.62,522.41
28.7379,513.09,524.73
28.7583,520.08,532.78
28.7789,540.26,551.63
28.8033,565.61,570.7
28.824,591.89,586.96
28.8444,612.91,596.77
28.8649,628.13,604.22
28.8854,635.3,604.97
28.9098,638.24,600.98
28.9304,634.79,594.98
28.9511,630.63,586.99
28.9713,624.71,580.19
28.992,618.97,573.55
29.0124,611.77,570.84
29.037,603.62,581.87
29.0573,591.69,604.7
29.0781,582.76,633.96
29.0983,572.2,661.97
29.1188,558.56,688.57
29.1432,545.05,705.46
29.164,531.44,707.77
29.1844,522.15,698.61
29.2048,514.32,677.49
29.2253,505.66,642.59
29.2459,496.93,596.07
29.2703,484.54,539.06
29.2909,469.23,480.45
29.3114,452.99,426.56
29.3318,442.79,391.45
29.3524,436.03,372.76
29.3768,434.42,365.81
29.3972,436.94,366.84
29.4178,441.75,371.68
29.4382,447.6,378.94
29.4588,452.48,389.15
29.4793,458.99,401.32
29.5037,466.19,413.86
29.5245,474.75,427.09
29.5449,478.2,433.87
29.5653,482.16,441.9
29.5857,485.73,450.32
29.6103,488.98,457.85
29.6308,492.19,465.48
29.6514,493.35,472.39
29.6719,495.88,478.71
29.6922,496.7,485.17
29.7129,498.16,489.13
29.7371,498.93,492.91
29.7578,499.14,495.13
29.7783,501.52,496.9
29.7988,502.21,499.92
29.8192,505.57,502.94
29.8397,509.46,506.55
29.8643,511.56,510.64
29.8849,512.85,515.11
29.9052,513.28,519.29
29.9257,513.83,523.63
29.9462,514.06,526.71
29.9707,513.65,529.76
29.9912,512.12,533.21
30.0118,512.09,534.37
30.0322,513.88,533.5
30.0527,514.5,531.4
30.0733,513.6,528.92
30.0977,512.28,527.33
30.1182,512.62,524.67
30.1387,514.7,522.33
30.1591,514.36,521.27
30.1797,513.09,520.41
30.2042,511.87,520.33
30.2246,512.9,522.26
30.2453,514.92,524.61
30.2656,517.33,527.09
30.2861,518.47,528.67
30.3066,519.77,529.34
30.3311,519.02,530.47
30.3516,517.82,531.38
30.3721,516.65,531.1
30.3926,514.72,530.08
30.4132,512.18,528.86
30.4375,511.34,526.09
30.4581,509.27,524.47
30.4786,509.62,521.78
30.4993,509.5,519.62
30.5197,509.6,518.5
30.5401,511.28,518.8
30.5646,511.42,519.24
30.5852,513.34,519.39
30.6055,515.27,521.11
30.626,517.82,522.09
30.6466,519.65,523.87
30.671,521.12,525.5
30.6915,520.9,527.2
30.7121,520.32,527.56
30.7327,520.25,527.45
30.7531,517.4,527.36
30.7735,515.72,525.29
30.798,513.58,523.03
30.8187,513.66,522.62
30.8392,513.13,521.9
30.8595,512.9,520.92
30.8801,512.72,520.34
30.9005,514.38,521.47
30.9251,526.9,528.57
30.9456,549.92,541.26
30.966,576.14,555.21
30.9865,598.71,566.17
31.0069,615.57,574.13
31.0314,627.25,579.11
31.052,634.2,581.89
31.0726,634.96,581.51
31.093,629.97,578.21
31.1135,622.98,573.57
31.134,611.78,567.85
31.1585,601.82,561.88
31.1791,592.46,555.71
31.1996,584.37,552.16
31.2201,574.69,546.53
31.2404,568.76,542.63
31.265,564,540.5
31.2857,561.2,539.2
31.306,557.96,551.76
31.3265,555.17,577.41
31.3469,555.54,613.13
31.3675,552.63,650.3
31.392,543.7,682.44
31.4126,531.96,701.55
31.4329,519.97,705.64
31.4536,505.38,696.51
31.4739,493.1,673.01
31.4984,479.08,632.21
31.519,463.46,574.77
31.5396,446.37,509.21
31.56,432.5,449.57
31.5804,425.6,409.26
31.601,423.28,386.81
31.6254,424.42,378.64
31.646,430.94,377.92
31.6666,437.35,383.13
31.6868,445.68,391.71
31.7074,453.14,402.36
31.7319,459.32,414.29
31.7524,463.85,427.83
31.7729,468.88,436.47
31.7934,473.71,444.17
31.8139,476.56,452.14
31.8344,479.45,459.31
31.8588,483.76,465.25
31.8793,485.81,470
31.8999,488.45,475.2
31.9205,489.36,479.96
31.9409,491.49,484.77
31.9653,493.19,489.41
31.9858,495.35,493.93
32.0064,499.08,497.14
32.0269,502.66,501.92
32.0475,504.13,507.53
32.0678,506.31,511.03
32.0924,508.64,515.02
32.1129,510.72,518.42
32.1333,511.77,521.93
32.154,512.82,523.15
32.1744,513.45,524.12
32.1948,513.56,525.49
32.2193,513.65,524.6
32.2398,513.52,524.68
32.2604,511.22,523.34
32.2809,509.57,523.47
32.3014,508.86,522.78
32.3259,510.89,522.02
32.3463,512.11,522.62
32.3668,511.89,522.49
32.3874,513.91,523.6
32.4077,515.53,525.28
32.4282,517.42,527.62
32.4528,518.74,529.5
32.4733,518.59,530.2
32.4938,517.47,530.96
32.5143,517.98,531.17
32.5347,516.98,531.13
32.5593,516.39,530.91
32.5799,514.91,529.13
32.6003,512.93,527.7
32.6207,512.14,525.16
32.6412,511.91,523.53
32.6617,511.73,521.82
32.6863,511.98,521.26
32.7068,511.79,520.41
32.7273,512.63,519.93
32.7478,515.1,521.54
32.7684,516.68,522.83
32.7928,517.55,524.67
32.8134,518.24,526.73
32.8337,518.19,527.39
32.8542,518.35,528.31
32.8747,518.88,528.25
32.8952,518.51,527.8
32.9197,517,528.24
32.9402,515.4,525.99
32.9607,513.92,525.39
32.9812,512.94,523.31
33.0017,512.55,521.65
33.0261,509.84,519.72
33.0466,509.07,518.18
33.0672,510.06,517.34
33.0877,513.65,516.87
33.1081,515.92,518.3
33.1286,516.73,519.84
33.1533,514.79,521.27
33.1736,516.03,523.02
33.1942,516.82,524.81
33.2147,516.26,528.25
33.2351,520.81,533.6
33.2597,535.65,546.08
33.2802,558.52,558.66
33.3007,582.81,569.13
33.3212,603.45,577.71
33.3416,617.36,582.36
33.3622,624.49,583.89
33.3866,627.99,581.71
33.4071,628.79,577.57
33.4276,628.03,574.06
33.4481,622.23,569.65
33.4686,616.18,566.72
33.489,608.15,563.37
33.5135,599.12,558.7
33.5341,593.29,554.56
33.5546,585.63,551.45
33.5751,575.91,548.36
33.5956,566.33,544.09
33.6201,558.86,538.07
33.6407,552.89,533.46
33.6611,544.71,528.56
33.6816,539.97,524.45
33.702,535.18,520.96
33.7225,534.54,517.77
33.747,535.03,514.82
33.7676,536.03,527.05
33.7881,535.22,551.04
33.8085,528.18,569.63
33.8292,516.74,577.91
33.8535,497.59,574.13
33.8741,472.87,557.5
33.8945,448.1,532.8
33.9152,424.88,505.44
33.9355,412.5,483.35
33.9561,408.4,469.28
33.9806,408.52,461.43
34.001,411.42,457.74
34.0215,416.13,455.19
34.042,424.11,454.95
34.0625,432.49,456.76
34.0869,440.19,459.41
34.1076,446.15,461.93
34.1281,457.32,465.54
34.1486,465.26,469.83
34.169,471.21,475.47
34.1895,475.56,481.57
34.2139,482.25,487.46
34.2345,487.8,493.17
34.255,493.24,498.93
34.2755,496.59,503.55
34.296,500.47,508.44
34.3207,503.58,510.15
34.3409,504.66,512.52
34.3614,506.73,513.02
34.3819,508.38,513.61
34.4026,506.91,513.09
34.4229,505.93,513.47
34.4474,504.54,513.58
34.468,505.43,514.06
34.4884,508.55,514.65
34.5089,509.24,515.52
34.5294,510.59,516.82
34.5539,511.27,519.45
34.5744,514.02,521.36
34.595,514.61,523.29
34.6154,515.49,526.43
34.6358,516.39,527.35
34.6565,517.51,528.28
34.6808,518.01,527.82
34.7014,517.01,526.66
34.722,516.81,526.53
34.7424,515.45,527.22
34.7629,516.96,528.58
34.7873,530.97,534.26
34.8079,552.97,540.01
34.8284,576.38,545.21
34.8489,596.5,548.77
34.8694,608.6,550.21
34.8899,615.28,554.37
34.9143,619.43,561.1
34.9348,622.14,572.48
34.9553,617.71,588.38
34.9759,613.17,596.11
34.9964,606.34,594.48
35.0167,592.07,585.79
35.0414,578.65,574.23
35.0619,567.52,562.38
35.0823,556.62,550.91
35.1028,548.3,540.73
35.1232,540.44,532.58
35.1478,532.95,525.66
35.1683,529.76,521.93
35.1889,514.21,511.35
35.2093,488.97,494.48
35.2297,465.97,477.58
35.2502,450.78,468.66
35.2747,441.82,466.73
35.2953,439.86,468.39
35.3158,442.89,471.11
35.3364,446.51,476.29
35.3569,452.61,482.03
35.3812,457.69,487.82
35.4018,462.95,492.06
35.4222,467.36,496.45
35.4429,469.89,498.56
35.4633,471.31,499.65
35.4837,474.45,501.72
35.5082,477.56,502.97
35.5287,481.05,504.98
35.5492,482.64,505.78
35.5697,485.31,507.43
35.5904,490.05,509.14
35.6148,494.04,511.51
35.6354,496.83,514.61
35.6558,499.26,518.69
35.6762,503.01,521.95
35.6967,505.01,524.56
35.7172,507.61,525.85
35.7418,509.29,528.88
35.7622,509.23,529.3
35.7828,509.38,528.64
35.8033,510.91,528.71
35.8237,509.13,527.37
35.8481,509.1,525.9
35.8687,508.48,524.52
35.8892,509.18,522.81
35.9097,510.15,521.85
35.9302,508.92,521.08
35.9506,509.93,520.66
35.9752,511.95,521.13
35.9957,513.96,523.11
36.0162,516.97,524.28
36.0367,515.77,525.83
36.0571,515.42,527.26
36.0816,515.53,529.01
36.1022,516.03,529.41
36.1226,517.42,529.13
36.1432,515.94,529.1
36.1637,513.35,528.48
36.1842,510.08,527.58
36.2086,508.86,526.67
36.2291,509.29,523.73
36.2496,509.63,520.99
36.2703,509.91,520.39
36.2906,511.13,519.71
36.3111,512.1,519.17
36.3356,514.08,519.54
36.3562,515.86,520.03
36.3766,516.89,521.42
36.397,517.31,522.74
36.4175,518.45,524.19
36.4421,519.96,526.55
36.4626,520.17,528.44
36.4831,519.33,529.35
36.5036,517.87,530.08
36.5241,517.89,529.47
36.5445,518.12,528.57
36.569,516.49,527.06
36.5896,515.19,524.85
36.6101,514.96,522.68
36.6305,514.96,520.74
36.6512,515.17,519.79
36.6757,515.14,519.63
36.696,514.31,520.11
36.7166,515.45,520.89
36.7371,514.76,522.71
36.7575,519.21,526.97
36.778,532.97,536.37
36.8026,554.17,547.1
36.8232,577.94,555.08
36.8435,598.75,561.66
36.864,614.6,566.33
36.8845,624.68,567.06
36.909,626.74,568.25
36.9296,626.2,566.8
36.9502,619.56,566.04
36.9705,614.25,566.63
36.991,611.4,579.11
37.0114,608.12,598.49
37.036,603.29,622.59
37.0565,595.63,645.07
37.077,591.11,654.86
37.0975,585.29,653.69
37.118,575.63,644.75
37.1426,564.3,629
37.1631,547.84,605.6
37.1835,525.67,573.88
37.2041,499.14,534.5
37.2246,468.31,491.4
37.2449,442.85,452.72
37.2695,429.08,429.98
37.2899,421.46,417.98
37.3104,420.97,412.59
37.331,422.98,411.87
37.3514,426.78,415.09
37.3759,433.63,422.28
37.3964,441.9,430.62
37.417,449.92,439.7
37.4375,457.94,449.16
37.4579,465.35,458.33
37.4784,472.48,466.86
37.503,476.18,476.69
37.5236,481.55,484.35
37.5441,485.04,490.68
37.5646,489.83,497.34
37.5849,493.66,500.08
37.6053,496.93,503.06
37.6299,497.34,505.25
37.6504,498.48,506.4
37.6709,498.78,507.52
37.6914,502.02,508.82
37.7119,502.82,510.45
37.7364,505.06,511.16
37.7568,507.24,513.13
37.7775,509,515.3
37.798,511.6,519.24
37.8185,512.88,522.19
37.839,512.7,524.76
37.8634,513.96,525
37.884,513.57,527
37.9044,514.06,528.8
37.925,514.84,527.84
37.9453,515.08,527.87
37.9698,513.06,526.7
37.9904,511.25,525.16
38.0108,510.6,523.13
38.0313,510.08,521.3
38.0518,509.66,520.24
38.0723,508.93,519.19
38.0967,509.94,518.15
38.1174,510.56,519.12
38.1379,511.04,520.3
38.1583,510.44,521.64
38.1788,511.35,524.11
38.2034,512.88,525.69
38.2237,512.5,527.55
38.2443,513.4,528.44
38.2648,512.32,529.35
38.2852,512.46,528.88
38.3059,512.77,527.91
38.3302,513.61,526.52
38.3508,513.89,525.02
38.3715,512.31,523.22
38.3919,511.05,521.97
38.4122,510.44,519.78
38.4327,514.55,521.62
38.4573,526.64,533.7
38.4777,551.11,549.96
38.4985,577.09,562.57
38.5187,599.27,572.05
38.5392,617.62,578.04
38.5637,627.09,582.03
38.5842,631.68,585.43
38.6047,632.34,583.94
38.6253,628.07,580.15
38.6457,623.46,574.72
38.6661,609.17,572.18
38.6909,601.53,566.34
38.7114,593.83,559.47
38.7319,582.26,552.98
38.7523,575.61,547.78
38.7728,573.69,543.03
38.7973,568.95,540.22
38.8179,562.96,538.18
38.8383,555.17,536.14
38.8587,551.33,534.71
38.8792,549.27,537.17
38.8997,550.41,551.54
38.9242,550.93,580.83
38.9446,546.34,611.86
38.9652,539.88,640.49
38.9856,532.3,656.59
39.0061,519.44,659.67
39.0306,503.15,646.14
39.0511,483.32,616.51
39.0717,462.26,570.41
39.0921,437.21,514.53
39.1126,419.56,467.22
39.133,409.25,433.58
39.1576,411.4,414.86
39.1782,413.32,406.09
39.1986,421.26,406.07
39.2191,427.21,410.06
39.2396,435.36,416.65
39.2641,442.69,425.92
39.2848,449.55,435.33
39.3052,458.04,445.27
39.3256,466.03,455.41
39.3462,471.23,464.13
39.3666,476.18,471.9
39.3912,481.55,478.12
39.4116,486.44,485.1
39.4322,490.55,489.08
39.4525,493.04,492.66
39.4731,495.03,496.13
39.4975,496.83,498.5
39.518,497.46,500.4
39.5385,498.77,501.72
39.5591,502.21,503.38
39.5796,504.57,505.9
39.6,508.86,508.72
39.6246,512.49,511.98
39.645,515.19,515.98
39.6656,515.55,518.59
39.6862,515.84,521.07
39.7065,513.07,523.05
39.7269,512.66,524.24
39.7517,513.13,525
39.7721,511.9,525.2
39.7925,510.92,523.56
39.8132,511.54,522.05
39.8335,511.63,521.84
39.8579,509.9,519.87
39.8785,510.12,519.3
39.899,506.9,518.24
39.9195,502.52,517.79
39.94,499.41,519.43
39.9606,497.73,519.95
39.985,498.39,522.36
40.0057,500.71,524.08
40.0262,501.57,527.07
40.0466,502.85,529.25
40.067,504.28,529.2
40.0914,505.03,530.16
40.1121,505.02,530.93
40.1325,505.02,530.14
40.1532,506.01,528.92
40.1735,507.21,527.93
40.194,506.37,527.15
40.2184,507.29,525.32
40.2391,508.24,524.45
40.2596,507.99,523.36
40.28,512.39,524.09
40.3004,520.71,525.87
40.325,525.57,527.3
40.3456,528.46,528.44
40.3659,530.37,530.15
40.3865,532.29,531.12
40.4069,531.23,531.3
40.4274,531.19,531.04
40.4519,527.95,530.43
40.4725,526.36,529.54
40.493,523.49,529.04
40.5134,523.59,527.23
40.5338,522.67,525.78
40.5583,520.34,523.83
40.5789,518.67,521.66
40.5995,518.14,520.73
40.6199,518.31,520.38
40.6404,517.65,519.91
40.661,517.72,520.53
40.6854,519.37,521.62
40.7058,519.9,523.9
40.7264,520.12,524.72
40.7469,519.1,526.17
40.7673,518.88,527.94
40.7919,518.3,529.55
40.8124,516.24,529.64
40.8329,514.79,529.71
40.8533,514.43,528.97
40.874,512.95,528.58
40.8943,510.96,528.46
40.9188,508.97,526.17
40.9394,506.37,525.33
40.96,508.3,524.47
40.9803,508.44,524.37
41.0009,510.35,524.5
41.0212,511.88,526
41.0458,515.3,528.6
41.0663,529.24,534.68
41.087,550.4,545.14
41.1074,575.12,554.52
41.1279,598.69,561.41
41.1523,616.95,564.73
41.1729,629.76,566.18
41.1934,632.21,563.95
41.2138,630.37,562.36
41.2343,624.89,556.89
41.2548,618.52,551.71
41.2792,612.81,548.57
41.2998,611.45,556.25
41.3203,606.76,578
41.3409,599.61,608.4
41.3612,591.09,640.72
41.3858,579.07,671.98
41.4065,566.86,695.58
41.4269,554.08,708.67
41.4473,544.27,708.53
41.4678,529.81,698.63
41.4882,515.65,677.3
41.5127,497.12,641.24
41.5333,475.5,589.19
41.5537,453.2,527.35
41.5744,434.16,465.88
41.5947,421.73,421.31
41.6193,414.18,395.45
41.6398,414.74,383.56
41.6604,419,381.85
41.6807,426.2,383.48
41.7013,433.16,389.98
41.7217,441.73,399.58
41.7463,444.78,408.27
41.7668,454.02,421.01
41.7871,462.02,433.21
41.8077,472.42,445.17
41.8282,478.53,455.14
41.8526,487.03,466.71
41.8731,489.42,476.17
41.8936,493.14,482.53
41.9141,494.91,486.63
41.9347,497.33,490.9
41.9552,499.26,492.92
41.9796,501.61,495.34
42.0002,504.49,497.87
42.0207,504.79,498.1
42.0412,505.03,500.48
42.0618,502.63,503.38
42.0821,503.1,505.1
42.1066,503.88,508.48
42.1271,509.1,510.39
42.1476,510.48,513.51
42.1681,512.99,516.61
42.1887,515.99,519.09
42.2132,517.79,519.07
42.2336,520.43,520.26
42.2541,520.95,519.6
42.2746,522.16,520.88
42.295,521.93,520.51
42.3156,517.94,517.81
42.3402,517.75,518.84
42.3606,515.8,517.48
42.3811,515.44,515.98
42.4015,514.35,514.98
42.4221,514.68,514.79
42.4467,514.15,514.83
42.467,515.52,515.46
42.4876,515.81,517.77
42.5083,518.05,520.62
42.5286,518.24,523.49
42.5491,518.39,524.99
42.5735,519.11,526.4
42.5942,519.29,528.12
42.6146,521.03,529.09
42.6352,520.03,527.67
42.6555,521.42,527.54
42.68,522.54,528.03
42.7006,520.63,527.43
42.7211,518.9,524.94
42.7415,518.72,522.75
42.762,516.98,521
42.7824,515.38,521.2
42.807,514.71,520.36
42.8275,514.76,524.09
42.848,517.21,525.27
42.8685,517.77,527.22
42.8891,516.62,528.77
42.9134,516.49,527.22
42.934,517.39,527.58
42.9547,516.92,527.86
42.975,518.33,527.89
42.9955,514.47,526.51
43.016,515.57,525.01
43.0406,515.06,523.61
43.0612,515.25,521.49
43.0816,511.4,518.79
43.1021,511.92,517.43
43.1226,512.33,518.14
43.1469,513.87,517.52
43.1674,513.09,517.61
43.188,514.48,518.09
43.2086,512.18,519.27
43.2289,518.74,523.62
43.2494,531.8,532.29
43.2739,553.44,541.64
43.2945,576.95,549.11
43.3151,601.56,555.09
43.3354,616.25,558.27
43.3559,623.6,561.42
43.3764,626.28,562.33
43.401,626.22,563.47
43.4214,622.58,561.97
43.4419,620.26,561.78
43.4624,612.61,558.82
43.483,603.69,555.46
43.5074,598.95,553.37
43.5279,595.36,551.69
43.5485,584.89,549.55
43.5689,576.31,548.04
43.5894,574.05,548.03
43.6099,570.44,547.23
43.6343,564.55,547.38
43.6549,557.24,545.11
43.6754,552.99,542.88
43.696,550.59,541.51
43.7165,545.88,540.81
43.741,542.3,542.65
43.7613,542.44,551.92
43.7818,540.75,575.33
43.8026,536,606.87
43.8229,527,634.49
43.8433,517.6,648.19
43.868,501.08,647.96
43.8884,482.66,631.16
43.9089,461.33,598.13
43.9294,440.27,553.11
43.9498,421.41,503.88
43.9742,412.53,467.91
43.9949,409.82,444.73
44.0154,408.66,432.18
44.036,412.73,426.94
44.0562,417.98,426.36
44.0768,423.59,427.68
44.1012,429.67,432.35
44.1219,434.73,436.88
44.1424,442.79,442.5
44.1629,450.23,449.2
44.1833,459.38,456.16
44.2077,469.91,462.33
44.2284,477.93,469.66
44.2491,484.94,475.33
44.2694,491.75,481.26
44.2899,496,487.81
44.3102,499.8,494.05
44.3349,502.04,499.24
44.3553,505.63,505.19
44.3757,507.11,509.35
44.3963,508.09,513.68
44.4167,508.67,515.95
44.4372,508.53,517.96
44.4618,510.03,518.37
44.4824,509.02,518.49
44.5029,509.22,517.39
44.5235,508.97,516.12
44.5436,509.58,515.49
44.5682,508.26,515.59
44.5889,506.61,515.87
44.6094,509.29,516.9
44.6298,512.23,518.92
44.6503,513.38,520.54
44.6706,514.71,522.83
44.6951,514.97,524.66
44.7157,515.37,525.73
44.7362,516.7,526.78
44.7568,515.76,526.43
44.7771,514.41,527.14
44.8016,513.33,526.11
44.8222,510.86,523.69
44.8428,512.69,522.15
44.8632,511.55,519.72
44.8837,510.84,519.98
44.9041,509.87,518.18
44.9287,510.1,518.55
44.9492,511.68,518.04
44.9696,511.94,518.83
44.9901,513.35,519.86
45.0107,512.68,522.69
45.0354,514.35,524.75
45.0556,517.28,526
45.0763,518.62,527
45.0966,518.1,528.6
45.1172,516.68,528.08
45.1377,518.14,527.66
45.1621,514.11,527.53
45.1827,512.89,526.03
45.2033,511.51,523.22
45.2236,511.21,522.58
45.2442,515.77,526.26
45.2685,527.21,535.81
45.2891,545.57,546.85
45.3097,570.06,556.28
45.3302,594.05,563.02
45.3507,611.24,567.82
45.3711,624.19,571.85
45.3955,631.35,573.88
45.4161,629.48,573.31
45.4367,623.18,572.45
45.4572,618.75,569.96
45.4776,614.8,565.57
45.502,606.64,561.65
45.5225,598.11,557.32
45.5431,589.09,550.46
45.5635,579.07,545.57
45.5841,572.86,540.85
45.6046,565.49,539.28
45.629,560.39,538.63
45.6498,557.71,558.3
45.6702,554.17,590.64
45.6907,552.93,625.11
45.7111,546.35,652.89
45.7355,537.28,665.31
45.7561,522.82,661.25
45.7766,504.86,642
45.7971,484.49,606.6
45.8175,460.19,559.28
45.8381,437.55,505.82
45.8625,418.24,461.46
45.883,409.19,432.37
45.9035,407.35,415.89
45.924,407.68,407.72
45.9444,410.75,405.57
45.9652,418,407.26
45.9894,424.8,411.41
46.0101,433.04,418.12
46.0307,442.23,426.5
46.051,450.18,435.2
46.0716,458.15,445.36
46.096,465.92,456.69
46.1166,473.13,466.95
46.137,478.51,475.16
46.1575,487.01,482.33
46.178,493.4,489.06
46.1984,497.92,494.65
46.2229,501.94,499.52
46.2434,503.35,502.22
46.264,505.08,504.77
46.2844,507.06,506.62
46.305,508.65,507.69
46.3295,508.32,508.56
46.35,508.26,508.64
46.3705,508.81,509.72
46.3909,510.44,511.57
46.4114,512.36,514.06
46.432,514.28,516.85
46.4565,514.63,519.48
46.477,514.1,521.58
46.4974,514.68,524.47
46.5179,516.55,527.77
46.5385,515.04,528.82
46.5629,514.23,528.85
46.5836,513.98,528.08
46.6039,513.99,527.07
46.6245,512.79,525.05
46.6448,511.43,524.24
46.6653,509.15,522.39
46.6899,508.32,522.12
46.7103,509.25,520.49
46.7308,509,519.39
46.7513,508.6,519.12
46.7718,509.68,519.69
46.7923,511.75,519.95
46.8168,514.2,522.16
46.8373,515.76,524.33
46.8579,517.61,527.46
46.8783,515.88,525.77
46.8989,516.31,523.62
46.9235,515.65,522.89
46.9439,514.12,521.12
46.9644,513.89,521.09
46.9849,512.91,518.47
47.0053,513.53,516.38
47.0258,512.43,514.9
47.0503,510.74,513.92
47.0709,511.39,514.54
47.0915,513.71,514.63
47.1118,515.57,514.7
47.1322,515.86,515.96
47.1567,516.89,519.77
47.1774,526.31,529.82
47.198,547.25,544.65
47.2183,571.6,557.32
47.2387,593.68,567.66
47.2592,611.74,572.13
47.2838,622.39,574.3
47.3044,626.92,574.04
47.3249,624.73,574.43
47.3454,623.59,577.15
47.3657,618.27,584.72
47.3903,607.01,604.17
47.4108,591.81,623.14
47.4312,566.25,631.71
47.4518,533.8,625.37
47.4723,502.84,604.5
47.4928,475.27,576
47.5173,460.02,550.6
47.5378,450.01,529.48
47.5583,447.21,513.18
47.5788,447.57,501.75
47.5991,450.46,493.8
47.6236,455.36,489.84
47.6441,460.69,486.27
47.6647,464.35,485.02
47.6851,467.88,484.21
47.7056,469.91,485.17
47.7262,472.12,486.14
47.7506,473.7,486.51
47.7711,475.36,488.01
47.7916,482.69,483.61
47.8121,493.15,478.08
47.8326,497.32,475.47
47.8571,501.66,476.37
47.8776,505.93,479.9
47.8982,510.74,483.92
47.9186,510.79,488.14
47.9391,512.83,492.91
47.9596,511.67,496.13
47.9841,511.73,500.1
48.0046,511.59,504.88
48.0252,509.47,507.9
48.0456,511.38,509.72
48.0663,509.9,509.78
48.0867,510.12,511.82
48.1112,510.1,512.66
48.1316,508.88,512.53
48.1521,509.3,512.02
48.1727,509.24,512.62
48.1933,512.79,514.09
48.2177,514.43,516.08
48.2381,516.15,518.46
48.2587,515.92,520.97
48.2791,518.13,524.17
48.2995,517.51,526.54
48.3201,518.21,530.03
48.3445,507.56,535.83
48.365,491.25,541.86
48.3857,479,544.49
48.406,472.2,543.79
48.4266,468.76,540.83
48.451,467.81,538.27
48.4717,467.45,534.81
48.492,469.76,531.65
48.5125,473.41,529.52
48.533,477.72,528.82
48.5535,481.38,528.05
48.5779,486.1,527.44
48.5985,491.28,527.35
48.619,496.63,527.68
48.6395,500.7,528.15
48.66,504.16,528.52
48.6844,505.73,529.41
48.705,507.18,528.73
48.7255,509.15,528.98
48.7459,505.12,526.99
48.7664,503.29,524.39
48.7869,500.84,521.31
48.8115,499.07,518.45
48.832,498.85,515.36
48.8525,499.88,513.29
48.8729,502.51,513.03
48.8934,504.01,512.42
48.9179,507.2,511.94
48.9384,509.56,512.75
48.959,511.65,514.6
48.9794,513.32,516.28
48.9999,515.26,517.82
49.0204,518.61,519.46
49.045,519.88,521.17
49.0654,519.51,521.93
49.0859,522.01,521.95
49.1064,522.8,521.96
49.1269,521.44,520.37
49.1474,519.35,518.29
49.1721,518.88,517.23
49.1925,518.51,515.99
49.2129,517.81,514.79
49.2334,519.64,515.23
49.2538,520.52,515.39
49.2783,520.21,516.51
49.2989,519.57,517.61
49.3195,520.26,519.29
49.3399,520.2,521.23
49.3605,520.36,523.78
49.3809,521.49,525.83
49.4056,522.59,527.46
49.426,523.07,528.17
49.4464,521.46,527.54
49.4669,519.97,526.83
49.4874,518.17,525.66
49.512,516.34,524.13
49.5324,515.87,522.9
49.5528,517.3,522.12
49.5734,522.24,523.7
49.594,526.59,523.36
49.6144,527.07,523.29
49.6389,528.46,523.23
49.6593,527.57,523.98
49.6799,528.25,525.39
49.7003,528.2,526.51
49.7208,527.96,527.41
49.7453,527.37,527.33
49.7658,527.7,527.86
49.7864,526.76,528.09
49.8069,527.21,527.07
49.8273,524.96,525.86
49.8478,522.77,524.69
49.8723,524.62,523.75
49.8929,523.69,521.2
49.9133,523.35,519.16
49.9339,521.48,517.73
49.9544,522.79,517.58
49.9787,524.23,517.07
49.9993,524.18,516.25
50.0198,525.35,516.8
50.0404,528.28,518.64
50.0608,529.42,519.31
50.0813,529.34,520.65
50.1058,528.87,521.92
50.1263,526.1,522.34
50.1468,524.48,522.87
50.1673,523.78,522.7
50.188,517.83,521.76
50.2123,511.06,520.21
50.2328,507.25,516.96
50.2533,507.4,514.57
50.2737,505.92,512.26
50.2942,506.54,510.81
50.3147,507.83,509.84
50.3392,509.66,510.48
50.3598,514.13,510.78
50.3802,515.7,512.22
50.4007,519.16,515.18
50.4211,519.93,517.94
50.4416,519.54,520.35
50.4661,521.44,520.88
50.4867,523.55,521.51
50.5072,523.84,521.01
50.5277,524.07,521.6
50.5481,523.86,521.28
50.5727,522.69,519.43
50.5933,520.55,517.94
50.6137,520.04,515.55
50.6342,519.43,514.24
50.6547,521.54,512.99
50.6752,523.64,513.4
50.6998,523.51,513.32
50.7204,525.21,513.65
50.7407,524.97,514.72
50.7611,525.57,517.38
50.7816,523.26,519.3
50.8061,524.61,521.24
50.8266,523.49,524.39
50.8472,522.99,525.71
50.8677,521.39,528.37
50.8881,519.11,529.1
50.9087,519.49,527.88
50.9333,517.59,527.3
50.9536,517.27,526.44
50.9741,514.02,524.55
50.9948,512.02,523.24
51.0151,516.81,520.59
51.0396,530.45,514.88
51.0603,537.76,511.7
51.0806,543.01,511.56
51.1011,550.01,512.05
51.1216,552.6,515.24
51.1421,552.88,516.59
51.1666,552.31,518.27
51.1871,547.85,519.82
51.2076,545.08,521.05
51.2281,541.26,523.84
