Program Time [s],data 0,data 1
5.59151,447.82,459.92
5.61220,451.75,455.58
5.63226,453.62,452.28
5.65107,452.61,456.46
5.67209,452.42,458.35
5.69253,451.84,456.74
5.71143,452.52,455.47
5.73238,450.20,453.49
5.75254,450.26,453.81
5.77286,449.84,453.25
5.79325,453.09,454.89
5.81268,452.68,454.55
5.83255,452.78,457.22
5.85166,453.25,457.18
5.87393,454.09,458.98
5.89459,454.49,460.05
5.91359,452.67,458.74
5.93361,452.18,461.75
5.95449,452.93,460.93
5.97268,453.80,457.68
5.99441,453.74,455.45
6.01402,453.68,455.91
6.03357,456.44,453.52
6.05344,456.48,451.09
6.07434,455.75,451.73
6.09336,456.86,448.70
6.11403,454.57,450.68
6.13320,456.56,449.06
6.15335,454.91,448.26
6.17429,455.35,448.41
6.19281,453.20,448.06
6.21423,453.40,447.66
6.23404,452.77,447.42
6.25388,457.21,449.42
6.27381,456.04,452.04
6.29333,457.35,453.93
6.31357,457.73,453.71
6.33438,456.66,455.00
6.35392,456.46,453.12
6.37312,456.86,453.30
6.39462,455.98,450.84
6.41287,455.27,449.74
6.43368,456.81,449.63
6.45286,453.96,451.66
6.47414,454.58,444.30
6.49347,453.59,434.99
6.51420,454.97,415.95
6.53420,450.70,392.25
6.55380,449.78,373.74
6.57315,446.89,354.77
6.59294,445.33,340.68
6.61443,446.08,328.28
6.63377,446.96,323.70
6.65418,446.01,325.79
6.67273,445.50,323.68
6.69450,447.72,329.84
6.71408,446.03,336.20
6.73342,448.20,346.04
6.75436,449.91,356.49
6.77509,452.22,362.54
6.79444,453.75,374.04
6.81540,452.95,384.85
6.83420,455.54,390.68
6.85520,453.82,397.21
6.87512,455.27,407.79
6.89360,456.25,412.43
6.91485,460.55,418.31
6.93491,462.25,420.91
6.95569,463.59,428.06
6.97575,462.99,428.83
6.99572,462.15,434.88
7.01648,463.69,435.50
7.03657,463.85,440.05
7.05527,464.96,439.19
7.07551,464.67,440.31
7.09459,464.21,445.11
7.11501,466.21,443.53
7.13576,465.88,443.48
7.15487,464.09,453.18
7.17635,463.89,470.71
7.19485,465.37,490.42
7.21568,465.84,515.69
7.23491,469.08,542.68
7.25478,467.62,565.90
7.27631,467.86,586.48
7.29691,470.88,592.71
7.31674,475.05,588.13
7.33600,471.81,577.28
7.35570,473.20,566.96
7.37552,470.48,552.88
7.39557,470.08,542.54
7.41633,470.50,530.04
7.43603,474.30,521.97
7.45567,470.85,513.05
7.47588,470.18,503.08
7.49737,468.97,499.44
7.51755,472.26,493.56
7.53690,471.49,487.89
7.55556,470.21,485.94
7.57581,469.45,479.91
7.59741,466.88,478.04
7.61721,466.85,474.53
7.63663,466.61,474.36
7.65745,467.80,474.56
7.67668,467.73,473.37
7.69711,469.56,472.53
7.71745,470.40,469.59
7.73735,470.62,469.71
7.75674,471.62,467.60
7.77721,469.81,467.75
7.79718,467.39,469.30
7.81759,469.61,468.80
7.83721,468.11,466.64
7.85670,466.84,465.84
7.87719,469.64,462.97
7.89593,467.23,465.13
7.91727,470.68,461.38
7.93575,468.13,460.58
7.95677,466.92,461.76
7.97602,465.76,463.12
7.99755,466.47,462.52
8.01690,468.83,461.56
8.03698,466.06,460.42
8.05666,466.73,460.01
8.07603,468.82,460.16
8.09561,469.50,459.17
8.11629,466.86,461.83
8.13744,469.14,461.83
8.15745,468.56,463.91
8.17647,467.29,466.90
8.19688,468.07,466.67
8.21625,467.27,466.64
8.23575,463.52,467.29
8.25739,463.53,468.55
8.27670,464.85,467.45
8.29732,464.71,468.15
8.31578,464.69,465.99
8.33728,463.71,466.32
8.35563,465.93,466.06
8.37756,463.85,465.79
8.39638,464.41,465.95
8.41630,463.62,463.41
8.43626,462.71,462.47
8.45585,463.64,462.58
8.47587,463.85,459.74
8.49568,464.87,462.35
8.51575,466.62,459.33
8.53548,462.14,457.82
8.55614,464.08,457.63
8.57749,465.59,461.85
8.59612,466.08,460.61
8.61587,464.31,460.30
8.63672,464.02,459.48
8.65645,466.79,461.30
8.67647,466.31,460.14
8.69727,462.31,459.85
8.71576,463.22,461.22
8.73614,460.44,460.16
8.75645,463.52,460.19
8.77677,461.69,461.41
8.79647,462.75,460.68
8.81728,462.92,461.38
8.83594,463.24,461.49
8.85634,462.09,459.47
8.87761,462.88,462.33
8.89628,463.92,462.95
8.91658,464.03,460.27
8.93578,464.63,463.45
8.95634,464.44,463.68
8.97640,463.13,459.84
8.99735,465.77,460.88
9.01711,468.58,460.45
9.03570,467.05,461.51
9.05707,468.47,461.79
9.07587,468.78,459.29
9.09669,468.20,459.36
9.11734,465.61,460.85
9.13584,466.26,463.31
9.15575,467.23,461.75
9.17652,468.64,460.83
9.19636,465.44,460.61
9.21713,467.72,461.38
9.23662,467.14,461.67
9.25679,467.03,460.39
9.27610,466.73,462.54
9.29581,464.91,460.07
9.31705,465.97,460.05
9.33580,464.47,461.02
9.35588,464.88,463.64
9.37694,464.38,461.17
9.39695,463.98,463.07
9.41579,466.04,460.71
9.43568,463.53,460.86
9.45541,462.69,460.12
9.47564,464.19,460.50
9.49611,466.01,462.46
9.51719,467.04,460.99
9.53738,466.51,461.17
9.55584,466.36,462.28
9.57661,467.14,459.93
9.59712,465.08,459.97
9.61642,466.48,459.62
9.63701,466.16,460.76
9.65689,466.52,461.70
9.67757,466.06,460.98
9.69677,466.51,461.53
9.71735,467.17,460.85
9.73581,463.04,459.39
9.75559,465.30,462.36
9.77677,465.47,460.79
9.79625,464.92,459.61
9.81605,463.62,462.34
9.83633,466.18,459.50
9.85596,465.53,460.06
9.87658,465.64,463.52
9.89746,465.77,462.72
9.91580,464.34,460.67
9.93565,466.54,461.89
9.95720,464.09,464.43
9.97634,466.09,461.14
9.99648,464.58,460.92
10.01589,464.32,461.39
10.03674,465.04,462.38
10.05697,466.40,461.07
10.07660,465.71,462.28
10.09627,464.04,460.80
10.11616,465.95,459.85
10.13730,465.75,461.28
10.15734,465.31,460.51
10.17716,465.58,459.47
10.19676,467.84,460.79
10.21578,464.94,460.26
10.23740,466.80,457.42
10.25694,466.35,456.68
10.27752,465.95,458.89
10.29588,467.05,461.66
10.31723,465.38,464.49
10.33638,463.29,464.76
10.35691,466.68,458.44
10.37593,463.54,447.78
10.39673,462.02,431.22
10.41565,459.86,415.98
10.43664,459.99,395.74
10.45569,457.71,378.49
10.47647,457.65,360.08
10.49603,454.86,347.99
10.51596,454.81,342.62
10.53754,453.48,334.56
10.55581,450.97,331.29
10.57650,452.14,336.82
10.59646,453.05,339.04
10.61683,454.31,347.37
10.63629,454.99,354.78
10.65641,458.06,366.89
10.67697,459.65,372.40
10.69576,458.50,382.11
10.71610,459.75,394.64
10.73662,460.65,401.75
10.75707,463.00,407.24
10.77727,461.01,414.48
10.79669,461.25,421.74
10.81718,464.09,425.16
10.83701,464.95,431.92
10.85551,465.64,433.92
10.87694,466.15,437.05
10.89661,465.88,439.54
10.91617,465.99,443.56
10.93687,465.09,458.29
10.95713,467.63,487.18
10.97617,465.53,522.18
10.99591,466.07,554.88
11.01563,471.73,588.05
11.03720,471.33,610.51
11.05698,473.00,619.19
11.07618,476.53,613.51
11.09600,475.08,604.23
11.11673,477.55,590.04
11.13649,474.18,575.40
11.15643,474.99,559.33
11.17627,471.28,546.06
11.19721,473.59,531.89
11.21671,470.41,522.89
11.23656,469.61,512.89
11.25623,468.27,505.57
11.27752,467.86,497.83
11.29555,469.47,493.00
11.31684,468.72,489.30
11.33667,466.64,484.69
11.35730,465.38,480.93
11.37570,463.17,480.65
11.39592,464.42,477.29
11.41626,468.81,472.93
11.43610,469.11,471.75
11.45555,470.17,469.77
11.47716,470.27,469.32
11.49595,470.01,467.00
11.51553,469.39,468.48
11.53703,469.94,467.47
11.55603,466.91,467.26
11.57675,465.97,466.66
11.59750,466.54,463.09
11.61565,464.99,464.82
11.63705,462.85,462.07
11.65684,465.18,460.58
11.67565,467.03,462.31
11.69747,466.62,460.78
11.71730,465.40,462.25
11.73690,465.30,459.28
11.75693,467.60,461.03
11.77674,465.15,460.04
11.79685,465.65,462.65
11.81631,465.74,460.88
11.83640,464.27,462.39
11.85739,467.37,461.05
11.87749,464.06,460.77
11.89731,464.56,461.58
11.91744,465.94,462.06
11.93572,467.04,461.99
11.95603,461.63,461.19
11.97577,465.06,460.74
11.99677,466.09,459.68
12.01574,463.47,463.11
12.03739,466.10,462.91
12.05640,468.39,463.25
12.07699,467.57,463.05
12.09627,468.32,459.22
12.11620,465.10,462.11
12.13703,466.00,460.10
12.15652,465.16,462.38
12.17735,467.60,462.16
12.19715,465.92,461.48
12.21649,461.77,462.33
12.23568,464.36,459.68
12.25664,462.35,461.60
12.27715,462.98,459.43
12.29706,463.92,459.98
12.31582,465.29,462.10
12.33678,464.69,459.97
12.35707,463.34,459.26
12.37586,464.17,460.15
12.39669,465.80,461.87
12.41676,465.32,460.63
12.43608,465.22,461.54
12.45699,466.59,459.52
12.47702,465.70,460.80
12.49659,468.31,459.77
12.51605,467.02,462.51
12.53588,464.94,460.72
12.55568,465.22,461.91
12.57623,466.89,460.26
12.59705,465.95,460.86
12.61698,463.16,457.59
12.63612,465.33,460.63
12.65600,463.28,460.55
12.67738,463.44,462.37
12.69753,466.09,462.39
12.71633,465.62,459.67
12.73575,465.92,459.07
12.75730,465.07,458.87
12.77607,467.29,460.25
12.79630,464.74,459.32
12.81625,466.03,461.82
12.83605,465.95,461.91
12.85678,467.46,459.19
12.87608,466.37,459.65
12.89648,463.16,460.43
12.91591,466.21,460.11
12.93654,465.10,462.55
12.95563,462.29,460.61
12.97684,463.62,460.30
12.99576,463.04,461.44
13.01608,464.70,461.44
13.03628,462.21,458.33
13.05622,465.22,461.99
13.07620,463.63,457.56
13.09712,462.08,457.42
13.11632,463.79,458.39
13.13628,463.41,456.78
13.15620,463.33,460.17
13.17585,463.13,459.89
13.19568,460.54,460.02
13.21534,462.52,457.97
13.23667,463.17,461.02
13.25613,464.17,459.10
13.27638,460.43,458.03
13.29706,462.03,458.67
13.31577,462.31,458.08
13.33722,459.95,460.02
13.35719,462.07,459.03
13.37563,461.00,459.45
13.39658,463.03,458.45
13.41543,465.75,460.53
13.43585,463.85,459.15
13.45686,465.57,457.83
13.47575,462.88,458.36
13.49578,462.75,456.51
13.51571,462.09,459.69
13.53598,461.69,456.13
13.55588,460.36,456.39
13.57636,463.61,457.45
13.59589,461.83,455.79
13.61630,460.97,457.91
13.63560,463.52,458.04
13.65664,465.76,458.42
13.67555,463.80,458.68
13.69558,462.62,458.37
13.71736,463.17,459.51
13.73746,465.23,459.33
13.75607,464.71,459.14
13.77678,461.61,456.86
13.79739,461.01,458.18
13.81621,461.91,455.79
13.83713,462.21,458.75
13.85630,460.33,455.82
13.87563,458.39,455.96
13.89559,461.58,454.56
13.91563,458.84,457.47
13.93572,459.22,456.43
13.95627,458.23,456.38
13.97665,460.82,457.76
13.99722,459.04,454.43
14.01685,459.55,457.83
14.03675,459.28,454.98
14.05583,461.54,457.20
14.07729,461.76,456.08
14.09653,463.62,457.36
14.11703,463.05,454.36
14.13634,465.73,453.45
14.15636,464.55,456.38
14.17611,461.97,453.29
14.19672,463.58,454.03
14.21701,464.94,455.01
14.23613,463.29,454.44
14.25605,465.76,456.76
14.27671,463.14,455.11
14.29611,464.18,455.40
14.31719,464.26,457.16
14.33632,461.61,459.13
14.35594,462.86,457.17
14.37612,461.25,456.74
14.39788,465.28,456.88
14.41727,464.64,455.12
14.43691,462.60,456.56
14.45547,460.36,456.91
14.47603,460.85,456.93
14.49716,461.41,457.30
14.51575,460.29,458.61
14.53679,460.74,458.17
14.55618,463.07,456.54
14.57558,461.13,457.01
14.59679,462.85,457.84
14.61577,464.04,455.03
14.63613,461.20,456.92
14.65731,463.22,458.95
14.67582,462.47,459.83
14.69575,461.65,459.00
14.71607,461.29,457.45
14.73585,460.53,458.12
14.75674,462.91,454.74
14.77594,460.43,453.18
14.79608,463.87,452.56
14.81702,461.38,454.02
14.83629,462.58,450.78
14.85726,458.78,450.67
14.87706,462.14,451.68
14.89652,462.89,453.67
14.91732,461.09,451.22
14.93718,460.26,442.08
14.95718,458.12,426.63
14.97551,454.39,409.49
14.99635,451.90,389.62
15.01597,452.28,376.16
15.03601,446.08,361.72
15.05600,445.27,349.91
15.07712,445.40,342.66
15.09674,445.36,338.13
15.11596,444.73,334.71
15.13635,447.28,334.26
15.15726,450.58,338.99
15.17745,452.97,344.59
15.19714,454.91,354.26
15.21663,454.71,363.98
15.23722,455.17,372.65
15.25701,458.47,381.49
15.27632,459.69,390.79
15.29632,457.69,397.82
15.31669,460.48,405.84
15.33607,458.27,412.16
15.35614,460.76,414.35
15.37579,461.65,419.66
15.39624,462.09,426.23
15.41585,460.92,431.20
15.43690,461.54,435.04
15.45610,461.21,435.34
15.47676,465.07,439.22
15.49658,462.41,439.40
15.51685,460.28,443.19
15.53732,459.17,440.92
15.55833,459.16,442.66
15.57862,458.24,442.85
15.59783,456.51,456.88
15.61775,456.03,484.02
15.63782,456.65,518.89
15.65926,457.00,554.77
15.67742,459.44,583.84
15.69810,463.54,602.57
15.71864,462.77,608.78
15.73743,465.88,605.02
15.75839,465.57,592.35
15.77751,464.24,576.95
15.79907,463.37,560.84
15.81839,458.25,546.44
15.83772,460.00,532.68
15.85800,459.25,522.93
15.87946,458.31,507.71
15.89939,455.21,500.39
15.91930,453.36,492.98
15.93887,454.87,483.24
15.95881,452.55,480.72
15.97941,450.97,475.99
15.99953,447.97,472.49
16.01995,449.04,469.77
16.03958,447.77,466.63
16.06138,446.86,463.62
16.08051,446.57,461.38
16.10072,444.02,458.33
16.12034,446.57,457.91
16.13938,446.69,455.63
16.16175,446.35,457.91
16.18237,448.31,456.49
16.20174,447.18,451.82
16.22218,448.23,451.02
16.24104,445.14,451.40
16.26136,447.16,450.91
16.28118,443.67,450.38
16.30061,446.67,451.81
16.32160,444.99,447.53
16.34161,444.80,449.86
16.36210,446.97,446.27
16.38104,448.46,447.57
16.40175,445.89,447.26
16.42111,445.28,449.87
16.44178,444.08,447.41
16.46180,443.99,447.59
16.48142,444.41,450.24
16.50119,447.95,448.10
16.52158,445.49,449.12
16.54111,445.88,448.03
16.56079,448.29,448.33
16.58110,446.10,447.17
16.60149,446.55,448.63
16.62167,445.56,446.24
16.64290,449.10,445.85
16.66299,447.32,447.15
16.68287,452.02,445.28
16.70318,449.97,447.86
16.72340,451.23,447.57
16.74271,450.96,446.46
16.76365,450.08,448.75
16.78420,450.91,449.21
16.80504,450.57,446.88
16.82363,451.89,447.93
16.84401,451.95,447.70
16.86420,450.29,449.09
16.88351,449.53,450.55
16.90506,450.02,450.59
16.92387,450.47,450.35
16.94458,451.34,452.80
16.96637,451.62,452.80
16.98538,455.22,451.95
17.00469,453.71,450.94
17.02570,456.37,453.52
17.04512,453.12,451.44
17.06455,454.42,451.57
17.08448,455.06,449.56
17.10692,456.30,450.29
17.12692,457.08,449.27
17.14605,456.73,449.17
17.16736,459.16,449.57
17.18578,456.73,450.90
17.20722,460.35,452.07
17.22734,458.58,451.84
17.24680,460.26,454.22
17.26623,458.94,451.21
17.28691,460.91,451.97
17.30643,460.00,453.76
17.32674,457.52,454.16
17.34604,459.34,453.53
17.36695,457.57,454.68
17.38555,456.91,451.54
17.40748,456.32,450.89
17.42655,459.01,452.30
17.44824,459.97,452.26
17.46694,461.75,453.41
17.48752,460.07,451.79
17.50757,463.33,456.07
17.52644,463.76,455.29
17.54666,461.81,454.02
17.56760,464.06,453.13
17.58774,461.42,454.62
17.60774,460.16,452.27
17.62866,461.33,452.44
17.64904,461.83,455.04
17.66819,460.64,456.52
17.68753,461.58,456.16
17.70776,462.97,457.30
17.72901,462.12,457.36
17.74732,463.64,455.16
17.76808,462.98,455.24
17.78829,462.72,456.73
17.80935,463.06,456.26
17.82995,463.05,459.60
17.84959,464.22,457.35
17.87227,461.43,459.81
17.89321,465.50,460.09
17.91289,462.40,458.68
17.93307,465.00,457.26
17.95208,462.57,459.60
17.97415,462.31,458.54
17.99412,462.75,460.05
18.01393,463.66,459.57
18.03236,465.82,456.80
18.05378,463.42,458.50
18.07286,463.60,461.18
18.09267,464.56,459.14
18.11410,467.84,459.63
18.13347,466.13,462.00
18.15360,467.50,461.47
18.17281,468.01,461.38
18.19400,467.79,461.90
18.21400,466.95,461.28
18.23308,467.81,461.79
18.25404,465.38,458.85
18.27307,467.04,460.23
18.29360,465.20,461.71
18.31331,463.89,460.23
18.33377,461.15,461.84
18.35341,462.64,463.31
18.37254,460.27,460.98
18.39275,460.73,462.89
18.41391,462.54,460.24
18.43326,459.99,461.36
18.45385,461.59,463.54
18.47455,457.05,462.77
18.49443,459.68,461.49
18.51392,456.23,463.04
18.53388,458.39,462.36
18.55443,455.98,459.02
18.57451,457.10,461.88
18.59444,454.79,461.05
18.61615,453.59,459.31
18.63631,452.97,456.36
18.65717,453.32,455.69
18.67640,452.59,457.16
18.69759,452.59,459.11
18.71785,452.69,456.55
18.73763,449.27,457.19
18.75906,448.80,456.97
18.77999,449.83,457.30
18.79993,449.41,454.90
18.81840,447.60,455.39
18.83965,447.42,453.58
18.85870,450.19,453.09
18.87900,448.60,454.26
18.89961,449.12,454.61
18.91931,446.68,452.85
18.94047,449.68,452.69
18.96024,448.16,451.69
18.98196,449.63,450.01
19.00050,449.50,448.51
19.02033,447.98,448.25
19.04080,450.71,450.73
19.06132,447.99,447.19
19.08177,448.19,449.33
19.10174,449.29,448.72
19.12191,449.16,446.43
19.14148,447.87,448.43
19.16205,449.15,446.11
19.18098,449.63,447.82
19.20082,450.73,450.14
19.22153,449.79,450.99
19.24191,450.08,449.08
19.26061,449.59,449.30
19.28147,446.73,444.47
19.30300,442.24,431.63
19.32293,438.85,420.06
19.34131,436.75,401.65
19.36150,437.66,386.18
19.38320,436.33,367.80
19.40284,435.17,354.64
19.42250,436.54,341.54
19.44260,436.19,334.13
19.46168,436.76,328.67
19.48230,439.11,324.69
19.50168,441.57,327.41
19.52267,443.26,330.37
19.54263,445.57,335.57
19.56360,447.14,344.95
19.58371,451.84,355.58
19.60388,454.78,365.28
19.62255,455.49,376.44
19.64259,456.11,385.66
19.66509,457.49,395.59
19.68386,455.66,401.33
19.70329,458.03,409.08
19.72439,458.02,414.65
19.74493,459.52,419.79
19.76464,456.44,426.84
19.78406,456.83,429.82
19.80347,458.55,432.19
19.82472,458.29,435.88
19.84366,458.62,439.22
19.86450,454.50,440.84
19.88498,456.06,448.47
19.90530,456.64,469.15
19.92450,460.81,502.00
19.94383,463.27,536.76
19.96402,462.80,564.84
19.98389,463.94,586.16
20.00332,460.09,595.90
20.02396,462.63,592.45
20.04504,459.17,582.92
20.06458,462.21,572.47
20.08367,460.08,556.22
20.10497,459.15,544.45
20.12422,459.31,528.20
20.14401,458.98,520.74
20.16468,456.09,508.83
20.18336,454.41,503.68
20.20487,453.59,493.93
20.22391,453.84,488.84
20.24387,455.32,486.58
20.26442,458.27,482.57
20.28492,459.04,476.17
20.30350,460.82,471.99
20.32351,460.13,469.80
20.34376,459.48,470.42
20.36448,458.76,467.16
20.38502,458.46,466.61
20.40481,460.85,465.54
20.42372,457.94,460.21
20.44353,457.03,461.67
20.46394,460.12,460.28
20.48478,458.91,457.83
20.50437,458.68,459.19
20.52398,457.53,460.30
20.54538,460.38,457.33
20.56426,460.87,460.65
20.58503,456.57,458.85
20.60390,457.35,458.99
20.62406,458.07,460.24
20.64482,457.88,460.36
20.66377,459.23,458.61
20.68373,459.03,458.76
20.70374,457.90,458.16
20.72467,457.55,458.88
20.74449,458.64,455.86
20.76568,457.60,457.09
20.78706,457.47,457.96
20.80730,462.70,456.98
20.82793,461.83,461.75
20.84735,460.99,461.24
20.86786,460.33,458.39
20.88957,460.32,460.26
20.90886,461.99,461.71
20.92895,463.25,460.26
20.95002,465.27,460.69
20.97206,463.61,461.46
20.99188,462.81,459.79
21.01073,463.68,459.89
21.03123,460.20,457.55
21.05088,463.75,458.84
21.07145,464.02,460.79
21.09238,462.37,460.28
21.11310,459.89,456.89
21.13370,459.48,458.06
21.15338,457.58,457.68
21.17501,455.63,457.89
21.19379,456.33,456.32
21.21414,455.11,458.35
21.23424,454.37,457.70
21.25332,454.40,455.81
21.27579,454.11,454.26
21.29472,452.62,455.51
21.31530,450.03,451.83
21.33670,448.79,452.84
21.35726,450.92,449.10
21.37721,449.05,450.74
21.39808,448.62,450.48
21.41902,449.22,451.52
21.43799,448.57,451.13
21.45790,446.44,448.12
21.47724,445.90,450.80
21.49747,447.80,451.23
21.51743,446.18,451.28
21.53782,446.48,449.66
21.55935,446.76,450.69
21.57886,445.26,446.95
21.59742,447.25,448.48
21.61914,445.47,447.48
21.63882,448.57,447.62
21.65822,447.18,447.51
21.67768,447.29,445.90
21.69827,446.67,447.04
21.71740,446.75,449.60
21.73923,445.01,449.29
21.75841,445.83,446.05
21.77757,446.33,446.85
21.79820,444.81,445.18
21.81905,444.21,445.07
21.83817,444.31,446.74
21.85875,448.51,448.09
21.87917,446.59,447.27
21.89754,448.12,445.37
21.91919,449.23,447.57
21.93788,447.04,447.95
21.95854,446.93,447.59
21.97818,445.36,446.20
21.99895,446.93,445.61
22.01781,446.56,447.19
22.03800,445.80,447.78
22.05756,447.51,444.48
22.07815,445.23,445.12
22.09771,447.01,446.01
22.11813,449.15,446.78
22.13917,447.41,449.09
22.15947,443.22,449.40
22.17868,447.02,446.87
22.19755,443.81,447.60
22.21882,444.77,447.34
22.23899,443.86,449.41
22.25761,445.97,448.47
22.27868,445.95,448.96
22.29784,448.24,446.61
22.31761,449.24,448.52
22.33779,448.20,446.70
22.35839,445.54,449.78
22.37914,447.99,449.02
22.40003,448.14,448.29
22.41873,450.48,447.31
22.43878,449.73,447.95
22.45935,450.14,449.15
22.48128,450.28,447.95
22.49922,452.04,448.80
22.51948,452.38,449.21
22.54010,452.81,449.89
22.56066,451.07,449.84
22.58011,452.97,447.57
22.60002,450.81,448.97
22.62014,453.51,450.68
22.64038,450.80,449.34
22.65960,452.51,451.32
22.68027,450.63,449.72
22.70058,451.60,449.98
22.72139,452.22,450.73
22.74232,451.34,451.09
22.76121,451.98,452.69
22.78129,454.04,451.42
22.80198,453.36,449.73
22.82226,454.59,448.88
22.84226,451.71,449.53
22.86125,455.13,448.88
22.88183,455.49,450.78
22.90071,455.84,449.80
22.92078,454.84,450.94
22.94130,453.03,450.00
22.96213,451.42,449.70
22.98201,456.58,451.55
23.00171,455.63,452.04
23.02080,454.96,450.97
23.04169,453.19,450.74
23.06185,456.75,449.84
23.08169,456.47,451.22
23.10171,455.29,449.78
23.12124,455.68,450.79
23.14120,454.86,452.13
23.16054,455.67,446.39
23.18171,455.01,433.30
23.20225,455.39,418.53
23.22239,454.88,402.83
23.24177,451.09,390.65
23.26201,452.47,374.19
23.28165,452.36,363.28
23.30298,449.87,355.12
23.32220,449.80,345.61
23.34300,449.17,342.99
23.36276,448.63,341.82
23.38186,446.94,343.50
23.40196,450.67,345.51
23.42154,451.16,349.42
23.44241,450.35,354.96
23.46295,451.26,361.32
23.48252,451.46,370.26
23.50193,455.11,377.61
23.52232,454.47,383.76
23.54147,454.91,391.01
23.56264,456.70,397.72
23.58185,456.48,404.81
23.60264,454.15,409.88
23.62291,455.30,415.95
23.64127,458.00,418.61
23.66308,458.36,423.12
23.68319,455.57,428.32
23.70248,459.85,442.83
23.72237,457.44,461.80
23.74200,459.77,479.96
23.76196,460.68,496.43
23.78238,462.10,517.00
23.80162,465.00,544.23
23.82135,468.54,564.58
23.84138,471.31,582.42
23.86139,470.38,589.20
23.88263,469.49,586.81
23.90141,468.16,578.05
23.92276,464.19,566.07
23.94236,463.36,553.53
23.96393,465.61,541.70
23.98486,463.08,531.90
24.00389,462.67,522.49
24.02400,464.90,510.55
24.04368,463.29,506.50
24.06450,462.23,500.15
24.08327,464.61,494.49
24.10448,462.82,487.70
24.12376,461.95,483.86
24.14470,461.76,478.25
24.16343,462.69,474.74
24.18445,461.29,472.03
24.20395,462.10,472.56
24.22364,462.73,470.28
24.24489,460.90,467.29
24.26520,461.02,466.32
24.28328,462.62,468.72
24.30427,460.10,465.42
24.32510,461.03,467.32
24.34428,464.41,464.18
24.36558,463.04,463.30
24.38443,465.44,460.28
24.40406,463.54,459.29
24.42579,464.73,460.61
24.44557,463.69,459.67
24.46523,463.55,458.02
24.48600,463.79,459.68
24.50621,466.02,460.65
24.52544,463.31,458.73
24.54484,465.65,457.49
24.56485,464.99,460.37
24.58597,466.24,459.32
24.60570,466.85,456.38
24.62535,465.51,456.67
24.64602,467.61,456.38
24.66577,468.07,459.83
24.68543,466.59,458.44
24.70583,465.44,456.05
24.72493,465.78,456.20
24.74557,466.60,456.13
24.76601,465.09,457.77
24.78672,462.57,458.82
24.80539,465.50,461.57
24.82784,464.43,459.47
24.84693,461.76,460.72
24.86634,462.81,458.60
24.88733,463.31,460.14
24.90678,463.26,458.55
24.92772,464.64,459.39
24.94797,462.79,459.20
24.96724,464.08,462.76
24.98771,462.50,462.03
25.00757,464.10,459.57
25.02624,463.91,461.56
25.04704,462.73,457.84
25.06728,465.36,458.90
25.08730,464.42,457.78
25.10711,463.06,459.54
25.12800,462.93,457.44
25.14693,464.36,459.75
25.16790,461.82,460.35
25.18720,462.58,460.45
25.20712,465.14,457.27
25.22693,465.64,457.83
25.24684,463.91,459.55
25.26705,460.80,458.47
25.28760,460.34,456.14
25.30828,460.44,457.08
25.32764,460.69,456.90
25.34619,460.10,457.58
25.36686,460.68,459.41
25.38747,464.63,461.19
25.40776,464.32,459.81
25.42785,464.30,459.38
25.44801,464.09,461.02
25.46771,461.29,461.35
25.48785,462.84,458.44
25.50742,465.01,461.41
25.52712,462.68,460.01
25.54657,463.07,458.19
25.56721,463.21,459.32
25.58767,462.34,459.45
25.60637,462.75,457.67
25.62743,463.66,458.83
25.64761,462.14,459.69
25.66671,464.01,460.29
25.68683,462.17,460.00
25.70619,464.30,456.79
25.72808,462.28,460.44
25.74691,461.87,457.85
25.76672,463.21,460.36
25.78765,462.45,462.24
25.80675,461.91,459.73
25.82686,462.70,461.76
25.84695,461.77,461.68
25.86640,464.52,459.39
25.88794,464.80,462.13
25.90721,463.21,461.01
25.92639,461.09,462.19
25.94662,461.97,460.60
25.96740,460.83,462.66
25.98910,464.49,460.00
26.00938,463.72,459.58
26.03087,463.48,460.11
26.04924,458.74,457.07
26.07162,459.98,457.74
26.09257,458.68,458.68
26.11311,455.84,455.20
26.13384,452.81,456.05
26.15264,451.24,453.90
26.17304,452.55,452.48
26.19278,448.58,453.01
26.21392,449.13,454.53
26.23403,448.33,453.93
26.25387,446.99,451.76
26.27455,448.02,452.38
26.29558,446.37,452.55
26.31556,444.61,451.25
26.33548,447.04,450.26
26.35605,446.11,450.35
26.37596,443.40,449.42
26.39648,447.30,448.60
26.41538,445.45,446.68
26.43527,446.43,448.99
26.45585,447.61,448.37
26.47659,448.22,448.46
26.49669,445.55,445.72
26.51589,447.92,447.46
26.53545,447.67,445.54
26.55605,445.64,444.90
26.57618,445.13,448.30
26.59692,445.27,447.84
26.61715,444.02,447.99
26.63729,443.83,446.04
26.65771,443.73,446.51
26.67734,444.03,448.69
26.69633,446.39,447.59
26.71730,448.25,447.00
26.73652,446.50,445.66
26.75789,447.00,446.52
26.77645,443.69,446.18
26.79765,444.13,447.56
26.81710,443.75,449.19
26.83806,443.86,447.29
26.85615,446.50,447.42
26.87812,445.55,450.40
26.89758,449.20,450.09
26.91686,448.98,450.55
26.93643,448.04,448.90
26.95662,448.03,452.38
26.97682,445.39,452.80
26.99739,449.08,454.32
27.01616,445.53,450.70
27.03724,448.84,449.50
27.05602,446.41,451.25
27.07642,448.41,451.27
27.09712,449.56,448.18
27.11638,451.68,449.93
27.13720,449.58,449.98
27.15904,452.15,448.74
27.17728,451.61,449.90
27.19786,451.18,450.86
27.21806,450.79,449.92
27.23887,447.50,449.76
27.25835,447.06,448.11
27.27814,448.67,446.66
27.29851,450.29,450.53
27.31745,449.14,447.35
27.33889,451.78,450.82
27.35979,450.95,450.36
27.37970,453.02,450.66
27.40073,454.42,450.25
27.42102,455.82,453.05
27.44040,458.74,451.76
27.46000,459.92,452.74
27.48067,457.86,450.47
27.50099,458.97,451.63
27.52117,459.77,451.68
27.54298,460.46,450.69
27.56137,460.82,452.88
27.58284,462.67,453.67
27.60210,460.45,454.61
27.62127,462.09,453.42
27.64382,461.65,453.59
27.66302,461.37,456.14
27.68344,463.96,455.55
27.70305,465.40,456.41
27.72352,464.16,459.65
27.74365,463.87,456.86
27.76460,461.48,445.39
27.78450,460.92,429.73
27.80375,460.84,412.42
27.82355,458.39,389.42
27.84509,456.42,373.73
27.86500,457.02,361.52
27.88352,454.41,352.93
27.90447,455.14,345.62
27.92430,454.54,340.80
27.94336,454.86,338.24
27.96471,456.77,339.66
27.98408,458.50,344.46
28.00385,458.38,348.73
28.02380,460.04,357.62
28.04475,461.61,362.03
28.06423,464.74,372.45
28.08333,467.22,377.87
28.10332,466.59,382.35
28.12325,466.50,388.11
28.14377,463.09,391.54
28.16442,463.26,397.88
28.18378,461.11,401.58
28.20341,463.45,410.13
28.22372,464.44,413.85
28.24486,462.02,420.13
28.26371,464.11,423.54
28.28378,465.56,429.97
28.30373,465.50,431.23
28.32483,466.04,436.80
28.34492,465.15,440.65
28.36462,465.08,450.86
28.38445,466.38,468.35
28.40531,469.32,497.61
28.42535,472.51,529.85
28.44439,473.34,560.41
28.46458,473.11,587.49
28.48557,472.95,608.28
28.50495,474.20,623.24
28.52510,474.64,630.52
28.54432,473.89,621.83
28.56469,476.73,609.48
28.58581,472.58,593.03
28.60621,471.28,576.48
28.62659,470.69,561.82
28.64654,471.81,547.90
28.66617,468.57,532.28
28.68651,467.56,518.25
28.70495,466.78,507.69
28.72653,463.73,499.46
28.74530,463.34,495.18
28.76530,462.82,488.50
28.78527,464.85,482.52
28.80627,464.41,480.31
28.82628,464.21,473.36
28.84566,462.20,471.38
28.86509,462.65,468.74
28.88667,462.28,467.00
28.90575,463.72,468.49
28.92607,463.40,466.21
28.94799,462.67,463.90
28.96998,462.73,462.44
28.98825,460.93,461.05
29.00858,458.36,460.35
29.02969,457.44,459.83
29.04895,457.26,457.47
29.06820,457.34,458.85
29.09000,455.44,455.71
29.10939,456.66,455.48
29.12808,456.65,456.48
29.14808,457.80,456.54
29.16837,456.17,456.07
29.18972,455.77,455.56
29.21034,455.46,457.88
29.22970,455.43,457.19
29.25106,455.80,458.10
29.27317,453.05,455.72
29.29153,451.71,455.04
29.31266,450.07,453.76
29.33235,452.76,454.94
29.35247,450.58,456.21
29.37229,451.20,454.72
29.39124,449.83,454.72
29.41256,448.65,453.90
29.43304,449.25,455.68
29.45161,448.89,455.31
29.47135,447.82,454.87
29.49228,448.00,457.84
29.51318,449.68,454.55
29.53215,448.22,456.34
29.55179,446.17,458.36
29.57194,445.99,458.28
29.59197,448.59,455.23
29.61214,447.17,457.63
29.63141,448.09,456.61
29.65191,448.53,453.95
29.67276,447.95,453.22
29.69185,449.21,452.63
29.71143,446.61,451.80
29.73208,448.93,450.55
29.75212,449.42,451.74
29.77342,450.13,450.16
29.79467,450.80,449.94
29.81527,452.01,450.47
29.83536,449.10,450.14
29.85523,448.91,452.25
29.87496,450.91,450.00
29.89452,449.33,451.12
29.91596,448.13,450.27
29.93509,451.12,451.14
29.95579,449.25,448.26
29.97482,449.61,448.29
29.99457,449.26,450.17
30.01481,448.48,451.44
30.03464,446.81,451.25
30.05476,446.00,448.88
30.07452,448.30,448.62
30.09435,447.07,448.76
30.11528,447.09,449.29
30.13492,446.17,450.13
30.15426,449.09,448.49
30.17588,448.31,448.91
30.19478,446.64,449.88
30.21430,448.58,447.68
30.23458,447.53,449.15
30.25453,448.80,446.58
30.27423,446.90,447.42
30.29408,448.02,446.48
30.31482,447.14,442.88
30.33409,448.69,443.65
30.35574,449.63,442.05
30.37584,449.02,442.47
30.39500,448.26,443.30
30.41524,446.91,446.36
30.43446,449.87,444.14
30.45414,449.45,445.17
30.47495,448.79,444.16
30.49711,447.25,445.83
30.51430,449.30,447.88
30.53479,446.11,448.11
30.55519,446.19,445.38
30.57516,447.95,445.29
30.59604,449.21,445.89
30.61507,445.84,448.40
30.63590,444.95,447.79
30.65454,447.73,447.09
30.67554,446.08,448.81
30.69568,445.46,448.73
30.71569,448.37,448.63
30.73434,447.27,449.43
30.75488,445.92,446.24
30.77558,447.89,447.28
30.79459,445.42,445.52
30.81565,447.62,448.90
30.83456,448.89,447.06
30.85481,447.37,448.92
30.87408,447.39,446.20
30.89396,448.40,448.65
30.91475,448.35,448.62
30.93523,447.11,449.34
30.95535,449.71,449.39
30.97529,448.99,450.15
30.99557,447.17,448.69
31.01579,448.22,448.94
31.03546,446.66,447.70
31.05588,450.17,448.10
31.07585,447.20,448.55
31.09583,446.73,448.66
31.11415,446.94,449.04
31.13565,446.91,449.11
31.15444,446.88,449.68
31.17546,449.40,447.03
31.19500,448.45,447.04
31.21557,449.60,449.00
31.23544,447.31,448.38
31.25585,450.45,447.90
31.27428,449.23,447.28
31.29485,447.61,449.61
31.31553,448.58,446.98
31.33582,448.99,447.36
31.35506,448.18,450.07
31.37392,451.25,450.02
31.39504,447.95,450.34
31.41395,449.72,450.22
31.43569,449.57,449.93
31.45635,452.18,448.92
31.47710,453.97,447.52
31.49775,454.08,448.76
31.51956,454.54,449.14
31.54003,454.63,449.47
31.56094,457.39,452.60
31.58178,459.22,451.84
31.60037,459.25,453.04
31.62023,458.61,454.04
31.64086,461.77,456.61
31.66114,464.64,455.37
31.68181,463.20,457.47
31.70092,465.39,457.28
31.72159,467.74,455.78
31.74013,467.71,458.96
31.76103,465.54,456.76
31.78230,464.21,455.12
31.80376,464.34,455.10
31.82380,464.42,455.31
31.84224,465.22,453.56
31.86274,464.03,455.82
31.88296,465.63,455.12
31.90238,464.21,455.77
31.92230,461.93,452.62
31.94381,463.99,454.21
31.96516,464.82,455.39
31.98482,466.01,448.74
32.00597,467.68,445.65
32.02534,466.64,436.39
32.04552,470.33,431.34
32.06615,473.35,431.02
32.08674,478.60,435.03
32.10730,484.55,447.09
32.12885,485.76,460.53
32.14717,487.06,471.54
32.16827,486.30,469.99
32.18721,483.67,460.23
32.20807,479.84,439.52
32.22806,469.79,414.69
32.24799,460.80,392.16
32.26853,453.00,373.38
32.28921,445.80,356.58
32.31079,442.60,346.53
32.32991,437.23,343.58
32.35050,430.41,339.17
32.36904,430.90,340.34
32.39088,429.28,343.96
32.41181,429.47,352.50
32.43129,427.85,358.53
32.45138,427.73,367.29
32.47246,430.17,374.17
32.49252,431.31,382.46
32.51096,434.37,390.51
32.53202,433.53,395.62
32.55431,435.43,401.85
32.57364,434.94,408.35
32.59285,436.44,412.61
32.61461,440.48,425.88
32.63389,443.41,451.88
32.65308,445.39,478.99
32.67439,445.00,515.40
32.69401,448.86,543.52
32.71428,448.83,565.25
32.73359,453.68,575.07
32.75431,454.33,572.45
32.77489,453.93,562.73
32.79446,453.81,552.73
32.81403,454.05,538.67
32.83557,454.23,525.97
32.85491,452.95,516.49
32.87566,453.63,505.94
32.89701,453.22,498.57
32.91842,454.24,489.13
32.93711,456.18,484.41
32.95850,454.01,477.72
32.97851,455.73,473.26
32.99824,457.23,468.90
33.01764,457.23,465.57
33.03701,455.17,465.33
33.05798,458.59,463.74
33.07725,457.94,464.21
33.09866,456.11,460.92
33.11812,458.29,459.55
33.13763,457.52,458.80
33.15893,458.20,460.18
33.17709,457.97,459.22
33.19783,456.27,457.88
33.21683,455.62,455.96
33.23819,458.61,456.85
33.25687,456.19,456.42
33.27880,456.10,454.42
33.29784,455.34,454.12
33.31757,456.70,454.65
33.33858,458.57,456.62
33.35851,458.38,452.98
33.37867,457.34,451.50
33.39789,459.75,451.36
33.41805,457.14,450.55
33.43716,458.93,452.44
33.45751,457.81,451.50
33.47846,456.80,451.08
33.49859,461.42,454.07
33.51784,458.30,452.61
33.53858,461.94,453.41
33.55780,460.03,451.27
33.57706,459.95,453.11
33.59835,459.41,452.65
33.61834,460.25,454.07
33.63768,461.75,454.47
33.65831,459.26,452.88
33.67837,462.15,456.33
33.69727,459.99,456.15
33.71801,461.50,456.71
33.73884,458.20,457.23
33.75895,460.17,457.61
33.77761,461.04,455.73
33.79778,458.27,455.01
33.81787,458.89,453.78
33.83876,459.76,455.08
33.85731,461.21,453.77
33.87848,458.99,455.14
33.89896,461.02,453.42
33.91838,459.72,453.80
33.93739,459.35,453.19
33.95845,459.54,452.83
33.97690,459.30,451.97
33.99764,458.19,452.44
34.01829,461.05,452.24
34.03842,460.33,453.88
34.05806,459.23,455.11
34.07836,462.21,455.57
34.09815,459.79,452.62
34.11920,463.63,452.47
34.13955,463.71,452.41
34.16081,462.15,453.14
34.17998,461.10,454.04
34.20006,461.80,456.89
34.22160,461.09,453.87
34.24115,462.00,455.48
34.26160,465.60,458.29
34.28075,462.84,457.32
34.30054,463.37,457.83
34.31993,462.00,458.17
34.34270,465.06,456.51
34.36159,463.37,457.30
34.38377,464.00,457.97
34.40201,463.28,458.24
34.42194,464.32,458.39
34.44353,464.67,459.51
34.46365,461.08,458.49
34.48400,461.50,459.81
34.50519,464.07,458.37
34.52549,463.63,459.09
34.54576,458.97,458.50
34.56582,460.66,457.13
34.58657,457.27,456.60
34.60509,456.86,459.10
34.62589,457.41,455.52
34.64574,459.80,456.99
34.66509,458.49,454.95
34.68680,456.41,452.35
34.70719,458.50,452.21
34.72598,454.18,453.05
34.74715,453.09,452.94
34.76686,451.51,451.70
34.78654,455.00,451.17
34.80694,452.21,454.12
34.82843,453.34,451.57
34.84961,454.18,454.04
34.87005,453.23,450.73
34.88822,451.81,453.96
34.90967,451.27,451.53
34.92952,450.15,453.67
34.94848,449.43,451.84
34.96955,446.77,452.08
34.98948,446.89,451.70
35.00925,449.56,451.27
35.02924,448.39,453.83
35.04823,449.52,451.18
35.06870,449.91,451.80
35.08788,448.74,452.82
35.10822,449.97,450.38
35.12910,447.17,452.73
35.14956,446.98,453.42
35.16889,446.22,450.07
35.19065,446.78,452.74
35.21069,447.92,450.79
35.23035,445.70,450.27
35.25023,445.07,450.59
35.27075,446.71,450.97
35.28996,443.48,447.23
35.31076,445.41,449.85
35.33121,442.83,447.53
35.35165,445.97,446.93
35.37035,446.53,447.13
35.39149,443.46,446.29
35.41180,446.02,446.62
35.43114,445.35,447.30
35.45120,442.47,448.27
35.47052,442.94,449.58
35.49177,444.33,445.96
35.51183,443.97,449.33
35.53177,443.94,447.22
35.55105,444.69,448.94
35.57023,445.13,447.30
35.59050,443.33,445.85
35.61181,446.47,448.19
35.62982,444.75,446.58
35.65140,443.70,446.89
35.67007,444.79,448.26
35.69176,448.20,448.76
35.70993,446.68,445.79
35.73126,448.57,446.99
35.74993,445.64,449.99
35.77132,447.45,446.76
35.78988,450.78,446.73
35.81006,446.98,449.15
35.83026,450.80,450.53
35.85177,448.29,449.75
35.87101,446.31,451.11
35.89092,448.26,447.85
35.91009,446.53,449.09
35.93029,445.84,449.57
35.95151,447.64,451.57
35.97096,445.67,449.58
35.99142,446.20,450.52
36.01013,448.19,450.39
36.03077,448.70,450.21
36.05101,448.08,448.57
36.07168,445.91,447.86
36.09169,445.94,449.09
36.11088,447.58,450.15
36.13006,445.06,448.46
36.14988,444.54,446.45
36.17117,446.40,446.36
36.19041,446.17,445.11
36.21121,448.55,448.38
36.23043,447.51,449.49
36.25010,445.34,447.69
36.27106,446.41,448.21
36.29113,444.91,447.41
36.31052,443.78,444.80
36.33173,442.90,436.11
36.35094,444.73,416.39
36.37133,441.98,398.10
36.39100,437.80,377.59
36.41022,437.11,361.97
36.43143,432.28,350.79
36.45182,430.74,339.59
36.47226,430.66,336.02
36.49278,430.24,332.61
36.51198,431.70,332.99
36.53262,431.51,339.18
36.55263,432.14,343.93
36.57181,437.04,346.76
36.59159,435.70,352.68
36.61368,438.01,360.63
36.63325,441.29,370.75
36.65312,445.49,380.61
36.67312,448.83,385.89
36.69339,448.50,393.30
36.71544,451.72,403.33
36.73653,455.75,407.89
36.75594,458.29,414.04
36.77763,462.28,417.91
36.79826,461.29,425.63
36.81860,464.21,428.09
36.83825,464.75,434.39
36.85795,466.28,438.03
36.87886,466.46,437.08
36.89693,465.85,441.01
36.91974,468.48,452.18
36.93812,468.24,472.06
36.95972,470.14,506.09
36.97877,474.23,544.50
36.99855,476.45,577.09
37.01988,475.87,603.74
37.03924,479.48,619.41
37.05873,477.89,620.26
37.07994,477.11,611.24
37.09925,474.84,596.75
37.11813,474.50,581.49
37.13964,470.50,565.07
37.15849,469.91,550.37
37.17861,469.90,536.67
37.19911,468.28,523.60
37.22034,467.88,511.26
37.23918,467.71,504.48
37.25999,468.40,495.41
37.27959,467.02,488.27
37.30043,467.85,483.53
37.32060,463.58,477.41
37.34054,462.54,474.85
37.36136,465.05,473.62
37.38174,464.06,469.97
37.40020,460.98,468.95
37.42108,464.05,467.65
37.44146,463.27,465.49
37.46012,461.68,463.35
37.48154,463.96,463.24
37.50189,461.99,459.66
37.52045,463.90,458.39
37.54197,463.77,458.12
37.56003,462.51,457.72
37.58120,462.36,457.04
37.60170,462.44,460.41
37.62017,466.26,459.91
37.64020,464.78,458.20
37.66012,464.36,458.53
37.68156,461.78,457.34
37.70122,462.10,458.12
37.72074,465.15,458.77
37.74168,463.78,457.36
37.76092,465.36,459.92
37.78051,462.55,457.91
37.80054,466.05,458.97
37.81997,462.99,459.92
37.84145,462.71,459.35
37.86035,463.06,459.84
37.88113,465.87,461.60
37.90053,465.33,459.10
37.92074,467.14,460.15
37.94005,463.63,461.12
37.96071,465.96,462.46
37.98201,465.47,459.05
38.00265,466.34,462.67
38.02099,464.08,461.52
38.04136,463.02,462.32
38.06267,464.72,462.14
38.08300,463.52,463.29
38.10319,463.42,463.00
38.12181,460.55,463.99
38.14191,463.08,462.41
38.16322,461.93,462.81
38.18305,461.01,462.53
38.20284,461.75,461.54
38.22216,462.62,460.27
38.24373,460.61,459.72
38.26369,459.74,460.56
38.28282,463.31,459.62
38.30358,463.37,462.72
38.32268,462.98,461.87
38.34253,464.09,458.06
38.36217,463.44,458.67
38.38391,459.39,458.44
38.40268,459.80,459.49
38.42237,459.84,458.09
38.44299,458.78,457.59
38.46311,459.71,459.06
38.48279,459.95,460.67
38.50362,459.24,458.08
38.52383,460.22,458.98
38.54216,459.15,457.95
38.56303,461.40,457.79
38.58326,461.67,459.44
38.60211,460.78,457.61
38.62288,462.19,457.09
38.64374,461.92,460.40
38.66196,459.58,458.99
38.68327,460.17,456.31
38.70302,459.87,460.44
38.72310,461.44,460.08
38.74227,461.15,458.61
38.76321,460.05,458.93
38.78197,458.48,462.12
38.80189,457.79,462.31
38.82290,459.47,460.16
38.84229,459.06,461.52
38.86330,461.24,459.28
38.88202,460.87,459.65
38.90338,461.95,460.61
38.92314,460.35,460.76
38.94313,461.88,459.24
38.96365,459.76,459.08
38.98181,459.99,457.70
39.00241,459.76,454.10
39.02302,460.68,455.70
39.04288,460.07,458.27
39.06364,460.81,458.00
39.08274,458.11,454.51
39.10207,460.40,455.81
39.12230,459.39,456.48
39.14275,458.29,458.94
39.16361,456.88,455.74
39.18295,456.97,457.72
39.20498,459.12,456.04
39.22462,457.76,458.25
39.24306,459.46,456.82
39.26393,459.26,459.01
39.28457,460.25,455.81
39.30350,458.08,457.22
39.32396,459.33,459.05
39.34401,458.24,455.77
39.36378,459.55,455.34
39.38552,459.10,459.18
39.40564,456.96,456.12
39.42508,455.93,458.89
39.44457,456.71,459.12
39.46519,453.66,458.67
39.48462,453.18,456.14
39.50547,453.51,457.90
39.52524,453.55,458.27
39.54392,455.05,458.37
39.56472,454.67,458.47
39.58662,452.58,454.50
39.60496,451.47,453.95
39.62672,448.82,454.44
39.64515,447.47,454.67
39.66663,449.06,455.80
39.68638,446.67,454.33
39.70561,448.87,453.94
39.72486,448.42,455.00
39.74510,447.16,456.96
39.76596,447.99,454.23
39.78826,448.53,455.17
39.80822,448.53,451.27
39.82842,444.77,453.38
39.84824,445.45,449.44
39.86804,445.22,450.70
39.88933,446.56,450.95
39.90846,444.53,448.92
39.92882,446.24,451.83
39.94897,447.35,449.25
39.96910,444.93,449.49
39.98794,445.32,450.71
40.00920,445.74,449.07
40.02941,448.10,450.57
40.04835,447.20,449.38
40.06825,446.49,449.81
40.09059,448.79,450.26
40.11157,449.23,449.10
40.13181,447.51,450.98
40.15076,446.52,449.10
40.17056,449.73,448.00
40.18994,449.84,449.90
40.20989,450.64,448.86
40.23255,447.38,450.07
40.25265,450.41,449.10
40.27152,449.97,448.50
40.29234,449.71,445.52
40.31199,451.34,445.19
40.33198,452.77,447.28
40.35229,451.56,446.91
40.37256,451.67,447.58
40.39080,451.45,448.63
40.41078,451.53,446.83
40.43143,452.53,448.47
40.45105,452.50,452.14
40.47201,449.73,451.16
40.49243,452.64,453.44
40.51099,451.05,449.91
40.53280,452.57,453.11
40.55182,450.10,449.26
40.57073,451.31,449.68
40.59203,452.60,448.59
40.61297,451.11,449.66
40.63171,453.11,451.21
40.65272,450.89,449.37
40.67327,450.63,451.59
40.69206,451.40,449.99
40.71263,452.53,453.95
40.73279,452.28,448.68
40.75318,449.13,435.00
40.77210,445.09,414.73
40.79201,441.99,398.64
40.81259,437.63,379.00
40.83272,435.82,362.92
40.85266,435.47,350.19
40.87346,436.69,340.92
40.89223,435.22,338.00
40.91270,438.16,333.09
40.93282,439.54,334.54
40.95182,440.99,336.45
40.97240,444.34,341.65
40.99352,444.05,346.92
41.01292,447.32,354.35
41.03292,449.73,362.99
41.05285,451.27,370.52
41.07285,452.27,379.93
41.09358,452.82,388.08
41.11195,456.49,396.17
41.13303,456.60,402.17
41.15289,453.71,409.43
41.17251,456.82,414.77
41.19223,456.37,422.19
41.21272,455.63,425.30
41.23195,457.09,431.75
41.25213,453.60,436.43
41.27356,456.26,454.93
41.29278,457.76,475.70
41.31368,455.61,509.04
41.33181,458.20,544.22
41.35318,458.40,568.14
41.37276,464.03,587.13
41.39379,467.00,599.91
41.41338,466.61,598.51
41.43285,466.54,588.69
41.45374,468.61,575.67
41.47184,467.03,565.47
41.49203,464.73,547.96
41.51314,462.62,536.33
41.53212,465.06,525.24
41.55269,460.76,513.29
41.57211,463.30,506.83
41.59330,462.39,499.41
41.61215,458.62,489.67
41.63351,459.36,484.78
41.65347,459.19,482.96
41.67243,458.73,479.73
41.69330,459.26,475.96
41.71338,458.63,473.40
41.73270,460.85,471.71
41.75339,460.65,469.85
41.77348,458.66,468.18
41.79296,461.31,467.45
41.81317,457.44,464.77
41.83289,460.13,463.20
41.85262,456.06,462.44
41.87270,455.85,463.26
41.89286,456.15,459.05
41.91348,457.66,458.15
41.93262,458.62,461.13
41.95289,458.36,457.74
41.97560,456.63,458.09
41.99491,459.43,461.08
42.01414,459.57,458.79
42.03409,463.38,457.96
42.05419,464.81,459.43
42.07616,463.78,459.66
42.09491,464.52,460.37
42.11678,464.62,456.91
42.13481,465.35,457.77
42.15556,463.59,460.08
42.17612,462.93,457.44
42.19483,463.89,460.11
42.21549,463.74,459.80
42.23556,462.62,459.87
42.25546,463.16,461.21
42.27552,465.01,459.85
42.29496,464.23,461.15
42.31582,464.38,459.03
42.33478,462.91,458.75
42.35537,464.97,460.81
42.37560,463.81,459.33
42.39653,465.13,460.29
42.41510,465.82,458.15
42.43575,462.77,458.79
42.45507,465.29,461.28
42.47571,464.71,459.59
42.49618,464.64,459.14
42.51611,464.32,462.31
42.53579,464.96,460.42
42.55666,465.08,460.56
42.57597,464.82,462.80
42.59701,463.28,461.22
42.61712,462.87,461.55
42.63586,465.58,460.24
42.65594,465.21,461.45
42.67618,465.92,459.54
42.69776,465.21,460.91
42.71635,463.83,460.95
42.73779,464.95,458.94
42.75752,463.15,460.13
42.77695,461.56,460.64
42.79749,460.70,460.07
42.81707,463.49,459.12
42.83718,462.42,459.65
42.85689,463.39,457.50
42.87723,463.25,457.52
42.89600,462.17,457.38
42.91599,464.98,457.56
42.93598,465.33,460.57
42.95733,464.11,457.79
42.97706,466.17,457.38
42.99659,465.60,459.03
43.01720,465.16,456.97
43.03645,466.39,458.00
43.05749,468.68,457.33
43.07704,463.53,457.17
43.09716,463.51,456.60
43.11620,464.20,456.22
43.13748,464.41,459.72
43.15696,463.09,458.32
43.17766,463.31,463.32
43.19630,468.07,472.85
43.21730,468.92,490.98
43.23576,475.62,519.57
43.25604,475.83,546.59
43.27737,484.79,568.05
43.29630,489.22,583.96
43.31654,490.03,588.87
43.33607,491.34,584.65
43.35618,493.23,566.70
43.37753,492.07,545.21
43.39611,488.93,513.48
43.41832,481.04,481.06
43.43776,475.94,449.48
43.45719,474.05,423.48
43.47859,467.89,406.79
43.49765,464.75,396.82
43.51804,465.66,393.77
43.53828,465.72,396.93
43.55815,464.94,404.40
43.57731,461.44,421.43
43.59762,465.42,445.51
43.61834,465.88,466.07
43.63811,469.90,486.16
43.65831,472.52,500.49
43.67842,471.22,507.01
43.69819,474.57,506.72
43.71726,475.02,491.55
43.73693,472.34,470.13
43.75823,466.18,439.44
43.77829,461.90,415.08
43.79854,453.32,390.26
43.82014,447.70,370.74
43.83911,441.19,357.93
43.85990,434.02,349.77
43.87924,428.63,352.20
43.90005,425.60,356.09
43.92042,426.03,366.80
43.93901,424.53,375.81
43.96160,427.31,385.12
43.98093,428.32,396.76
43.99967,429.92,406.85
44.02023,431.50,423.59
44.04010,432.79,448.52
44.06024,437.33,488.21
44.08059,442.94,540.24
44.10035,458.94,591.34
44.12100,470.68,630.63
44.14037,484.95,661.75
44.16070,489.84,680.79
44.18150,495.40,686.81
44.20046,498.71,675.21
44.22177,501.37,653.55
44.23963,497.40,621.07
44.26161,489.46,579.50
44.28042,480.24,535.53
44.30015,473.45,496.13
44.32146,463.92,455.77
44.34136,459.20,425.94
44.36151,453.77,396.77
44.38037,451.47,375.02
44.40076,447.09,357.57
44.42087,448.17,344.59
44.44031,447.10,335.66
44.46024,442.92,330.85
44.48169,446.00,327.89
44.50030,443.60,326.01
44.51964,447.35,337.70
44.53990,446.14,365.37
44.56119,445.07,400.45
44.58111,443.47,437.13
44.60158,444.98,470.56
44.62130,449.24,494.43
44.64277,450.68,496.37
44.66093,450.59,492.59
44.68087,451.84,484.60
44.70234,449.46,474.67
44.72110,450.17,463.48
44.74232,455.42,458.02
