Program Time [s],data 0,data 1
4.73963,407.30,472.96
4.76047,408.39,472.74
4.77946,405.99,474.18
4.79958,407.46,474.10
4.81940,409.34,475.17
4.84078,408.85,474.62
4.86164,409.89,473.62
4.88012,406.81,472.07
4.90080,405.33,471.64
4.92067,409.06,471.57
4.94064,408.69,471.72
4.96052,404.10,471.20
4.98011,405.21,468.36
5.00223,405.60,471.33
5.02203,404.77,470.53
5.04151,400.62,471.90
5.06364,400.30,471.41
5.08176,400.96,473.91
5.10370,399.75,472.66
5.12357,399.91,472.10
5.14210,398.54,468.22
5.16292,400.34,468.27
5.18221,399.81,468.20
5.20330,402.92,468.66
5.22323,401.12,469.44
5.24242,400.29,465.55
5.26438,399.62,459.28
5.28327,399.91,458.69
5.30359,399.63,455.97
5.32390,397.13,457.86
5.34372,395.66,455.33
5.36383,394.76,458.46
5.38332,397.02,456.30
5.40303,398.72,457.02
5.42484,394.09,459.93
5.44468,393.54,460.75
5.46369,393.53,462.87
5.48385,392.22,462.24
5.50454,394.16,462.32
5.52322,393.58,464.77
5.54419,393.14,464.21
5.56473,395.21,463.73
5.58386,397.68,463.44
5.60297,399.40,462.64
5.62349,398.73,461.93
5.64481,401.71,463.63
5.66467,399.26,459.18
5.68428,397.61,459.96
5.70468,400.61,458.95
5.72390,398.18,459.16
5.74446,401.36,458.86
5.76384,397.95,461.10
5.78298,399.59,461.00
5.80326,395.68,463.24
5.82438,396.44,463.31
5.84402,394.57,462.65
5.86394,395.81,463.87
5.88468,395.19,466.91
5.90346,393.81,466.39
5.92292,395.08,471.62
5.94310,398.11,472.79
5.96295,399.28,473.27
5.98401,400.35,476.20
6.00310,399.04,471.69
6.02414,401.88,473.54
6.04304,402.37,472.10
6.06390,402.60,470.75
6.08413,402.58,467.39
6.10361,403.35,467.49
6.12406,405.15,464.40
6.14344,404.49,465.33
6.16457,403.30,473.15
6.18349,398.74,485.14
6.20351,398.56,497.65
6.22455,396.51,502.24
6.24454,396.98,501.68
6.26415,393.23,495.17
6.28370,392.63,493.15
6.30456,392.25,491.65
6.32387,392.47,486.80
6.34308,391.61,483.13
6.36295,393.11,477.38
6.38378,395.66,474.52
6.40302,393.64,472.30
6.42503,396.96,471.46
6.44296,398.70,471.04
6.46401,398.82,467.40
6.48438,400.21,466.07
6.50355,396.54,466.54
6.52323,396.76,465.81
6.54281,397.60,466.52
6.56368,397.75,466.26
6.58278,400.26,467.51
6.60320,398.58,466.33
6.62331,399.66,465.66
6.64454,401.35,464.91
6.66297,398.93,463.55
6.68390,398.87,462.16
6.70401,399.87,464.11
6.72340,400.13,464.89
6.74280,400.59,464.08
6.76427,402.07,460.59
6.78333,401.85,463.43
6.80468,401.71,461.58
6.82406,402.82,459.56
6.84505,401.30,462.58
6.86535,399.79,457.34
6.88547,399.34,450.20
6.90558,401.78,435.94
6.92461,400.85,419.39
6.94480,400.13,400.18
6.96488,397.59,386.57
6.98485,395.72,377.23
7.00463,395.39,372.08
7.02480,398.46,369.28
7.04521,395.82,369.72
7.06458,393.93,371.12
7.08381,395.57,379.36
7.10561,396.15,386.91
7.12483,393.02,393.50
7.14467,394.94,398.78
7.16411,393.19,404.17
7.18546,393.64,410.33
7.20386,398.25,419.66
7.22516,395.19,424.48
7.24608,397.90,431.29
7.26641,397.63,436.31
7.28562,396.14,441.16
7.30503,396.26,443.94
7.32667,398.80,447.03
7.34624,398.73,451.81
7.36608,398.05,452.61
7.38495,400.90,454.16
7.40643,401.52,456.73
7.42656,401.54,459.88
7.44541,400.35,462.08
7.46496,398.35,460.63
7.48582,400.54,464.25
7.50606,397.65,465.36
7.52655,401.51,465.24
7.54521,398.31,467.35
7.56611,397.84,468.49
7.58521,398.43,468.85
7.60565,397.75,468.13
7.62674,400.99,466.09
7.64675,398.93,466.74
7.66513,401.66,464.20
7.68504,399.00,464.32
7.70630,401.43,465.88
7.72542,399.24,464.67
7.74499,399.48,473.41
7.76642,401.38,491.32
7.78489,404.30,521.08
7.80658,407.51,559.32
7.82583,408.44,587.18
7.84581,411.46,599.39
7.86565,409.62,603.15
7.88592,409.47,597.16
7.90523,406.97,586.18
7.92659,405.82,571.59
7.94591,401.52,555.96
7.96619,402.37,542.28
7.98672,402.29,531.76
8.00496,400.46,522.54
8.02599,402.50,514.73
8.04665,401.42,506.58
8.06654,400.90,500.53
8.08484,401.15,496.20
8.10536,401.18,492.05
8.12626,399.07,488.85
8.14553,401.10,486.68
8.16635,399.95,483.41
8.18558,398.83,478.78
8.20525,401.82,478.70
8.22753,400.23,476.90
8.24713,402.88,475.17
8.26649,400.66,473.85
8.28621,400.61,475.50
8.30637,402.98,475.24
8.32648,401.84,474.50
8.34729,404.52,476.12
8.36634,402.07,474.84
8.38605,402.24,473.96
8.40770,401.71,473.70
8.42578,403.71,475.78
8.44645,401.97,472.44
8.46606,403.49,475.95
8.48767,401.32,473.05
8.50653,401.19,474.29
8.52725,405.35,475.14
8.54736,403.42,473.88
8.56624,403.47,475.40
8.58780,404.47,473.49
8.60569,402.96,475.28
8.62758,404.52,473.47
8.64759,402.43,472.19
8.66591,405.50,472.65
8.68671,403.65,472.71
8.70710,402.92,474.32
8.72736,403.61,470.73
8.74692,404.26,471.49
8.76701,402.51,468.90
8.78765,403.06,470.43
8.80579,403.53,471.23
8.82759,402.70,468.83
8.84646,402.76,472.11
8.86692,402.14,463.69
8.88661,400.42,453.32
8.90612,399.80,439.26
8.92745,397.68,418.90
8.94598,393.64,401.97
8.96678,392.74,385.16
8.98584,389.51,374.28
9.00726,388.28,367.08
9.02585,389.00,367.08
9.04674,391.97,366.71
9.06583,391.14,369.34
9.08608,392.57,378.08
9.10658,394.10,385.24
9.12635,395.51,391.89
9.14663,394.68,401.32
9.16668,397.22,410.20
9.18722,396.97,416.05
9.20732,397.32,421.51
9.22753,400.93,431.98
9.24628,398.45,437.14
9.26775,399.50,442.57
9.28612,402.34,444.21
9.30708,403.09,449.16
9.32658,403.39,451.65
9.34582,401.38,454.98
9.36641,402.42,458.07
9.38644,400.70,464.19
9.40721,404.07,463.93
9.42674,402.15,466.62
9.44658,402.66,467.30
9.46723,400.91,469.28
9.48678,403.21,469.47
9.50634,402.99,470.63
9.52675,403.21,467.91
9.54668,404.16,472.01
9.56711,404.00,470.24
9.58661,403.77,471.67
9.60673,404.62,472.61
9.62638,405.66,475.91
9.64724,406.73,480.91
9.66784,408.20,482.22
9.68653,408.51,482.15
9.70782,404.44,482.87
9.72800,408.26,482.35
9.74763,406.60,479.60
9.76963,409.86,481.82
9.78894,406.21,489.06
9.80937,408.40,507.56
9.83038,412.30,537.82
9.84943,415.60,560.84
9.86945,416.06,581.36
9.88999,417.95,600.06
9.90954,417.87,601.01
9.92889,419.87,598.75
9.95052,419.60,585.24
9.96916,414.64,574.08
9.99046,416.06,559.61
10.00886,411.91,549.41
10.02951,413.54,537.17
10.05031,413.72,526.42
10.06883,410.10,519.22
10.08952,412.51,513.54
10.10905,411.72,509.32
10.13006,407.14,502.68
10.15030,407.46,499.13
10.17053,406.80,496.24
10.19059,408.53,493.32
10.20952,408.78,490.04
10.23021,404.97,485.61
10.24933,408.16,485.61
10.27013,407.42,484.62
10.28915,405.85,480.32
10.30979,405.55,479.01
10.32925,403.93,477.39
10.34890,404.71,477.55
10.36977,404.59,479.40
10.38907,400.46,478.22
10.40941,404.27,475.96
10.43031,404.62,477.43
10.44915,400.88,476.81
10.46865,401.52,475.64
10.49038,400.28,474.69
10.50979,401.65,474.58
10.52873,398.80,474.19
10.54913,400.23,472.83
10.57034,402.00,472.37
10.58984,400.61,472.51
10.60923,398.75,472.86
10.62977,401.04,474.78
10.65015,399.94,472.68
10.66886,401.50,474.18
10.69053,400.38,470.70
10.70998,400.59,472.47
10.72915,402.20,469.10
10.74927,402.13,471.97
10.76897,402.39,470.94
10.78913,403.34,475.92
10.80888,406.09,476.25
10.82950,405.81,469.62
10.85012,405.35,461.86
10.86957,400.45,447.15
10.88985,399.53,434.32
10.91024,397.56,421.80
10.93008,397.16,409.84
10.94938,393.41,398.32
10.96921,394.81,386.70
10.99016,392.51,379.49
11.00971,395.24,375.40
11.03014,394.96,371.65
11.05022,393.79,372.09
11.07063,395.28,374.94
11.08963,395.18,381.60
11.10989,395.66,383.09
11.12968,396.71,390.14
11.14981,395.28,398.24
11.17022,397.19,403.22
11.18923,397.08,412.23
11.21023,397.88,418.61
11.23059,399.27,423.84
11.24893,398.31,429.68
11.26993,397.35,436.37
11.28999,399.21,442.21
11.30899,398.93,442.66
11.32956,398.21,447.64
11.34978,401.77,453.86
11.37040,400.31,454.92
11.39008,400.14,457.31
11.41009,400.54,460.13
11.43035,399.19,458.93
11.44963,400.39,462.28
11.47047,402.38,462.60
11.48970,400.16,463.92
11.51052,401.86,464.95
11.52979,401.64,465.43
11.55010,401.46,467.67
11.56896,400.07,468.54
11.59031,403.00,468.87
11.61054,402.83,468.75
11.62976,404.14,469.90
11.64929,403.50,467.29
11.67053,403.68,471.20
11.68931,404.00,468.39
11.70946,401.81,469.52
11.73033,402.45,469.56
11.75007,401.04,471.86
11.76937,399.12,469.02
11.79046,401.62,470.60
11.81002,400.87,471.49
11.82895,402.32,472.48
11.84985,401.36,483.83
11.87017,404.82,507.40
11.88883,407.13,536.90
11.90878,409.21,569.09
11.93047,408.55,592.47
11.94936,409.02,612.51
11.97012,407.73,621.52
11.98902,405.28,618.88
12.01029,406.07,607.48
12.03009,405.77,590.74
12.05074,403.97,574.66
12.07131,402.61,556.55
12.09112,401.15,543.53
12.11094,401.98,533.33
12.13204,401.75,521.63
12.15170,401.26,510.09
12.17182,400.72,504.98
12.19209,400.71,497.82
12.21263,399.58,492.40
12.23292,400.68,487.57
12.25339,397.26,484.81
12.27208,398.87,482.54
12.29290,397.73,478.90
12.31299,397.28,475.61
12.33264,399.47,476.71
12.35210,401.14,474.61
12.37202,400.27,472.07
12.39238,400.82,470.62
12.41321,402.62,472.11
12.43317,402.75,469.55
12.45389,401.42,468.61
12.47359,402.55,467.63
12.49433,404.48,465.16
12.51456,403.44,464.22
12.53451,402.86,463.17
12.55298,402.32,465.07
12.57435,400.18,463.63
12.59428,402.35,465.53
12.61314,403.63,463.60
12.63292,402.52,465.14
12.65268,400.69,467.71
12.67468,400.77,463.68
12.69356,400.28,466.33
12.71451,400.47,463.80
12.73363,400.65,463.75
12.75345,400.48,465.38
12.77460,397.89,463.87
12.79360,398.95,465.01
12.81369,399.85,466.02
12.83416,399.51,466.41
12.85406,398.26,465.42
12.87536,398.07,462.97
12.89388,398.84,459.75
12.91433,400.89,457.14
12.93463,398.56,454.20
12.95454,401.32,457.32
12.97418,398.07,455.83
12.99469,401.23,456.26
13.01446,401.99,460.19
13.03509,400.90,459.90
13.05473,400.89,461.16
13.07511,402.03,461.75
13.09402,402.31,462.98
13.11518,400.47,461.60
13.13530,403.82,464.23
13.15362,403.13,457.00
13.17532,403.61,449.18
13.19507,402.73,442.18
13.21404,400.49,427.24
13.23502,398.59,416.38
13.25492,397.94,406.26
13.27463,394.04,398.70
13.29449,392.28,390.93
13.31517,391.78,387.87
13.33529,389.71,382.02
13.35547,392.03,382.23
13.37492,388.43,383.95
13.39386,390.05,386.36
13.41393,392.91,386.52
13.43536,391.88,390.66
13.45405,395.63,396.46
13.47384,394.76,403.60
13.49393,397.32,408.25
13.51437,399.51,414.30
13.53510,397.81,420.75
13.55508,399.93,427.90
13.57379,400.51,434.03
13.59366,398.70,438.56
13.61458,398.35,441.80
13.63391,399.23,442.64
13.65534,398.36,446.74
13.67513,400.08,450.06
13.69546,399.51,452.53
13.71487,398.73,453.72
13.73374,397.73,454.78
13.75465,399.07,457.21
13.77522,400.62,457.27
13.79502,405.21,461.13
13.81539,405.29,459.63
13.83618,404.22,462.54
13.85587,407.11,463.73
13.87517,407.75,465.01
13.89598,406.69,464.16
13.91484,405.00,467.12
13.93646,406.66,467.44
13.95474,403.30,467.16
13.97545,403.05,468.76
13.99634,404.30,466.83
14.01656,402.21,469.56
14.03605,403.76,470.31
14.05684,405.36,469.32
14.07565,403.55,471.23
14.09733,404.38,473.10
14.11706,405.48,471.80
14.13671,404.47,473.07
14.15691,404.52,475.73
14.17682,406.78,472.99
14.19609,405.28,474.09
14.21626,402.33,472.82
14.23707,404.15,469.88
14.25612,406.18,470.47
14.27735,405.03,471.46
14.29596,404.88,476.29
14.31598,406.85,494.74
14.33802,410.37,522.52
14.35814,408.26,551.61
14.37825,407.16,574.33
14.39677,408.72,586.39
14.41839,410.42,599.98
14.43856,410.03,603.44
14.45674,411.46,598.77
14.47829,410.51,587.92
14.49751,408.94,573.45
14.51811,409.49,561.01
14.53795,410.06,546.38
14.55776,405.47,533.88
14.57819,405.47,526.12
14.59745,405.44,519.03
14.61856,402.85,508.82
14.63825,404.01,504.28
14.65834,405.02,496.16
14.67834,405.70,494.84
14.69815,402.83,488.74
14.71789,404.78,487.85
14.73851,406.90,483.63
14.75754,408.82,481.33
14.77651,407.05,479.79
14.79746,406.71,477.47
14.81688,408.15,475.90
14.83739,407.90,473.84
14.85814,406.43,474.11
14.87855,406.72,474.23
14.89745,408.68,474.12
14.91821,407.29,469.97
14.93847,405.06,472.78
14.95893,404.69,471.28
14.97839,405.14,472.11
14.99817,404.20,470.53
15.01785,404.66,471.86
15.03787,405.25,470.38
15.05800,405.46,470.97
15.07846,405.67,471.42
15.09772,403.73,470.49
15.11786,403.54,471.17
15.13886,402.67,468.14
15.15766,405.19,471.46
15.17932,404.50,468.63
15.19950,404.32,470.93
15.21846,402.61,472.05
15.23902,401.58,470.91
15.25818,401.76,469.08
15.27862,402.47,464.43
15.29804,399.96,459.31
15.31901,392.84,450.74
15.33781,390.21,436.99
15.35951,389.59,429.03
15.37770,385.53,417.32
15.39843,383.60,407.89
15.41760,384.88,400.41
15.43849,383.90,394.77
15.45882,386.95,389.04
15.47816,392.87,386.74
15.49856,395.92,381.99
15.51917,397.68,381.15
15.53892,398.39,385.15
15.55925,400.25,384.36
15.57928,401.64,387.80
15.59920,405.70,392.70
15.61839,405.14,394.98
15.63874,408.29,403.38
15.65811,408.14,405.95
15.67947,408.07,411.31
15.69775,409.24,417.73
15.71850,409.08,424.23
15.73763,409.17,431.19
15.75846,406.51,432.53
15.77765,409.34,438.98
15.79763,407.76,442.93
15.81866,406.46,446.38
15.83926,403.85,451.15
15.85901,404.31,452.38
15.87776,406.16,460.33
15.89906,406.69,461.11
15.91794,405.46,464.18
15.93819,405.21,467.13
15.95938,404.62,469.38
15.97925,404.41,469.97
15.99838,405.00,469.54
16.01922,405.14,471.05
16.03866,401.59,471.26
16.05864,403.75,469.81
16.07843,404.81,471.63
16.09868,403.01,472.12
16.11798,402.93,471.48
16.13775,405.04,469.68
16.15898,403.25,470.73
16.17814,403.92,473.55
16.19870,403.85,474.14
16.21785,403.86,478.11
16.23770,404.76,475.68
16.25857,404.47,475.99
16.27946,401.74,477.20
16.29929,402.01,476.50
16.31878,400.47,473.84
16.33937,401.30,475.36
16.35859,399.42,473.20
16.37824,401.82,472.77
16.39780,400.69,471.53
16.41903,401.09,471.83
16.43814,402.77,468.61
16.45948,404.59,465.60
16.47765,404.34,466.66
16.49948,401.34,465.16
16.51814,399.75,461.32
16.53818,402.92,464.20
16.55791,401.93,460.70
16.57869,401.81,461.47
16.59859,400.98,461.34
16.61825,402.80,463.56
16.63919,399.35,462.89
16.65949,401.24,464.63
16.67780,399.52,463.82
16.69761,401.29,463.41
16.71764,401.92,466.97
16.73806,401.98,464.29
16.75863,399.58,465.67
16.77867,401.32,465.70
16.79751,400.17,473.57
16.81902,402.99,496.69
16.83852,404.48,526.68
16.85873,405.56,556.49
16.87885,406.53,584.06
16.89987,407.35,596.88
16.91889,406.68,600.29
16.94006,406.82,593.56
16.95985,406.76,583.84
16.97974,405.60,569.95
16.99884,403.76,554.91
17.01975,403.53,545.03
17.03967,401.38,532.35
17.05858,403.33,521.59
17.07856,400.46,514.17
17.09921,401.45,505.33
17.11902,398.87,501.32
17.13966,401.05,495.50
17.16008,400.52,488.09
17.17885,399.18,485.70
17.19971,401.33,480.92
17.21867,401.34,475.22
17.24002,401.34,472.66
17.25946,402.37,471.42
17.28002,400.56,470.28
17.29886,399.63,468.61
17.31968,401.31,466.70
17.33945,401.73,464.34
17.36010,401.69,462.83
17.38101,401.53,465.48
17.40115,399.99,463.61
17.42052,400.92,462.29
17.44040,400.37,462.27
17.46206,399.53,463.10
17.48223,400.13,462.84
17.50068,397.63,462.84
17.52160,399.77,460.86
17.54244,400.76,460.89
17.56167,400.66,462.44
17.58138,398.84,467.11
17.60059,398.76,468.78
17.62191,400.77,461.33
17.64208,398.12,453.89
17.66226,397.51,440.01
17.68111,400.29,428.77
17.70129,399.92,416.90
17.72206,397.67,407.11
17.74101,398.80,400.80
17.76152,398.05,392.63
17.78065,393.77,385.97
17.80070,394.28,383.62
17.82138,394.04,377.22
17.84100,394.99,378.83
17.86149,394.58,378.51
17.88209,399.55,379.74
17.90225,398.34,382.87
17.92206,395.27,389.73
17.94196,394.57,392.45
17.96233,393.10,401.08
17.98302,396.68,407.71
18.00347,395.17,412.11
18.02252,395.64,419.21
18.04188,397.41,423.50
18.06252,395.88,429.09
18.08259,396.07,431.33
18.10297,396.88,436.51
18.12284,398.67,442.06
18.14342,396.75,445.34
18.16135,397.31,444.49
18.18205,396.63,451.06
18.20165,397.24,453.49
18.22286,398.44,452.89
18.24205,396.98,455.21
18.26313,396.64,454.61
18.28297,397.90,457.78
18.30301,397.96,457.53
18.32256,400.50,460.90
18.34210,399.66,461.36
18.36302,399.03,462.16
18.38266,395.89,462.27
18.40276,397.36,462.87
18.42262,400.31,462.75
18.44310,400.21,464.20
18.46275,397.95,462.77
18.48284,400.05,463.07
18.50199,397.05,463.41
18.52255,399.51,464.95
18.54269,400.23,464.13
18.56256,399.82,465.81
18.58279,401.56,464.97
18.60194,398.84,464.73
18.62260,401.10,469.01
18.64210,399.79,484.19
18.66157,401.48,511.37
18.68308,406.73,540.59
18.70306,406.69,564.66
18.72230,406.80,585.56
18.74193,405.63,600.96
18.76170,409.26,608.69
18.78320,405.31,609.67
18.80302,405.62,601.98
18.82214,408.66,593.29
18.84255,408.57,576.99
18.86198,405.86,562.54
18.88172,405.55,547.90
18.90290,404.99,536.13
18.92219,403.20,522.41
18.94348,403.93,513.58
18.96328,401.04,507.41
18.98282,403.27,497.09
19.00301,398.99,494.79
19.02189,401.56,488.86
19.04175,402.41,480.13
19.06258,400.59,475.63
19.08223,399.67,471.29
19.10267,398.56,465.39
19.12221,400.46,459.18
19.14285,398.98,457.84
19.16293,399.02,455.86
19.18144,397.82,453.34
19.20176,400.62,454.20
19.22172,398.30,453.76
19.24193,399.14,450.97
19.26252,403.21,453.24
19.28302,400.13,452.97
19.30333,403.80,453.01
19.32237,402.82,457.60
19.34319,403.71,456.00
19.36348,400.92,457.41
19.38336,401.03,458.10
19.40160,398.91,459.61
19.42183,400.80,461.05
19.44169,398.88,462.59
19.46261,401.00,461.59
19.48246,399.67,461.57
19.50317,398.38,462.89
19.52280,398.42,460.41
19.54235,399.98,464.66
19.56181,397.60,464.39
19.58176,402.96,459.05
19.60339,403.85,449.37
19.62181,404.18,441.36
19.64288,402.73,427.58
19.66186,404.10,417.05
19.68172,404.45,405.29
19.70349,407.60,397.48
19.72276,405.08,387.51
19.74227,406.66,382.71
19.76292,403.69,381.70
19.78275,404.21,379.40
19.80195,404.63,378.41
19.82277,404.87,377.72
19.84277,400.71,379.49
19.86291,400.97,380.92
19.88202,396.90,385.80
19.90204,396.64,390.12
19.92349,398.24,392.31
19.94187,397.01,397.03
19.96220,398.06,406.02
19.98314,395.67,410.51
20.00211,397.43,415.59
20.02304,394.36,422.36
20.04178,394.22,427.70
20.06184,398.90,435.03
20.08263,399.14,437.61
20.10290,397.70,441.91
20.12218,397.31,448.89
20.14260,400.04,448.98
20.16178,398.32,454.48
20.18193,400.14,457.47
20.20325,402.02,461.80
20.22444,399.28,465.83
20.24419,398.55,467.01
20.26283,399.53,466.62
20.28334,401.08,468.94
20.30333,399.10,471.10
20.32374,399.46,469.74
20.34412,402.04,470.75
20.36412,401.41,468.89
20.38488,400.44,469.73
20.40390,399.73,469.65
20.42380,403.18,470.02
20.44486,401.03,470.41
20.46387,404.78,470.22
20.48397,405.67,470.73
20.50383,407.39,468.66
20.52422,404.11,472.33
20.54455,404.63,468.96
20.56380,403.77,471.89
20.58495,402.25,469.94
20.60372,402.15,469.71
20.62449,403.19,469.00
20.64352,401.72,481.65
20.66362,402.71,510.01
20.68355,406.93,551.52
20.70511,407.21,586.38
20.72382,410.78,614.25
20.74358,409.83,621.44
20.76354,412.03,628.95
20.78474,410.43,623.46
20.80391,410.85,612.16
20.82461,409.21,594.97
20.84501,406.39,579.03
20.86525,405.98,559.82
20.88556,404.99,545.15
20.90549,402.27,533.59
20.92405,401.53,520.15
20.94542,401.01,510.67
20.96382,403.10,505.86
20.98352,403.85,496.31
21.00409,402.68,490.36
21.02470,402.13,487.15
21.04501,401.91,486.13
21.06497,403.59,480.06
21.08443,405.59,478.04
21.10468,405.56,475.59
21.12434,407.14,471.75
21.14377,407.92,471.50
21.16356,405.33,473.11
21.18463,405.68,470.26
21.20506,406.99,468.79
21.22526,406.59,470.52
21.24398,406.34,471.54
21.26388,404.07,469.23
21.28372,406.04,473.37
21.30458,404.01,472.24
21.32516,404.81,473.79
21.34419,405.79,473.93
21.36428,406.12,471.77
21.38524,406.52,472.74
21.40490,404.34,472.24
21.42516,403.96,471.94
21.44482,402.65,474.51
21.46526,401.82,474.13
21.48435,403.20,472.74
21.50500,401.29,469.15
21.52470,402.46,470.99
21.54331,402.90,468.91
21.56469,403.08,470.14
21.58371,404.54,470.08
21.60440,402.53,469.39
21.62459,401.75,472.93
21.64549,401.29,469.03
21.66495,401.51,462.96
21.68500,402.55,452.78
21.70352,403.17,439.90
21.72526,403.09,425.88
21.74429,400.04,413.00
21.76427,400.24,401.46
21.78465,398.02,393.85
21.80494,399.18,385.91
21.82522,396.53,379.44
21.84393,393.87,379.98
21.86506,395.29,377.59
21.88376,395.76,377.27
21.90487,397.60,382.83
21.92547,396.28,385.18
21.94466,397.40,392.69
21.96490,399.40,395.05
21.98466,398.52,401.78
22.00364,401.65,407.05
22.02509,400.68,414.14
22.04513,401.69,422.33
22.06514,402.72,425.37
22.08493,403.14,433.21
22.10518,401.44,434.57
22.12511,403.22,441.35
22.14474,402.46,445.89
22.16462,403.66,446.64
22.18355,404.93,452.31
22.20509,402.68,453.72
22.22354,404.86,456.83
22.24387,404.36,455.51
22.26498,405.79,457.39
22.28363,405.04,459.08
22.30387,404.78,460.35
22.32554,403.09,462.22
22.34491,403.41,464.33
22.36475,405.29,463.85
22.38357,402.57,463.88
22.40340,404.13,464.97
22.42329,404.21,468.36
22.44489,401.01,468.21
22.46456,401.96,472.41
22.48501,400.46,472.35
22.50498,402.04,472.02
22.52388,399.39,473.74
22.54444,402.27,471.52
22.56499,401.30,471.06
22.58371,403.07,473.37
22.60412,402.90,469.62
22.62471,402.07,471.37
22.64366,402.81,468.90
22.66476,402.58,467.58
22.68493,397.89,470.30
22.70347,400.69,483.63
22.72477,400.35,510.20
22.74366,399.56,543.25
22.76534,402.40,570.50
22.78371,400.64,586.35
22.80391,402.69,605.49
22.82532,403.23,609.24
22.84364,405.03,603.08
22.86403,403.72,592.14
22.88491,404.06,581.21
22.90514,405.02,568.22
22.92353,405.40,554.59
22.94432,402.40,541.05
22.96556,403.20,530.32
22.98565,400.00,518.11
23.00464,400.07,511.23
23.02613,399.87,501.18
23.04522,401.89,495.42
23.06528,400.03,491.13
23.08500,400.43,485.68
23.10597,402.31,485.87
23.12680,400.86,480.89
23.14731,401.16,478.83
23.16611,399.56,476.14
23.18669,401.46,472.40
23.20532,397.54,470.73
23.22639,399.22,471.16
23.24707,401.66,471.53
23.26717,398.59,466.77
23.28658,398.29,466.77
23.30825,398.83,466.91
23.32764,400.97,467.01
23.34835,398.90,467.35
23.36777,398.82,465.89
23.38766,399.37,463.26
23.40689,399.11,465.32
23.42794,398.52,466.32
23.44813,398.06,463.99
23.46796,397.15,463.78
23.48707,399.25,465.42
23.50771,397.45,465.94
23.52697,400.09,464.67
23.54838,399.58,464.55
23.56711,397.94,463.72
23.58799,396.37,465.51
23.60777,398.44,463.97
23.62728,399.66,465.08
23.64708,396.80,462.76
23.66683,398.70,456.81
23.68735,395.31,448.95
23.70645,394.41,440.05
23.72818,392.68,426.14
23.74705,392.57,413.87
23.76748,391.38,400.05
23.78689,389.30,390.76
23.80644,390.59,381.08
23.82685,390.10,374.83
23.84664,393.32,370.77
23.86740,396.16,371.45
23.88836,396.67,368.43
23.90722,398.21,373.17
23.92824,399.17,376.43
23.94728,401.63,384.37
23.96755,401.14,391.27
23.98840,398.95,397.51
24.00717,399.74,406.95
24.02691,398.39,414.42
24.04658,399.69,419.48
24.06744,400.08,423.55
24.08721,398.93,430.70
24.10672,397.39,433.95
24.12826,401.89,438.64
24.14701,402.59,441.79
24.16807,401.45,449.07
24.18714,402.30,449.89
24.20821,402.64,452.79
24.22768,403.27,455.25
24.24837,402.43,455.58
24.26657,402.01,457.18
24.28791,403.15,458.76
24.30711,399.46,460.57
24.32706,400.91,461.01
24.34836,403.25,461.07
24.36679,401.05,463.99
24.38810,399.03,461.29
24.40751,398.35,463.06
24.42739,397.99,462.94
24.44673,400.44,460.80
24.46800,398.10,464.21
24.48766,400.50,461.24
24.50734,399.49,463.20
24.52719,400.79,462.65
24.54811,399.87,463.19
24.56802,398.44,466.34
24.58700,398.76,463.91
24.60801,398.65,465.75
24.62671,399.62,464.43
24.64839,398.22,464.70
24.66742,399.28,464.22
24.68789,400.58,466.13
24.70829,398.55,467.22
24.72779,401.21,480.43
24.74885,402.32,509.85
24.76854,404.57,545.82
24.78727,407.32,572.95
24.80873,408.61,599.07
24.82845,406.50,610.12
24.84863,407.15,611.29
24.86908,409.44,601.80
24.88724,407.14,588.43
24.90809,408.75,572.12
24.92748,405.14,555.42
24.94936,404.02,542.92
24.96787,404.14,530.83
24.98770,403.57,521.19
25.00931,405.09,514.07
25.02818,403.52,506.44
25.04747,402.93,501.12
25.06747,402.59,491.74
25.08859,400.85,488.46
25.10855,401.57,485.93
25.12922,399.79,483.28
25.14865,401.02,479.77
25.16776,399.52,475.53
25.18905,398.18,474.14
25.20880,401.07,470.42
25.22892,399.29,472.19
25.24790,400.61,467.78
25.26805,397.51,470.31
25.28819,398.07,470.09
25.30865,398.10,467.35
25.32767,398.50,468.67
25.34819,400.43,468.82
25.36737,398.99,466.29
25.38885,397.51,467.47
25.40895,400.73,466.48
25.42982,401.24,466.29
25.44972,403.02,466.22
25.47009,400.95,468.20
25.48992,401.65,468.23
25.50894,402.89,467.05
25.53016,402.82,468.01
25.54891,402.01,467.71
25.56910,399.77,468.40
25.58851,401.81,468.94
25.60897,400.74,468.95
25.62960,400.42,467.79
25.64968,402.09,469.50
25.66965,400.37,464.96
25.68891,403.00,467.55
25.71036,402.26,465.81
25.73031,400.90,469.26
25.74869,401.15,467.58
25.76970,402.53,468.59
25.79004,398.79,465.88
25.80914,399.72,453.83
25.82898,396.19,442.33
25.85003,394.27,428.67
25.86946,391.95,420.96
25.89008,391.02,410.62
25.90951,391.84,398.87
25.92912,390.44,391.99
25.94832,389.99,389.70
25.97004,392.64,384.17
25.98909,396.10,383.64
26.00991,396.66,380.92
26.03012,395.72,381.17
26.04872,399.23,385.84
26.06876,402.45,391.26
26.09027,401.48,395.14
26.10897,404.76,400.99
26.12952,403.46,407.50
26.14988,402.46,414.77
26.17020,404.93,419.68
26.18918,405.37,423.19
26.20856,404.76,430.92
26.22906,404.53,434.30
26.24872,404.98,437.44
26.26942,403.43,441.31
26.28921,404.38,443.41
26.31007,405.07,449.37
26.33022,407.33,449.78
26.34953,405.96,453.99
26.36879,407.52,454.36
26.38944,405.08,457.15
26.40836,404.85,460.80
26.42936,406.36,461.40
26.44956,404.74,463.75
26.47033,406.54,464.04
26.48923,403.41,463.81
26.50998,405.91,466.16
26.53020,401.26,464.31
26.54958,401.37,465.02
26.56948,399.46,468.00
26.58879,402.98,466.06
26.60948,401.02,467.79
26.63011,400.08,466.34
26.64953,399.70,465.82
26.66853,403.58,467.17
26.68846,402.05,465.33
26.70966,401.11,465.10
26.72948,404.20,466.30
26.74917,402.30,467.15
26.76956,402.29,466.27
26.78941,400.80,462.27
26.80912,402.49,478.07
26.82967,405.02,504.84
26.84881,404.04,536.16
26.86972,408.41,562.17
26.88853,411.01,583.95
26.90879,410.33,598.20
26.92881,411.02,601.85
26.94982,413.21,597.50
26.96919,411.59,587.45
26.98917,411.95,570.61
27.01022,408.86,560.21
27.03025,408.48,543.91
27.04972,409.03,533.97
27.06934,405.50,524.49
27.08996,407.18,513.24
27.11017,406.29,508.52
27.12987,403.73,502.66
27.14934,405.60,496.39
27.16948,404.85,489.50
27.18824,401.85,485.93
27.20853,402.59,485.40
27.22970,401.18,480.51
27.24931,404.62,475.39
27.26911,402.88,473.69
27.28944,400.47,472.47
27.30938,400.02,473.12
27.32965,399.48,478.13
27.34857,401.79,481.59
27.36965,401.75,487.33
27.38858,398.64,487.01
27.40987,400.02,486.72
27.42873,399.82,487.01
27.44841,400.34,482.50
27.46976,401.08,482.57
27.49006,400.30,482.71
27.50983,400.03,477.68
27.52857,401.93,477.16
27.54948,401.66,476.10
27.56979,401.85,477.03
27.58935,402.71,472.08
27.60990,403.56,471.83
27.63007,400.92,473.07
27.64889,403.05,472.73
27.66841,403.43,469.67
27.68877,401.84,470.20
27.70975,400.82,469.46
27.72960,402.05,467.03
27.74940,401.51,469.48
27.76984,399.01,474.35
27.79006,402.49,475.09
27.80993,400.46,481.60
27.82993,402.85,483.88
27.84973,405.81,483.40
27.86982,405.31,477.69
27.88922,404.36,468.06
27.90992,401.97,459.34
27.92882,400.40,448.40
27.95008,397.86,436.79
27.96939,397.08,421.46
27.98860,396.24,410.62
28.00958,399.15,398.14
28.02910,397.66,389.72
28.05008,399.54,380.73
28.06981,397.59,378.05
28.09006,398.32,375.78
28.10927,399.68,375.46
28.12836,396.01,379.04
28.14940,397.72,385.76
28.16909,396.58,390.26
28.18887,396.57,398.43
28.20958,399.97,405.50
28.23058,398.46,411.65
28.24930,401.68,416.36
28.27008,399.26,423.03
28.28967,401.70,428.21
28.30920,401.72,433.18
28.33062,404.10,434.42
28.35018,404.89,440.64
28.37070,405.52,443.76
28.39068,403.21,445.97
28.41082,404.66,448.72
28.42951,402.62,454.39
28.44963,400.83,456.75
28.46978,403.36,457.51
28.49024,402.23,460.51
28.50977,402.50,460.06
28.53027,402.34,465.10
28.54999,401.63,465.87
28.57123,401.49,466.58
28.58978,402.62,466.67
28.61016,400.72,467.95
28.62937,402.03,468.62
28.65102,401.90,471.26
28.67028,403.44,468.54
28.68974,402.16,467.83
28.71039,404.16,468.20
28.72978,402.90,469.20
28.75076,402.28,470.13
28.76958,403.44,469.53
28.79095,402.83,466.32
28.81044,403.64,483.40
28.82918,400.54,506.89
28.85048,404.03,535.22
28.87023,403.61,564.69
28.89004,403.30,589.55
28.91086,406.51,599.87
28.93043,403.82,605.73
28.94946,407.07,602.65
28.97015,404.92,593.03
28.98989,407.90,583.90
29.00996,404.74,567.37
29.03116,402.88,554.31
29.05012,403.96,541.90
29.07078,403.46,531.88
29.09050,403.01,521.17
29.10960,403.43,514.02
29.12961,405.39,505.61
29.15087,404.04,499.80
29.17011,404.19,495.45
29.18929,405.10,488.99
29.20940,401.56,485.56
29.22979,405.70,483.79
29.24986,404.28,480.47
29.26981,402.56,477.44
29.28959,405.12,474.78
29.31017,403.37,470.35
29.32990,405.81,469.97
29.35073,406.59,466.65
29.37017,405.18,464.84
29.39007,407.49,464.83
29.41097,404.93,467.29
29.43093,405.27,466.33
29.45083,406.60,464.80
29.47052,406.32,464.81
29.49064,406.85,466.02
29.50988,403.54,465.77
29.52978,404.66,466.81
29.55100,402.26,465.13
29.57087,403.91,467.70
29.59055,403.68,468.00
29.61018,401.32,466.29
29.63001,404.18,465.02
29.64939,401.74,468.63
29.67018,402.00,467.09
29.69027,401.02,468.30
29.70958,404.34,468.98
29.72993,404.56,466.21
29.75039,403.97,466.05
29.77109,402.74,465.24
29.79074,401.34,467.75
29.81091,404.00,467.47
29.83071,401.29,465.65
29.85081,401.60,458.37
29.87109,404.57,442.79
29.89001,403.27,431.13
29.91032,402.87,418.10
29.93055,402.72,405.37
29.95033,401.84,398.71
29.96933,402.39,387.94
29.99062,399.37,383.43
30.01054,401.19,384.07
30.02922,397.07,382.57
30.05058,396.79,382.47
30.06957,395.26,386.14
30.08930,397.83,395.09
30.11004,399.54,398.40
30.13115,397.04,403.59
30.15108,400.22,410.94
30.17021,396.48,417.84
30.18954,400.50,417.05
30.21045,398.46,421.41
30.22958,400.96,423.33
30.24927,399.38,427.63
30.26955,398.70,428.66
30.29031,399.60,434.33
30.30937,398.93,437.18
30.33047,402.23,440.35
30.35069,399.36,442.45
30.37073,402.86,445.28
30.39080,402.18,448.04
30.41105,400.87,449.24
30.43125,400.36,453.09
30.44996,398.60,453.20
30.47041,398.52,455.54
30.48983,400.56,456.12
30.50930,400.19,458.98
30.53080,402.26,460.69
30.55042,402.79,459.72
30.57111,402.84,459.09
30.59032,400.24,459.05
30.61086,398.27,460.34
30.63029,399.32,461.89
30.65081,400.56,460.96
30.67099,397.65,461.54
30.69078,399.51,462.31
30.71022,398.78,462.04
30.72992,399.40,465.42
30.75102,401.72,474.98
30.77058,399.39,496.17
30.79046,397.91,529.90
30.81092,394.33,560.53
30.83042,395.05,593.14
30.84992,396.53,612.36
30.86927,398.33,619.72
30.88960,402.13,624.47
30.91031,402.56,617.44
30.92995,405.36,605.33
30.94968,405.54,588.80
30.97042,403.59,575.51
30.98947,402.36,559.91
31.01090,401.52,546.46
31.03019,404.08,533.43
31.05094,403.98,518.62
31.07068,403.98,508.83
31.08980,406.80,498.98
31.10947,406.40,492.21
31.12974,407.29,487.20
31.14941,405.62,480.19
31.16942,406.11,476.26
31.18980,403.32,474.08
31.20966,403.29,470.77
31.23061,405.95,470.18
31.25012,404.80,469.65
31.26980,401.92,466.53
31.29108,403.37,466.91
31.31001,401.66,465.63
31.33098,401.34,460.38
31.35092,402.29,459.44
31.37125,400.98,461.48
31.38980,401.81,462.20
31.40971,403.14,458.39
31.43105,401.70,460.04
31.44981,402.81,459.30
31.47028,400.02,462.39
31.49108,399.75,461.47
31.51099,400.52,461.58
31.53073,399.67,463.72
31.55037,398.30,462.59
31.57108,398.37,462.80
31.58949,399.18,464.65
31.60973,400.52,461.77
31.62932,398.47,462.99
31.65082,400.53,464.73
31.67058,399.81,467.96
31.69077,399.41,464.59
31.70964,397.85,454.12
31.73117,394.22,440.95
31.75098,391.57,430.19
31.76939,388.94,420.15
31.79058,391.09,409.27
31.80927,389.82,398.16
31.83059,390.55,388.41
31.84987,390.24,379.90
31.86960,391.92,375.21
31.88934,392.02,373.64
31.91092,393.16,370.69
31.93109,396.70,372.32
31.94980,397.01,376.37
31.97057,397.93,381.94
31.99049,396.87,389.72
32.00979,396.76,396.32
32.03086,399.29,402.07
32.04988,399.53,410.76
32.07113,402.14,418.74
32.09074,404.27,426.18
32.11005,404.76,432.93
32.12965,402.82,435.51
32.14953,402.84,440.81
32.16978,403.52,443.56
32.18978,402.65,447.76
32.21091,405.00,446.18
32.22972,404.18,451.07
32.24961,404.25,450.90
32.26934,400.69,453.31
32.28960,401.99,452.44
32.30936,399.37,453.04
32.33054,401.47,453.47
32.35094,402.67,454.48
32.36994,402.82,454.76
32.39060,400.72,458.08
32.41063,402.30,458.63
32.43025,402.66,457.41
32.44964,399.40,460.10
32.47061,398.11,460.74
32.49094,401.66,462.16
32.50972,401.26,461.63
32.53063,399.37,462.96
32.54968,401.24,461.35
32.57008,401.86,461.47
32.58962,399.10,461.09
32.61042,399.95,463.71
32.63011,401.76,463.27
32.65054,400.67,464.98
32.67008,399.43,464.65
32.69074,399.65,463.61
32.70945,399.51,460.79
32.73089,401.85,458.50
32.74955,400.30,468.77
32.77053,400.75,490.41
32.78938,397.95,516.69
32.81119,401.41,552.71
32.83042,403.43,582.93
32.84953,404.47,603.50
32.87028,405.80,612.10
32.89130,408.00,612.14
32.90972,409.01,602.33
32.92998,408.80,587.95
32.94949,408.28,571.55
32.97094,408.86,555.92
32.99184,405.92,538.83
33.01178,408.27,527.02
33.03272,407.40,517.88
33.05334,407.58,507.46
33.07401,403.70,503.69
33.09341,402.78,497.02
33.11361,404.06,491.81
33.13269,402.54,489.97
33.15279,402.38,482.87
33.17334,401.84,479.46
33.19384,403.24,475.09
33.21262,402.75,474.51
33.23344,400.75,471.10
33.25386,399.96,469.99
33.27309,401.20,469.80
33.29329,401.01,466.76
33.31268,397.39,466.01
33.33410,400.73,464.83
33.35298,401.31,466.81
33.37297,401.30,467.02
33.39326,401.89,465.63
33.41256,402.34,466.85
33.43396,400.83,468.24
33.45337,402.82,467.21
33.47312,402.55,465.00
33.49352,401.84,467.04
33.51348,402.73,468.64
33.53301,402.85,468.48
33.55474,400.74,466.24
33.57401,401.35,466.58
33.59519,398.46,468.79
33.61349,398.47,470.07
33.63485,398.70,469.19
33.65493,399.57,469.00
33.67441,401.09,466.98
33.69505,402.42,469.59
33.71382,400.72,466.53
33.73412,402.62,468.91
33.75520,403.06,469.53
33.77423,401.28,468.22
33.79491,402.34,469.82
33.81372,403.14,468.72
33.83500,401.91,468.19
33.85481,403.59,469.71
33.87358,403.31,470.35
33.89375,403.26,471.69
33.91351,403.00,473.20
33.93465,402.70,474.07
33.95416,402.40,473.14
33.97321,401.38,462.87
33.99415,400.66,452.61
34.01320,400.34,437.23
34.03497,401.40,424.56
34.05356,400.58,408.20
34.07297,398.15,397.42
34.09358,396.14,388.16
34.11430,396.97,383.52
34.13530,396.91,377.61
34.15542,397.94,374.98
34.17611,399.07,377.84
34.19664,396.97,377.70
34.21720,398.47,384.35
34.23663,400.46,387.87
34.25656,397.77,393.01
34.27645,399.84,400.41
34.29632,398.82,407.43
34.31700,403.36,412.31
34.33777,403.41,420.41
34.35779,402.39,425.11
34.37698,402.66,434.46
34.39661,404.46,436.56
34.41759,402.12,442.12
34.43826,401.98,448.02
34.45959,400.68,449.51
34.47871,404.19,454.48
34.49933,401.82,458.13
34.51876,401.78,461.47
34.54080,399.70,459.98
34.56077,402.00,461.83
34.58254,397.43,462.88
34.60179,401.19,462.10
34.62189,397.96,464.25
34.64284,395.63,463.39
34.66222,396.80,465.30
34.68251,399.31,465.26
34.70253,399.31,468.00
34.72235,399.71,466.64
34.74310,399.27,467.24
34.76241,398.07,466.63
34.78123,397.93,466.96
34.80288,399.58,467.64
34.82325,399.23,467.20
34.84330,401.12,468.36
34.86372,399.59,466.49
34.88206,401.34,468.04
34.90402,399.02,465.00
34.92257,397.87,466.25
34.94268,397.67,465.03
34.96325,397.57,460.55
34.98469,398.18,461.43
35.00456,397.25,458.52
35.02349,398.38,457.74
35.04587,399.25,460.92
35.06504,398.97,459.46
35.08668,399.70,460.72
35.10669,399.09,462.78
35.12740,401.12,475.24
35.14713,400.59,500.95
35.16636,398.73,530.70
35.18784,403.69,554.92
35.20679,403.41,576.80
35.22774,404.51,590.88
35.24677,409.91,600.75
35.26741,410.35,605.17
35.28760,411.63,605.58
35.30790,409.33,597.14
35.32606,406.53,581.70
35.34753,407.14,570.90
35.36785,405.60,555.44
35.38888,406.61,540.94
35.40828,404.11,529.18
35.42845,402.94,516.18
35.44908,403.63,508.82
35.46825,404.38,502.38
35.48817,403.93,494.13
35.50891,403.79,488.88
35.52770,401.57,486.99
35.54801,400.52,479.49
35.56906,398.91,477.67
35.58765,399.11,473.62
35.60707,401.07,471.80
35.62856,399.53,468.83
35.64810,400.45,466.06
35.66742,400.20,464.08
35.68790,399.33,465.22
35.70846,397.58,465.51
35.72770,399.46,462.98
35.74845,399.82,462.88
35.76752,397.41,465.48
35.78898,399.43,464.43
35.80771,397.90,464.26
35.82864,397.74,462.81
35.84812,400.36,463.73
35.86729,398.90,463.09
35.88803,399.53,463.93
35.90766,397.38,463.13
35.92840,400.48,463.05
35.94880,400.54,465.04
35.96868,403.01,464.76
35.98893,401.10,465.92
36.00851,402.03,464.69
36.02968,402.27,463.61
36.04836,403.65,467.51
36.06823,400.64,466.43
36.08815,400.30,466.61
36.10936,404.23,464.07
36.12953,403.35,465.70
36.14831,403.80,466.59
36.16991,403.51,464.39
36.18932,401.07,466.66
36.20896,403.29,463.78
36.22987,402.04,464.28
36.24919,404.35,465.27
36.26828,400.80,466.48
36.28936,402.02,467.91
36.30978,402.62,476.05
36.33016,402.56,482.35
36.34961,403.96,487.84
36.37048,401.60,488.79
36.38889,401.88,484.65
36.40958,401.12,471.99
36.42955,396.82,460.64
36.44954,396.73,440.37
36.46926,393.52,422.22
36.49072,394.45,404.95
36.50974,391.38,388.51
36.53027,394.60,375.30
36.55047,393.18,366.65
36.56951,392.62,363.27
36.58902,392.48,366.12
36.61005,395.85,369.13
36.63097,394.94,372.52
36.65013,393.93,381.87
36.66988,397.87,387.72
36.68958,395.75,397.70
36.70925,400.54,405.70
36.73168,401.60,413.87
36.75121,401.87,419.92
36.77049,399.86,425.20
36.79102,400.67,433.15
36.81135,403.15,436.12
36.83084,403.15,441.00
36.85021,402.38,446.54
36.87057,403.22,449.70
36.89260,405.57,452.38
36.91142,405.09,454.94
36.93196,408.22,456.63
36.95371,407.14,457.14
36.97296,405.62,459.55
36.99424,403.85,461.44
37.01298,402.73,461.05
37.03441,405.32,463.45
37.05285,404.38,462.32
37.07332,404.32,465.79
37.09422,401.11,466.42
37.11296,403.06,465.89
37.13408,401.31,468.32
37.15351,400.49,466.17
37.17398,402.04,467.96
37.19451,402.73,466.16
37.21467,402.54,467.00
37.23453,401.48,465.71
37.25321,401.16,465.77
37.27472,401.08,467.22
37.29452,399.57,465.40
37.31347,400.10,463.15
37.33412,399.71,460.29
37.35381,399.39,461.38
37.37321,400.14,476.37
37.39337,401.16,507.21
37.41409,402.34,536.52
37.43463,401.10,563.98
37.45413,403.14,586.76
37.47428,403.66,600.89
37.49339,404.31,604.02
37.51324,404.64,601.35
37.53486,406.10,585.82
37.55383,406.66,572.99
37.57458,406.81,559.29
37.59330,406.02,545.92
37.61338,405.36,534.44
37.63462,402.84,525.47
37.65317,405.78,512.65
37.67472,401.49,506.70
37.69312,403.84,500.35
37.71311,399.93,496.11
37.73355,400.94,489.53
37.75297,401.26,484.87
37.77364,403.72,483.50
37.79339,402.25,479.71
37.81462,402.03,476.87
37.83307,403.03,475.00
37.85347,402.25,471.16
37.87297,401.11,472.49
37.89468,398.98,471.68
37.91345,399.35,470.04
37.93378,397.60,470.15
37.95476,399.79,469.61
37.97351,400.23,465.76
37.99366,398.58,469.39
38.01375,401.32,467.88
38.03385,398.23,467.78
38.05477,400.05,467.24
38.07406,398.93,465.80
38.09325,399.28,467.37
38.11340,401.50,466.79
38.13454,398.26,464.27
38.15479,400.20,465.35
38.17402,398.50,465.15
38.19380,396.56,463.52
38.21451,399.86,464.55
38.23393,399.14,466.04
38.25309,396.74,465.15
38.27580,399.47,462.27
38.29432,399.88,463.35
38.31494,399.02,459.34
38.33528,396.85,447.82
38.35599,395.50,433.52
38.37550,396.01,420.10
38.39576,394.74,409.03
38.41537,393.63,397.18
38.43617,392.88,388.63
38.45395,392.27,382.54
38.47479,392.36,374.95
38.49554,390.08,369.14
38.51521,391.85,369.89
38.53418,392.50,368.63
38.55488,393.31,372.73
38.57525,394.11,378.17
38.59535,393.77,386.20
38.61472,394.35,393.25
38.63504,393.39,401.76
38.65675,393.93,409.95
38.67626,394.00,415.76
38.69601,398.13,421.01
38.71683,398.34,430.03
38.73838,399.52,433.50
38.75692,396.53,438.01
38.77740,400.91,442.28
38.79816,401.02,445.21
38.81932,403.13,447.94
38.83950,401.17,449.12
38.85995,400.19,452.34
38.87888,401.91,456.08
38.89885,400.89,454.97
38.91830,400.08,456.94
38.93982,400.31,462.18
38.95849,399.40,462.81
38.97988,402.46,460.39
38.99796,402.38,461.18
39.01928,401.82,463.94
39.04033,401.29,465.98
39.06177,400.93,466.98
39.08278,401.17,465.30
39.10104,401.93,465.58
39.12104,403.08,467.58
39.14244,399.06,470.93
39.16133,399.15,471.93
39.18172,401.33,469.36
39.20307,399.25,469.55
39.22350,400.65,471.94
39.24278,401.27,469.23
39.26301,400.72,468.86
39.28393,401.08,470.06
39.30256,402.46,470.46
39.32242,402.91,468.48
39.34306,403.71,465.02
39.36365,402.35,466.39
39.38309,403.25,463.95
39.40373,402.50,464.35
39.42410,403.34,461.74
39.44411,402.41,464.09
39.46406,402.41,461.38
39.48281,402.85,462.40
39.50412,403.23,462.94
39.52283,402.16,460.86
39.54444,398.84,460.49
39.56418,401.67,476.96
39.58390,401.58,505.39
39.60669,405.66,536.83
39.62544,407.73,565.23
39.64586,409.45,587.51
39.66668,409.55,598.77
39.68504,409.24,603.24
39.70693,411.63,597.83
39.72826,407.37,588.54
39.74829,408.90,571.77
39.76950,404.98,558.86
39.79035,402.94,546.39
39.81093,402.75,532.61
39.83140,403.07,523.50
39.85098,402.31,511.56
39.87079,401.97,507.06
39.89070,400.82,498.61
39.91032,401.37,494.06
39.93074,398.70,488.68
39.95148,399.26,481.71
39.97126,398.15,480.28
39.99092,400.04,477.41
40.01060,397.13,475.41
40.03020,396.16,471.44
40.05277,398.99,469.36
40.07257,394.85,468.72
40.09368,398.32,468.55
40.11305,396.56,469.94
40.13433,396.05,468.25
40.15362,395.60,468.59
40.17492,395.55,469.64
40.19569,395.51,471.41
40.21580,394.28,469.91
40.23516,397.77,469.38
40.25588,397.42,468.17
40.27607,395.01,467.06
40.29550,393.60,464.83
40.31528,391.68,465.14
40.33504,393.45,465.32
40.35535,392.21,464.20
40.37506,393.84,466.36
40.39583,394.48,465.46
40.41534,394.93,465.62
40.43562,399.83,465.42
40.45575,396.46,463.88
40.47500,399.45,464.89
40.49411,400.78,462.71
40.51478,397.86,461.36
40.53465,399.67,459.86
40.55526,398.50,461.01
40.57581,401.24,463.71
40.59601,402.47,465.36
40.61420,402.75,470.17
40.63497,403.02,471.81
40.65649,400.99,465.98
40.67631,399.86,457.72
40.69608,400.67,442.46
40.71684,400.91,422.82
40.73574,402.46,408.18
40.75562,399.20,390.99
40.77662,399.42,379.81
40.79491,397.15,373.78
40.81632,398.59,369.78
40.83635,395.85,367.67
40.85695,396.13,365.70
40.87586,399.54,371.12
40.89672,398.85,374.29
40.91651,399.23,383.68
40.93630,396.92,389.95
40.95766,399.26,397.64
40.97755,396.69,404.75
40.99805,399.65,414.61
41.01784,400.58,419.91
41.03782,398.10,427.01
41.05830,400.58,433.52
41.07878,400.95,439.23
41.09785,403.87,443.44
41.11964,402.95,443.60
41.14175,401.36,449.56
41.16033,403.25,449.07
41.18088,401.83,453.45
41.20126,399.68,455.77
41.22026,398.33,455.89
41.24259,399.11,459.15
41.26241,398.95,462.97
41.28252,399.13,461.72
41.30106,400.01,464.41
41.32093,400.89,467.59
41.34204,402.15,468.07
41.36152,400.29,468.10
41.38301,402.95,466.65
41.40193,405.22,468.79
41.42309,401.48,466.98
41.44495,400.85,469.71
41.46527,400.94,468.06
41.48393,400.03,467.98
41.50447,400.83,466.60
41.52435,399.87,467.55
41.54501,400.62,465.77
41.56560,397.29,468.98
41.58589,400.94,466.18
41.60540,399.97,467.24
41.62626,397.04,467.40
41.64664,398.31,466.35
41.66655,399.37,469.87
41.68522,400.86,468.82
41.70590,399.52,466.08
41.72587,400.22,468.96
41.74657,398.33,468.39
41.76695,398.57,466.85
41.78748,396.86,467.22
41.80856,398.06,464.00
41.83047,396.84,466.12
41.85022,395.31,466.09
41.87120,396.28,486.94
41.89020,399.18,526.27
41.91208,403.12,575.04
41.93204,408.22,620.21
41.95186,410.43,647.72
41.97252,410.95,659.08
41.99145,412.42,663.13
42.01165,413.62,651.74
42.03092,412.17,636.26
42.05273,410.45,619.32
42.07260,410.03,595.45
42.09337,405.87,568.08
42.11285,405.42,545.27
42.13259,401.63,525.44
42.15272,400.82,506.30
42.17211,397.17,492.83
42.19199,396.59,477.10
42.21317,396.99,469.36
42.23310,397.52,461.92
42.25208,395.23,453.76
42.27294,396.02,451.92
42.29238,396.04,447.62
42.31297,398.46,447.12
42.33355,396.08,447.32
42.35380,398.90,449.36
42.37225,397.15,446.40
42.39217,394.60,446.81
42.41379,398.11,447.16
42.43321,397.78,449.47
42.45180,395.92,450.62
42.47334,395.85,451.13
42.49364,399.49,452.20
42.51221,398.16,454.42
42.53325,398.76,452.16
42.55366,398.06,457.01
42.57206,397.00,455.83
42.59216,397.71,460.76
42.61379,397.44,460.28
42.63373,397.22,458.77
42.65249,398.34,460.62
42.67217,400.29,461.95
42.69240,399.55,464.60
42.71275,396.65,465.21
42.73278,396.37,466.57
42.75363,398.43,467.41
42.77291,397.85,463.52
42.79324,398.65,466.95
42.81246,398.02,464.54
42.83363,397.08,465.44
42.85200,397.65,466.07
42.87390,401.28,467.35
42.89338,401.19,466.21
42.91370,401.34,466.75
42.93358,403.10,465.32
42.95355,403.78,467.80
42.97357,400.39,463.73
42.99212,402.07,453.37
43.01286,401.35,442.41
43.03337,398.14,428.30
43.05301,395.88,416.41
43.07378,394.98,406.39
43.09372,391.48,397.09
43.11301,392.86,389.19
43.13316,391.25,381.50
43.15345,389.75,380.28
43.17288,389.84,379.33
43.19331,390.82,381.70
43.21301,390.31,384.18
43.23371,391.93,390.37
43.25293,393.87,393.69
43.27386,397.03,401.80
43.29272,397.67,408.89
43.31271,399.69,413.46
43.33390,397.48,423.35
43.35266,398.33,430.20
43.37333,400.29,434.15
43.39342,400.00,439.24
43.41247,400.96,441.27
43.43280,399.77,445.88
43.45332,400.85,450.09
43.47410,406.44,447.62
43.49309,404.31,448.78
43.51317,405.80,449.56
43.53423,405.39,452.14
43.55625,404.70,455.95
43.57634,405.56,456.83
43.59661,404.34,458.68
43.61487,404.13,461.74
43.63501,405.85,461.46
43.65622,403.58,465.03
43.67656,405.03,462.67
43.69760,403.27,463.65
43.71583,401.38,464.33
43.73634,403.14,466.50
43.75614,403.76,464.35
43.77810,403.68,468.20
43.79630,401.01,467.39
43.81746,401.56,467.46
43.83675,404.30,466.42
43.85692,403.53,468.66
43.87823,403.64,466.23
43.89839,401.11,469.70
43.91885,401.91,466.74
43.93797,401.51,468.74
43.95873,398.15,468.09
43.97764,399.20,479.02
43.99886,400.88,498.12
44.01697,401.84,521.98
44.03838,399.24,547.13
44.05781,401.75,568.18
44.07769,402.05,584.63
44.09834,402.51,598.72
44.11808,404.07,603.67
44.13846,405.84,601.66
44.15761,407.70,591.41
44.17854,406.27,579.73
44.19682,408.69,567.10
44.21830,404.36,554.43
44.23946,404.84,539.73
44.26032,401.50,525.62
44.28161,401.91,514.49
44.30121,400.20,508.67
44.32249,399.84,500.73
44.34369,400.28,492.48
44.36337,398.67,485.32
44.38360,401.02,480.87
44.40393,398.58,476.34
44.42347,399.77,472.21
44.44524,400.43,468.45
44.46450,401.59,466.89
44.48431,398.89,467.56
44.50504,398.69,464.45
44.52507,398.37,463.98
44.54631,398.95,461.95
44.56727,400.35,463.60
44.58756,400.68,457.73
44.60592,400.97,461.04
44.62740,397.23,460.87
44.64695,397.06,459.62
44.66676,397.93,461.33
44.68807,398.57,462.18
44.70686,398.69,463.93
44.72773,398.65,463.83
44.74703,396.60,463.06
44.76737,400.34,465.60
44.78830,399.02,462.56
44.80693,397.72,460.85
44.82821,396.40,462.36
44.84696,399.47,464.61
44.86770,396.53,463.38
44.88707,395.82,460.52
44.90778,396.75,462.52
44.92758,397.55,461.43
44.94685,397.75,464.91
44.96879,398.62,463.10
44.98861,400.31,464.22
45.00752,398.12,464.52
45.02752,399.57,465.78
45.04838,399.98,465.46
45.06861,400.79,468.18
45.08718,400.16,465.90
45.10799,400.08,465.34
45.12861,403.29,457.48
45.14798,401.82,446.97
45.16797,401.71,430.53
45.18869,404.03,416.82
45.20953,402.56,405.62
45.22960,401.71,390.23
45.24976,397.00,380.08
45.26894,395.63,372.66
45.28850,397.15,367.09
45.30885,396.00,366.44
45.32843,392.35,369.29
45.34982,393.00,374.15
45.36986,395.77,376.48
45.38986,395.21,385.49
45.40930,396.80,395.06
45.42948,393.90,404.02
45.45056,397.23,411.20
45.47056,395.09,419.88
45.48978,396.09,425.31
45.50873,396.12,431.30
45.52898,397.21,435.23
45.54957,397.93,439.71
45.57052,397.50,445.18
45.58885,398.12,451.34
45.60988,400.99,452.14
45.63053,402.58,456.20
45.65006,400.70,458.15
45.67083,403.47,463.56
45.69114,402.26,465.58
45.71239,402.33,464.16
45.73248,402.48,466.08
45.75227,400.98,465.40
45.77159,403.19,466.44
45.79280,401.00,469.82
45.81194,403.58,470.51
45.83166,403.37,469.01
45.85152,404.29,467.85
45.87232,405.12,469.84
45.89117,403.66,470.86
45.91169,401.76,469.67
45.93327,402.59,469.27
45.95289,401.86,469.58
45.97203,400.60,472.08
45.99208,401.24,469.17
46.01370,400.74,470.60
46.03278,397.83,472.97
46.05173,397.26,470.99
46.07332,399.02,471.89
46.09346,396.35,472.83
46.11246,397.83,472.96
46.13261,398.27,468.99
46.15230,399.11,469.33
46.17331,397.24,470.50
46.19477,397.80,470.15
46.21475,399.44,469.47
46.23462,399.89,470.94
46.25502,400.62,492.66
46.27686,401.31,520.06
46.29479,403.31,551.72
46.31683,405.49,577.42
46.33660,407.40,599.67
46.35611,409.53,612.56
46.37528,409.39,617.05
46.39644,407.69,612.19
46.41494,409.32,602.45
46.43509,406.46,591.10
46.45588,403.58,574.06
46.47502,405.14,562.52
46.49664,401.63,548.05
46.51605,402.67,535.21
46.53472,402.26,524.71
46.55648,399.08,516.48
46.57551,400.55,507.11
46.59688,397.69,500.67
46.61718,398.92,492.96
46.63723,398.99,488.09
46.65794,397.92,482.02
46.67785,399.02,478.65
46.69922,397.90,473.32
46.72066,397.11,470.98
46.74068,395.72,471.88
46.75998,395.67,468.69
46.78070,397.21,469.89
46.80093,396.19,468.94
46.81997,396.58,470.21
46.83979,395.90,468.08
46.86028,397.42,469.66
46.88159,398.18,466.15
46.90097,396.48,467.33
46.92104,395.10,471.07
46.94085,396.77,468.74
46.96064,397.01,470.38
46.98061,397.70,468.52
47.00083,397.67,467.87
47.02081,398.89,468.81
47.04172,397.44,467.98
47.06129,398.39,466.80
47.08149,398.69,467.36
47.10053,398.10,469.81
47.12024,399.35,467.39
47.14139,397.13,471.35
47.16038,397.78,461.25
47.18183,394.84,444.17
47.20056,395.11,428.19
47.22038,390.36,411.02
47.24186,392.90,395.92
47.26012,389.52,382.91
47.28108,390.97,373.09
47.30136,386.81,366.28
47.32111,385.22,367.25
47.34125,388.16,364.45
47.36127,387.38,368.89
47.38069,389.89,372.21
47.40065,392.43,381.70
47.41965,390.79,385.98
47.44072,391.91,394.46
47.46083,394.89,403.38
47.47976,394.46,411.25
47.50095,394.37,416.40
47.52052,394.06,423.11
47.54147,393.18,430.08
47.56048,394.17,434.28
47.58020,393.93,438.68
47.60118,398.50,442.03
47.62140,399.68,446.34
47.64107,396.88,448.74
47.66119,398.52,449.35
47.68160,399.28,454.30
47.70027,396.62,453.38
47.72061,397.07,457.52
47.73970,398.99,457.06
47.76005,399.48,461.25
47.78147,398.85,460.16
47.80031,398.20,460.49
47.82096,399.59,463.48
47.84120,397.66,462.88
47.86010,398.92,466.00
47.88008,397.27,464.30
47.90090,396.40,466.56
47.92028,398.11,468.39
47.94112,399.07,468.80
47.96156,396.40,465.91
47.98011,399.58,469.29
48.00010,397.39,467.31
48.02096,397.95,469.45
48.04083,399.92,467.10
48.06134,397.99,468.73
48.08040,395.93,467.12
48.10030,398.10,467.86
48.12008,397.32,468.94
48.14092,397.61,470.35
48.16139,397.71,468.66
48.17979,397.24,469.19
48.20025,400.56,469.71
48.22103,397.66,470.34
48.24035,397.28,472.06
48.26082,398.23,468.21
48.27986,398.66,469.02
48.30108,400.50,470.03
48.32090,399.23,470.62
48.34208,401.24,470.43
48.36197,401.84,467.88
48.38206,399.72,468.86
48.40117,400.21,471.46
48.42081,398.03,471.00
48.44227,400.17,471.78
48.46237,396.34,468.18
48.48144,398.57,468.30
48.50240,398.34,483.48
48.52117,400.06,513.00
48.54108,401.31,541.98
48.56171,401.48,571.56
48.58112,407.04,589.54
48.60166,405.47,595.32
48.62136,404.49,592.07
48.64222,403.80,582.07
48.66230,402.86,569.13
48.68173,404.25,558.42
48.70316,403.05,547.25
48.72347,402.78,534.03
48.74228,401.79,522.05
48.76272,404.17,515.10
48.78315,402.93,507.23
48.80324,404.62,504.56
48.82180,403.41,499.49
48.84284,403.55,496.38
48.86260,402.60,497.53
48.88375,401.81,495.64
48.90410,403.78,491.55
48.92505,401.28,490.07
48.94393,402.36,488.17
48.96447,399.08,487.22
48.98524,399.51,486.50
49.00534,399.79,486.79
49.02597,401.92,484.99
49.04421,400.14,484.97
49.06559,399.65,484.48
49.13245,399.18,479.30
49.13179,399.95,480.04
49.13345,401.05,480.28
49.14507,400.62,479.98
49.16374,399.01,476.44
49.18396,400.04,478.69
49.20530,400.41,479.50
49.22492,400.42,476.03
49.24474,398.47,478.36
49.26407,397.16,477.15
49.28524,396.78,475.70
49.30453,399.28,474.44
49.32513,398.16,476.00
49.34529,400.87,475.89
49.36487,400.11,474.62
49.38544,401.64,475.55
49.40420,400.48,475.49
49.42546,402.76,474.95
49.44478,402.07,471.12
49.46595,402.08,474.21
49.48502,400.34,471.61
49.50630,401.09,471.04
49.52674,400.77,469.22
49.54597,399.10,472.12
49.56681,400.40,469.25
49.58608,398.35,469.58
49.60750,397.33,471.90
49.62717,400.62,471.80
49.64660,397.05,470.23
49.66740,398.37,471.40
49.68699,400.30,470.02
49.70787,396.45,470.31
49.72825,400.41,474.66
49.74712,400.17,472.47
49.76697,399.21,461.12
49.78769,396.42,445.40
49.81053,392.71,429.28
49.82984,390.53,413.00
49.85039,389.86,400.27
49.87079,389.73,391.62
49.89012,387.14,382.20
49.91041,390.02,378.01
49.92965,389.95,375.58
49.95040,392.04,377.84
49.96915,392.47,381.75
49.98888,394.41,388.34
50.01013,396.47,395.23
50.02853,394.21,402.04
50.04996,395.17,406.24
50.06942,396.21,413.69
50.09043,396.70,418.51
50.10944,396.82,424.93
50.13006,397.09,429.45
50.14911,399.20,436.24
50.16950,398.04,441.29
50.18960,397.96,444.43
50.20935,399.57,448.74
50.22943,402.21,449.10
50.24976,400.06,455.02
50.26969,398.12,454.40
50.28883,400.10,457.33
50.30948,399.22,461.47
50.32970,397.20,459.46
50.34978,397.66,461.38
50.37051,398.62,462.53
50.39026,396.93,464.01
50.41010,394.07,465.40
50.42979,394.37,463.47
50.45024,395.67,466.03
50.47108,398.37,470.28
50.48973,396.84,469.84
50.50993,398.79,471.21
50.53127,397.39,473.92
50.55013,395.01,475.00
50.57096,399.38,475.66
50.59098,398.99,471.73
50.61189,397.81,471.66
50.63297,398.51,473.94
50.65372,399.73,471.85
50.67302,398.48,471.17
50.69243,398.45,470.96
50.71257,398.19,470.76
50.73262,398.11,470.32
50.75199,398.90,471.62
50.77335,396.82,469.57
50.79392,399.42,469.70
50.81370,398.31,468.09
50.83368,397.09,469.15
50.85490,395.91,469.70
50.87621,399.65,467.25
50.89757,399.09,468.55
50.91711,400.42,473.09
50.93823,400.03,489.68
50.95866,400.85,512.11
50.97842,401.52,539.98
50.99764,402.78,563.63
51.01680,405.95,571.41
51.03677,406.62,571.92
51.05695,406.77,565.51
51.07754,406.54,554.08
51.09711,404.52,543.42
51.11705,404.71,536.76
51.13735,402.66,528.04
51.15806,403.96,531.25
51.17727,409.13,533.11
51.19823,408.31,531.46
51.21798,409.42,524.46
51.23808,409.42,520.90
51.25901,408.76,515.88
51.27774,407.69,506.96
51.29839,406.97,504.63
51.31890,406.06,497.00
51.33863,407.33,494.47
51.35942,404.39,490.27
51.37867,404.34,488.20
51.39772,403.83,485.39
51.42038,402.80,482.51
51.44061,403.01,482.64
51.46095,405.24,479.19
51.48122,403.12,478.58
51.50215,403.99,477.41
51.52123,403.36,474.39
51.54321,401.11,476.44
51.56188,401.48,474.85
51.58267,400.74,471.76
51.60355,402.04,472.70
51.62217,399.13,469.24
51.64329,401.30,470.11
51.66299,401.03,471.01
51.68228,400.46,469.46
51.70244,400.68,471.07
51.72260,401.72,469.92
51.74202,400.69,471.01
51.76189,397.51,474.63
51.78432,399.95,473.91
51.80440,398.90,474.87
51.82415,398.01,473.12
51.84373,399.96,474.35
51.86547,399.85,475.09
51.88448,397.79,470.07
51.90517,400.16,469.25
51.92371,400.20,471.82
51.94534,399.77,470.78
51.96510,398.62,467.44
51.98491,396.97,469.88
52.00428,399.38,466.77
52.02467,397.16,463.84
52.04432,399.02,465.46
52.06475,395.90,466.71
52.08488,395.44,464.80
52.10384,396.93,464.00
52.12513,398.94,464.25
52.14399,395.93,466.80
52.16514,397.49,455.89
52.18415,399.31,441.08
52.20436,398.60,430.01
52.22567,396.95,425.38
52.24554,397.42,424.05
52.26451,400.33,423.21
52.28427,398.38,426.21
52.30460,400.90,429.14
52.32413,399.51,432.27
52.34527,399.37,437.14
52.36526,399.59,439.73
52.38481,398.74,443.32
52.40759,397.97,444.80
52.42563,399.64,449.56
52.44833,396.93,450.52
52.46677,397.60,452.71
52.48677,399.39,454.42
52.50871,399.88,458.62
52.52765,399.77,456.44
52.54719,399.10,460.52
52.56780,399.67,459.86
52.58772,398.11,459.22
52.60855,398.11,461.65
52.62837,399.50,463.54
52.64880,399.44,461.75
52.66907,399.82,463.62
52.68851,398.84,461.43
52.70804,397.76,465.53
52.72922,399.71,467.77
52.74895,401.23,467.62
52.76784,399.22,466.00
52.78802,400.44,468.34
52.80789,399.06,470.31
52.82867,399.65,471.39
52.84936,399.93,469.03
52.86833,398.17,471.19
52.88751,399.12,470.03
52.90783,398.72,471.66
52.92829,400.12,473.93
52.94926,398.49,473.52
52.96820,397.39,483.98
52.98923,400.39,502.79
53.00911,401.46,515.54
53.02920,403.10,527.07
53.04841,402.89,526.90
53.06792,402.01,521.67
53.08905,399.46,514.98
53.10864,401.97,510.14
53.12802,402.30,507.40
53.14786,401.35,502.39
53.16930,401.25,496.04
53.18755,400.98,491.92
53.20911,399.96,486.50
53.22897,398.36,480.55
53.24942,397.40,476.00
53.26822,397.53,472.36
53.28952,397.86,471.33
53.30914,396.84,472.12
53.32786,395.45,469.34
53.34939,397.37,468.19
53.36909,396.86,467.37
53.38909,395.91,468.90
53.40889,395.53,467.46
53.42890,393.91,467.88
53.44870,393.68,465.61
53.46939,396.76,465.97
53.48818,400.42,456.20
53.50876,401.90,447.54
53.52924,404.67,440.66
53.54853,407.55,441.25
53.56877,406.45,439.87
53.59022,408.25,441.49
53.60982,405.60,442.87
53.63036,402.80,446.88
53.64928,404.44,449.11
53.66935,403.42,453.24
53.69033,402.05,453.89
53.70924,404.45,457.49
53.72970,401.41,460.55
53.74864,405.37,461.15
53.76962,404.62,463.66
53.79027,403.23,464.17
53.81040,402.22,467.04
53.82976,407.65,462.58
53.84942,411.53,460.90
53.86860,421.72,459.71
53.89029,423.15,459.53
53.91147,422.52,453.40
53.93184,418.42,437.12
53.95155,410.97,422.90
53.97205,403.28,405.37
53.99193,395.28,389.71
54.01312,390.78,376.36
54.03243,384.97,370.73
54.05308,381.85,367.86
54.07215,379.74,365.95
54.09302,379.41,372.71
54.11320,379.80,379.95
54.13234,379.69,387.88
54.15172,381.72,396.46
54.17315,381.41,404.00
54.19246,380.54,411.75
54.21350,385.12,418.20
54.23163,384.89,425.49
54.25213,387.87,431.25
54.27305,385.70,435.38
54.29206,389.17,442.19
54.31336,388.81,444.46
54.33333,389.39,447.87
54.35228,392.68,452.19
54.37328,396.11,452.92
54.39362,394.29,457.50
54.41318,393.32,461.67
54.43327,395.75,465.98
54.45346,394.11,471.02
54.47392,394.86,475.44
54.49278,395.29,473.84
54.51387,396.35,478.64
54.53323,394.75,476.07
54.55293,394.57,477.97
54.57317,397.67,477.21
54.59406,398.64,477.63
54.61413,400.17,483.61
54.63337,403.81,484.79
54.65394,407.34,486.72
54.67284,406.39,489.68
54.69296,406.47,487.16
54.71305,406.82,489.65
54.73372,407.93,485.56
54.75286,404.99,485.45
54.77333,406.22,481.46
54.79370,403.36,480.69
54.81360,405.25,481.81
54.83346,400.37,478.92
54.85539,399.18,478.06
54.87509,401.85,477.88
54.89415,401.98,473.69
54.91433,400.27,475.62
54.93347,398.81,473.06
54.95408,401.49,471.03
54.97501,398.29,473.52
54.99721,396.60,472.35
55.01558,395.66,469.12
55.03599,397.73,466.93
55.05701,395.41,465.44
55.07551,394.60,464.42
55.09833,393.44,469.65
55.11819,392.45,489.02
55.13927,391.90,518.59
55.15979,395.38,550.29
55.18026,396.64,575.31
55.19930,396.04,587.66
55.21892,397.60,589.36
55.23907,400.97,581.67
55.25894,398.19,569.24
55.27938,400.41,557.79
55.30039,398.71,544.93
55.31966,398.24,534.68
55.33986,396.87,526.81
55.36116,398.28,517.06
55.38100,398.95,509.14
55.40216,397.96,501.95
55.42206,399.95,497.86
55.44066,397.44,494.03
55.46337,399.66,485.97
55.48324,398.04,483.63
55.50199,399.36,483.31
55.52298,399.77,482.15
55.54226,396.34,481.49
55.56324,396.91,475.75
55.58188,394.99,476.14
55.60252,393.34,472.86
55.62181,393.14,471.85
55.64347,394.92,472.67
55.66161,396.26,473.61
55.68234,394.80,468.21
55.70161,396.99,470.86
55.72397,395.83,468.36
55.74288,396.89,468.09
55.76403,396.43,467.14
55.78444,396.81,469.50
55.80302,396.70,467.93
55.82388,396.48,469.71
55.84312,396.41,469.84
55.86405,397.56,467.47
55.88425,397.07,467.93
55.90413,397.34,471.13
55.92646,397.73,468.27
55.94606,396.94,470.39
55.96658,400.05,469.48
55.98715,400.99,469.22
56.00715,397.29,466.29
56.02759,396.97,468.76
56.04776,399.31,468.77
56.06756,401.32,466.18
56.08875,400.94,467.09
56.10916,399.16,468.86
56.13024,401.98,468.74
56.15117,401.30,468.47
56.17221,399.15,466.87
56.19223,399.78,468.80
56.21280,400.29,466.26
56.23209,402.59,465.88
56.25202,400.07,465.87
56.27290,398.55,465.74
56.29333,400.64,468.15
56.31332,397.78,466.00
56.33162,398.53,466.59
56.35179,399.33,466.47
56.37320,402.75,466.31
56.39191,398.78,467.26
56.41309,401.15,467.50
56.43308,397.19,466.70
56.45327,399.51,469.09
56.47320,400.26,463.51
56.49232,396.35,455.17
56.51274,394.90,440.62
56.53179,392.55,422.93
56.55173,391.76,408.67
56.57164,389.29,393.66
56.59194,387.03,383.92
56.61278,386.81,375.45
56.63190,389.91,369.73
56.65211,391.22,367.10
56.67295,389.48,368.98
56.69169,390.92,371.87
56.71222,391.66,378.24
56.73285,395.26,384.02
56.75281,393.98,393.22
56.77533,396.42,401.43
56.79344,397.50,408.73
56.81513,395.15,414.11
56.83332,395.59,420.09
56.85357,398.13,424.54
56.87422,398.32,434.33
56.89380,399.33,440.65
56.91515,400.08,446.69
56.93511,399.59,447.22
56.95603,401.59,453.94
56.97639,407.10,453.87
56.99697,407.36,457.17
57.01785,405.45,459.59
57.03801,405.09,457.41
57.05874,405.59,460.72
57.07918,405.17,459.88
57.09890,405.39,464.04
57.11836,404.90,462.96
57.13837,402.16,462.57
57.15807,403.47,465.70
57.17816,403.96,464.60
57.19857,401.53,463.43
57.21781,399.33,467.18
57.23910,400.47,466.36
57.25873,397.28,465.75
57.27938,397.26,467.46
57.29825,397.86,465.96
57.31784,397.69,468.69
57.33925,397.99,468.36
57.35885,396.43,468.45
57.37941,396.47,465.62
57.39848,396.89,467.97
57.41804,395.32,467.38
57.44040,396.29,465.28
57.45936,395.15,466.12
57.47988,393.63,464.32
57.49973,397.13,467.63
57.52042,395.00,466.65
57.53869,394.75,465.49
57.55916,397.04,465.87
57.57976,397.13,466.36
57.59892,396.87,467.14
57.61974,395.69,468.36
57.63930,395.10,466.72
57.66046,394.89,465.26
57.67878,395.98,467.43
57.69982,394.92,465.96
57.71840,394.30,464.78
57.73913,395.44,465.03
57.75993,397.11,464.33
57.77864,392.56,461.34
57.80010,392.99,460.94
57.81905,393.46,462.20
57.83977,396.14,459.81
57.85977,392.38,461.43
57.87899,395.31,459.57
57.89976,394.46,458.38
57.91878,392.71,459.68
57.93906,396.20,459.43
57.96001,394.76,466.32
57.97964,395.00,487.88
58.00047,398.97,515.94
58.01952,399.45,547.86
58.03977,402.72,572.63
58.06019,404.59,585.02
58.07915,404.73,587.58
58.09942,406.42,582.98
58.11985,404.67,571.95
58.13948,404.71,562.55
58.15982,405.97,552.28
58.18044,406.49,537.93
58.19917,405.10,530.40
58.21867,405.36,520.07
58.24039,405.38,512.89
58.25931,406.67,505.53
58.28011,403.82,502.43
58.29869,402.29,495.81
58.31997,401.60,490.26
58.34003,401.69,488.00
58.36034,402.07,485.25
58.37998,403.12,482.49
58.39835,402.94,478.15
58.41929,401.57,478.38
58.43964,400.39,469.20
58.46024,398.17,459.22
58.48045,398.23,451.92
58.49995,398.53,447.37
58.51953,399.93,446.39
58.53904,399.69,443.86
58.56013,399.59,445.47
58.58016,398.56,449.62
58.60027,400.94,451.42
58.61997,399.94,453.53
58.63938,401.29,454.55
58.65997,402.90,457.93
58.67919,401.74,460.32
58.69888,402.03,459.72
58.71872,400.20,461.97
58.73979,403.03,463.70
58.75961,400.64,463.18
58.77976,403.19,464.71
58.79860,401.78,465.84
58.81905,401.03,466.03
58.84007,401.28,467.38
58.85926,399.97,468.77
58.87935,401.81,470.65
58.90025,404.37,474.60
58.91890,403.62,487.77
58.93898,396.64,500.38
58.95853,385.42,517.80
58.97994,379.73,520.94
58.99979,377.14,512.88
59.01951,376.73,506.09
59.03913,378.28,495.36
59.06041,381.61,485.93
59.08100,381.21,476.30
59.09982,385.66,467.94
59.12107,386.14,461.13
59.14065,388.05,457.66
59.16207,387.55,454.58
59.18203,391.07,451.51
59.20232,391.65,449.69
59.22169,392.15,451.51
59.24201,396.63,451.35
59.26137,398.49,452.33
59.28173,398.89,451.33
59.30168,401.88,453.45
59.32066,403.73,458.19
59.34096,401.45,457.95
59.36102,404.23,458.91
59.38133,404.20,459.79
59.40222,401.52,461.41
59.42081,401.17,463.18
59.44134,404.41,467.00
59.46136,405.46,468.85
59.48096,405.78,471.23
59.50132,405.05,464.60
59.52165,415.15,459.50
59.54333,418.04,450.98
59.56146,420.39,448.82
59.58194,422.01,448.89
59.60247,422.91,449.41
59.62196,422.58,451.63
59.64267,420.62,453.68
59.66234,416.55,453.29
59.68293,415.26,455.22
59.70400,413.71,454.76
59.72617,416.08,455.45
59.74682,412.55,456.11
59.76607,413.57,458.26
59.78734,412.63,457.76
59.80570,408.86,458.73
59.82603,411.05,461.39
59.84691,405.47,462.21
59.86661,405.29,465.92
59.88577,404.54,470.16
59.90694,404.11,471.57
59.92737,405.65,471.54
59.94617,400.97,473.74
59.96740,402.31,475.67
59.98669,401.65,475.96
