Program Time [s],data 0,data 1
69.96103,476.99,521.46
69.97945,479.43,521.73
70.00033,477.98,519.85
70.02015,482.39,521.76
70.04109,483.85,520.38
70.06104,486.94,519.99
70.08118,483.91,520.85
70.10103,488.77,523.55
70.12107,487.46,521.96
70.13998,486.85,519.36
70.16023,487.63,518.53
70.18101,487.78,522.00
70.19964,486.37,521.21
70.21918,485.95,520.72
70.24028,488.89,522.08
70.25991,486.75,519.02
70.27951,488.20,519.56
70.30052,488.46,520.26
70.31986,488.66,521.71
70.34061,489.44,518.27
70.36064,489.50,520.50
70.37970,486.20,519.29
70.39976,488.77,521.16
70.41915,488.72,518.15
70.44025,488.07,520.82
70.45971,487.36,521.47
70.47966,490.22,521.72
70.50020,488.63,519.51
70.52101,490.71,518.66
70.53984,490.27,518.84
70.55999,488.56,521.76
70.58086,489.56,520.42
70.60022,488.07,519.57
70.61986,490.92,521.12
70.64055,487.74,520.89
70.65952,489.18,522.42
70.67900,488.63,520.89
70.69953,490.70,522.56
70.72009,490.61,521.23
70.74012,491.96,521.44
70.75926,492.91,523.45
70.77942,490.91,522.01
70.79975,487.21,523.40
70.81943,488.83,519.80
70.83977,488.30,519.97
70.85997,487.80,523.00
70.87992,487.09,522.03
70.89953,488.35,523.38
70.92015,485.73,521.66
70.94027,485.62,520.98
70.95937,484.90,522.47
70.98006,486.05,520.17
70.99992,485.24,522.79
71.02099,485.64,524.78
71.04004,484.20,523.62
71.05961,483.55,520.89
71.07960,484.55,521.29
71.10050,485.16,522.47
71.11963,485.80,520.97
71.14075,483.79,522.64
71.15942,484.78,521.47
71.18055,484.77,521.43
71.19979,488.32,522.38
71.21970,487.30,521.48
71.24095,486.31,523.06
71.25949,484.81,521.78
71.28066,485.20,521.68
71.30038,488.09,521.47
71.32070,486.73,521.67
71.33972,485.26,520.39
71.35985,484.52,520.94
71.38077,484.91,520.38
71.40007,483.07,521.58
71.41911,484.47,522.51
71.43956,486.48,520.06
71.46073,483.36,521.99
71.48079,483.81,526.73
71.50143,485.45,518.69
71.52146,483.53,506.64
71.54218,482.32,485.89
71.56191,481.02,465.81
71.58223,476.77,444.04
71.60269,469.05,422.17
71.62231,467.57,407.37
71.64279,463.10,391.44
71.66213,461.38,384.33
71.68243,463.51,377.82
71.70288,464.55,375.57
71.72407,466.68,378.86
71.74343,464.68,382.76
71.76412,466.77,390.40
71.78388,466.65,399.40
71.80490,468.16,413.24
71.82396,466.92,421.96
71.84482,468.89,433.25
71.86491,472.50,445.05
71.88515,471.46,454.34
71.90508,472.33,460.42
71.92452,470.65,468.29
71.94407,471.50,474.48
71.96430,469.81,482.80
71.98461,470.78,486.55
72.00321,473.65,488.53
72.02392,470.77,494.90
72.04504,472.42,497.36
72.06338,473.23,500.13
72.08307,471.63,502.91
72.10471,472.49,502.63
72.12429,471.43,503.56
72.14463,474.07,507.10
72.16470,471.88,507.00
72.18464,472.40,508.74
72.20332,474.44,508.33
72.22388,470.34,509.12
72.24379,471.06,512.28
72.26381,475.66,511.34
72.28391,476.57,527.15
72.30363,481.93,557.59
72.32313,483.30,590.49
72.34356,485.03,626.48
72.36318,486.51,651.52
72.38456,490.32,675.70
72.40307,492.38,684.24
72.42494,494.00,685.72
72.44375,498.10,673.43
72.46456,496.51,660.58
72.48379,496.99,640.88
72.50452,492.82,627.63
72.52325,491.39,609.99
72.54476,492.33,597.92
72.56374,491.92,584.98
72.58395,488.89,575.65
72.60477,484.16,568.56
72.62483,482.27,561.00
72.64317,479.70,556.21
72.66443,480.75,550.66
72.68481,478.01,546.81
72.70411,475.42,542.05
72.72329,477.75,538.58
72.74376,477.02,535.50
72.76488,475.54,533.85
72.78433,477.39,530.00
72.80333,475.11,527.81
72.82439,477.48,525.43
72.84332,474.10,525.19
72.86443,475.25,523.37
72.88357,473.66,524.36
72.90349,476.11,520.94
72.92475,474.50,519.84
72.94303,476.69,519.19
72.96318,475.49,518.47
72.98337,476.34,519.73
73.00366,476.89,518.37
73.02387,476.32,519.85
73.04479,476.36,517.38
73.06334,475.15,516.57
73.08366,473.75,517.07
73.10401,474.12,518.86
73.12398,472.22,517.64
73.14414,471.63,516.95
73.16367,470.51,517.66
73.18495,474.06,518.49
73.20425,472.10,517.75
73.22452,474.52,520.00
73.24323,472.73,519.14
73.26361,473.52,517.45
73.28361,475.78,518.63
73.30407,474.08,517.87
73.32310,475.19,519.69
73.34506,478.65,520.48
73.36331,478.19,519.42
73.38315,474.97,517.51
73.40475,476.16,517.37
73.42510,477.32,518.78
73.44324,478.42,519.23
73.46408,474.24,515.19
73.48308,475.62,516.06
73.50365,474.80,514.65
73.52307,473.98,515.46
73.54451,477.36,518.65
73.56485,476.09,516.75
73.58420,475.07,517.23
73.60447,472.00,516.65
73.62403,472.77,514.46
73.64413,473.23,515.52
73.66322,473.20,515.12
73.68479,471.50,515.40
73.70437,469.42,516.26
73.72498,470.52,515.86
73.74413,468.57,512.42
73.76491,468.84,513.54
73.78459,465.22,513.74
73.80539,465.74,516.76
73.82510,464.84,513.76
73.84574,463.94,512.81
73.86593,467.84,514.23
73.88552,468.34,513.97
73.90542,470.44,514.42
73.92473,469.75,513.38
73.94699,471.28,516.29
73.96659,474.43,513.37
73.98625,474.37,511.32
74.00627,471.86,512.87
74.02672,472.59,510.77
74.04777,473.38,513.32
74.06727,471.49,512.18
74.08735,471.40,508.84
74.10615,472.61,510.72
74.12609,470.74,510.25
74.14769,471.11,511.30
74.16742,471.87,508.90
74.18766,468.78,511.18
74.20763,471.59,510.88
74.22643,472.50,509.82
74.24757,470.17,510.65
74.26641,471.92,512.77
74.28595,472.31,512.13
74.30781,471.97,510.22
74.32766,470.44,510.26
74.34651,472.71,510.44
74.36736,471.14,513.86
74.38679,472.40,511.44
74.40707,471.45,512.08
74.42860,469.18,510.96
74.44820,468.66,512.60
74.46726,465.23,511.44
74.48798,465.56,511.64
74.50810,466.24,511.10
74.52894,470.13,513.04
74.54847,469.32,512.65
74.56888,470.74,513.01
74.58829,469.81,512.36
74.60755,468.38,513.01
74.62789,470.08,512.57
74.64933,468.96,515.32
74.67092,471.49,512.26
74.69100,471.43,511.99
74.70989,472.51,513.64
74.73074,473.45,514.50
74.75014,470.83,509.98
74.77112,475.16,510.80
74.79120,474.27,510.69
74.81018,471.35,512.72
74.83075,473.66,509.93
74.85155,471.88,512.32
74.87188,468.96,510.88
74.89036,471.16,510.48
74.91163,467.75,507.65
74.93009,468.88,506.96
74.95154,472.01,507.50
74.97173,472.06,508.37
74.99197,469.11,507.21
75.01094,471.55,506.64
75.03100,470.86,505.13
75.05241,470.51,505.76
75.07337,474.95,506.63
75.09394,474.64,506.24
75.11307,473.83,505.41
75.13334,474.68,507.94
75.15382,475.76,506.08
75.17294,477.44,510.79
75.19249,478.61,506.01
75.21341,477.44,501.27
75.23371,476.29,487.67
75.25220,474.04,475.69
75.27277,475.85,461.47
75.29207,472.30,444.56
75.31309,470.93,431.09
75.33363,467.02,418.55
75.35381,466.74,407.92
75.37373,464.73,401.85
75.39389,463.45,392.11
75.41370,463.23,390.57
75.43466,466.21,392.40
75.45447,466.84,392.61
75.47325,467.16,401.02
75.49330,470.75,405.21
75.51384,473.08,410.53
75.53356,474.32,419.54
75.55486,473.52,428.00
75.57402,475.26,434.36
75.59321,476.72,443.31
75.61331,479.15,447.92
75.63462,476.95,454.49
75.65488,480.77,463.26
75.67393,479.99,469.19
75.69460,478.87,475.90
75.71474,481.57,479.22
75.73340,482.56,483.89
75.75405,479.34,490.76
75.77510,480.33,495.87
75.79283,482.51,524.22
75.81459,487.36,556.91
75.83446,444.87,602.75
75.85447,456.18,643.68
75.87340,465.67,671.79
75.89475,475.08,691.66
75.91459,477.81,691.65
75.93441,481.32,684.60
75.95316,485.11,668.92
75.97360,483.54,652.06
75.99455,486.77,634.92
76.01458,487.32,619.25
76.03496,488.12,604.60
76.05382,487.58,593.59
76.07440,484.49,584.17
76.09408,484.37,572.22
76.11340,486.79,563.69
76.13362,484.08,557.00
76.15406,483.48,549.56
76.17473,481.25,546.05
76.19334,482.99,540.82
76.21460,481.28,536.63
76.23438,481.98,537.58
76.25423,479.64,534.55
76.27425,479.52,532.15
76.29322,478.99,527.14
76.31405,476.65,528.42
76.33345,477.87,527.19
76.35330,474.31,524.75
76.37358,475.28,520.63
76.39460,474.25,523.16
76.41321,476.08,518.56
76.43448,475.56,517.18
76.45504,477.50,518.04
76.47371,476.49,517.89
76.49296,478.58,516.14
76.51439,478.26,519.01
76.53666,479.22,519.80
76.55605,481.81,516.73
76.57636,482.21,519.26
76.59559,479.47,519.15
76.61655,482.85,521.05
76.63555,478.84,520.70
76.65503,481.67,516.39
76.67551,483.96,519.63
76.69690,484.06,517.94
76.71522,486.19,517.45
76.73550,486.53,516.84
76.75577,483.10,514.90
76.77615,483.61,513.66
76.79624,484.19,516.17
76.81584,486.69,515.48
76.83547,487.08,517.52
76.85539,487.48,518.69
76.87649,484.04,517.36
76.89624,484.64,515.22
76.91585,485.27,514.66
76.93559,485.40,515.12
76.95780,483.78,517.11
76.97792,483.28,516.88
76.99699,487.04,516.40
77.01785,489.40,517.45
77.03701,488.95,519.55
77.05656,490.38,517.82
77.07680,490.01,518.37
77.09749,491.28,519.16
77.11716,488.45,518.51
77.13746,489.05,519.87
77.15704,489.42,515.99
77.17619,489.65,517.55
77.19614,487.75,517.80
77.21673,488.87,517.36
77.23797,486.28,518.55
77.25705,487.55,516.57
77.27645,485.82,517.48
77.29730,485.17,516.92
77.31650,485.72,515.65
77.33758,484.35,516.18
77.35728,483.52,516.32
77.37663,487.05,516.59
77.39785,484.84,515.59
77.41631,488.16,513.47
77.43622,483.94,517.02
77.45671,483.73,516.01
77.47706,483.45,517.77
77.49716,482.60,517.26
77.51625,484.82,516.47
77.53758,484.63,516.76
77.55641,485.40,518.53
77.57672,484.40,519.08
77.59753,485.55,518.23
77.61700,486.00,514.11
77.63610,485.76,515.97
77.65726,483.70,516.83
77.67696,483.92,517.83
77.69593,485.42,516.42
77.71589,486.63,517.53
77.73673,486.62,518.26
77.75665,489.35,518.41
77.77784,489.11,518.28
77.79786,489.43,514.43
77.81741,486.89,516.05
77.83604,484.81,516.35
77.85747,487.86,516.71
77.87702,485.27,514.49
77.89693,487.18,514.97
77.91644,486.49,518.04
77.93786,487.61,516.64
77.95710,486.75,514.24
77.97700,486.77,513.23
77.99653,486.51,514.48
78.01634,485.68,514.93
78.03674,485.02,515.70
78.05733,488.85,511.79
78.07607,485.58,513.71
78.09637,487.70,513.28
78.11799,485.64,515.44
78.13709,486.62,512.38
78.15621,486.44,513.68
78.17775,484.22,512.36
78.19795,487.55,514.55
78.21744,484.79,513.35
78.23620,485.17,515.00
78.25685,487.22,512.01
78.27791,483.60,512.66
78.29638,485.49,512.16
78.31729,484.04,514.39
78.33617,483.79,515.05
78.35714,483.10,515.39
78.37628,486.72,514.90
78.39613,486.83,514.23
78.41633,485.11,513.54
78.43681,484.27,515.04
78.45692,485.75,515.17
78.47649,483.59,515.56
78.49755,484.38,515.35
78.51697,483.59,514.54
78.53776,482.40,516.64
78.55612,485.44,517.27
78.57718,485.14,517.30
78.59631,483.66,515.50
78.61687,485.99,515.19
78.63602,484.01,512.88
78.65613,480.26,515.87
78.67670,482.57,512.06
78.69788,482.31,513.95
78.71638,484.77,514.49
78.73794,484.94,514.08
78.75624,484.50,514.98
78.77674,482.84,516.22
78.79795,484.37,515.48
78.81710,481.92,516.81
78.83768,485.46,514.90
78.85610,485.56,517.52
78.87719,485.26,517.08
78.89581,486.80,516.79
78.91703,483.42,515.10
78.93658,486.28,516.26
78.95684,486.70,517.66
78.97768,486.61,515.74
78.99717,485.80,515.06
79.01632,483.35,516.10
79.03744,485.67,516.79
79.05626,482.04,515.17
79.07667,484.68,512.64
79.09784,486.02,514.91
79.11755,478.85,513.61
79.13689,479.47,514.63
79.15688,479.95,511.24
79.17792,482.64,513.75
79.19660,484.75,512.87
79.21662,487.83,512.66
79.23637,488.04,515.39
79.25639,489.39,512.75
79.27616,486.84,508.38
79.29590,487.89,495.52
79.31771,487.80,479.49
79.33621,488.87,461.63
79.35769,485.89,443.57
79.37754,485.54,423.86
79.39603,483.46,410.02
79.41732,483.67,399.17
79.43672,481.74,391.18
79.45761,481.03,382.39
79.47695,478.79,378.07
79.49673,478.12,378.58
79.51748,478.16,382.95
79.53645,480.89,388.92
79.55772,481.57,395.36
79.57755,481.38,405.35
79.59676,483.94,413.98
79.61768,480.06,421.66
79.63909,483.92,431.93
79.65757,485.32,442.13
79.67886,484.95,447.62
79.69776,485.69,456.76
79.71912,485.57,464.96
79.73985,486.40,471.92
79.75995,487.95,479.57
79.77874,487.11,484.31
79.79897,485.40,490.06
79.81829,486.40,494.22
79.83951,485.22,496.71
79.86001,483.37,498.85
79.87828,483.89,516.11
79.89925,486.80,543.30
79.91872,486.81,581.89
79.93924,491.09,623.80
79.95898,490.09,656.74
79.97899,491.49,682.00
79.99907,490.95,694.78
80.01943,493.83,703.38
80.03881,492.91,697.83
80.05834,495.22,684.71
80.07884,491.57,664.31
80.09946,493.70,642.69
80.11944,491.49,625.74
80.14403,490.11,608.37
80.15953,488.50,590.01
80.17964,487.91,576.61
80.19950,489.13,568.00
80.22025,485.77,557.99
80.24084,487.25,554.60
80.26010,487.11,549.18
80.28009,485.14,542.20
80.29991,487.47,539.20
80.31951,488.69,532.81
80.34004,486.66,530.80
80.35990,490.92,530.26
80.37962,489.09,526.97
80.40008,491.53,524.73
80.41905,492.32,526.18
80.43939,490.86,523.63
80.45945,490.88,523.69
80.47906,488.24,522.70
80.50006,488.38,524.87
80.52080,487.07,522.32
80.53928,488.29,523.53
80.55954,487.42,522.39
80.57994,487.54,521.72
80.60068,490.21,523.83
80.62097,486.98,524.70
80.64079,490.80,523.25
80.66090,488.97,523.59
80.67952,492.38,522.52
80.69897,491.12,522.75
80.72049,491.20,525.76
80.73953,488.49,523.32
80.75960,488.55,523.88
80.77971,486.48,522.77
80.79980,488.75,524.05
80.82108,487.15,522.53
80.83924,488.32,521.04
80.85979,488.54,521.83
80.88057,487.49,521.64
80.89954,486.58,523.62
80.92055,489.03,523.75
80.93960,489.89,520.38
80.95990,488.62,518.68
80.97870,488.61,522.60
80.99970,491.02,522.49
81.01902,488.35,522.41
81.04057,490.52,522.60
81.05983,487.02,521.53
81.08016,487.78,522.32
81.09916,487.78,520.22
81.11940,487.26,523.46
81.13970,490.51,521.61
81.15967,486.98,522.06
81.18019,486.11,523.61
81.19935,487.76,521.64
81.21942,485.63,522.44
81.24073,484.70,522.25
81.26000,485.00,521.87
81.27889,485.54,523.30
81.30060,488.38,523.97
81.32047,486.07,524.49
81.33907,487.50,521.25
81.35924,486.44,520.73
81.37976,487.39,523.41
81.40089,487.02,522.46
81.42048,486.33,521.70
81.43945,488.79,521.74
81.45942,485.45,519.86
81.47920,487.94,521.58
81.50068,487.51,519.85
81.51982,486.70,521.16
81.54073,486.79,519.43
81.55971,488.79,521.06
81.58001,488.08,519.03
81.59902,489.37,520.34
81.62038,488.08,520.64
81.64079,485.49,518.95
81.65944,486.99,519.59
81.67987,487.10,519.51
81.69984,487.50,519.84
81.72026,489.06,519.95
81.74025,486.81,520.58
81.76003,489.15,521.49
81.78164,490.28,519.84
81.80153,488.03,521.72
81.82040,487.96,520.45
81.84128,488.94,519.94
81.86093,489.83,518.50
81.88087,487.71,518.10
81.90057,489.92,517.60
81.92119,486.70,517.67
81.94125,487.60,520.07
81.96117,487.79,520.02
81.98159,489.92,520.04
82.00103,490.73,519.84
82.02032,489.96,520.71
82.04002,486.14,519.70
82.06058,488.60,519.22
82.08022,485.87,520.43
82.10196,486.91,522.56
82.12172,484.21,522.94
82.14110,484.85,518.84
82.16279,484.37,521.21
82.18148,485.48,520.15
82.20266,485.08,519.00
82.22263,487.62,521.33
82.24349,485.13,518.88
82.26354,486.86,519.31
82.28250,484.49,518.46
82.30371,483.22,518.70
82.32275,485.85,518.93
82.34318,484.85,518.71
82.36240,486.92,520.39
82.38342,485.01,519.47
82.40285,486.12,517.61
82.42288,485.02,519.41
82.44230,485.73,520.30
82.46242,485.14,519.57
82.48371,487.84,519.48
82.50396,484.60,517.89
82.52231,487.06,520.05
82.54291,485.69,518.98
82.56314,486.87,516.53
82.58356,487.49,516.99
82.60206,483.39,517.92
82.62305,483.74,518.00
82.64375,483.74,520.86
82.66320,485.05,519.42
82.68202,486.44,518.92
82.70329,483.21,520.18
82.72251,485.27,517.32
82.74370,485.08,519.12
82.76276,483.78,517.07
82.78322,486.12,516.57
82.80254,484.35,517.42
82.82235,485.12,517.71
82.84299,484.44,516.93
82.86312,486.04,516.56
82.88247,483.29,518.31
82.90316,483.31,517.32
82.92347,484.00,516.73
82.94209,485.27,516.76
82.96271,486.91,519.69
82.98399,486.14,520.81
83.00322,485.20,518.84
83.02369,484.92,518.15
83.04279,485.83,518.15
83.06384,485.23,517.09
83.08414,483.77,516.05
83.10308,485.66,516.65
83.12419,485.27,517.24
83.14301,485.70,516.85
83.16273,485.36,517.38
83.18480,485.02,517.52
83.20320,485.83,519.02
83.22354,485.69,520.43
83.24330,484.82,518.41
83.26359,486.34,516.06
83.28353,485.61,516.13
83.30455,484.26,515.50
83.32301,485.81,516.29
83.34388,486.01,517.75
83.36291,483.46,514.16
83.38460,483.23,514.85
83.40374,482.94,517.54
83.42393,482.10,517.75
83.44415,486.56,515.10
83.46293,482.00,516.43
83.48290,483.82,518.41
83.50343,483.34,507.89
83.52479,485.00,492.66
83.54405,481.64,477.39
83.56383,480.51,454.96
83.58330,477.42,437.04
83.60408,474.16,417.60
83.62479,475.29,404.27
83.64342,473.56,392.75
83.66344,474.21,387.27
83.68488,474.56,381.50
83.70461,476.04,381.04
83.72368,475.07,379.64
83.74391,474.93,386.81
83.76409,476.51,393.44
83.78360,481.08,402.53
83.80410,479.72,410.96
83.82357,481.11,420.59
83.84407,479.50,428.69
83.86307,484.20,439.98
83.88412,483.44,451.18
83.90346,482.43,457.68
83.92294,480.91,464.69
83.94441,480.17,471.21
83.96295,479.51,475.87
83.98428,482.51,481.15
84.00298,482.95,486.99
84.02353,483.45,491.38
84.04480,484.28,494.76
84.06390,483.47,496.56
84.08450,484.41,510.62
84.10346,485.39,539.21
84.12466,488.71,573.25
84.14287,488.98,619.57
84.16371,492.81,657.71
84.18496,491.67,681.66
84.20445,490.92,685.76
84.22394,491.87,679.99
84.24500,487.60,669.25
84.26497,487.87,651.13
84.28525,485.69,637.30
84.30499,484.64,618.08
84.32575,481.97,605.90
84.34525,483.47,590.54
84.36592,480.42,579.39
84.38534,483.08,571.66
84.40570,482.10,559.53
84.42409,483.10,552.27
84.44483,480.41,548.47
84.46464,479.11,545.05
84.48407,478.42,540.11
84.50395,482.46,538.64
84.52560,482.86,532.74
84.54414,479.74,531.24
84.56502,481.10,529.87
84.58620,483.26,524.76
84.60541,482.35,523.84
84.62612,480.50,524.50
84.64574,482.05,521.81
84.66669,480.40,519.49
84.68557,481.82,519.09
84.70569,479.18,516.63
84.72567,478.80,519.00
84.74682,477.50,514.65
84.76622,479.41,517.75
84.78589,480.36,517.01
84.80688,478.70,517.10
84.82615,478.78,519.33
84.84582,475.89,517.57
84.86590,478.74,517.20
84.88551,478.47,517.49
84.90639,479.48,515.68
84.92479,480.98,517.45
84.94596,478.88,515.12
84.96559,478.86,512.47
84.98603,477.12,513.77
85.00713,478.74,514.69
85.02652,474.77,512.38
85.04636,474.32,513.47
85.06624,476.94,512.01
85.08736,475.90,516.25
85.10594,476.00,520.71
85.12637,476.59,520.56
85.14649,476.71,521.42
85.16714,477.16,523.09
85.18775,476.82,520.29
85.20694,477.04,521.02
85.22582,476.19,519.41
85.24838,473.61,520.33
85.26898,472.67,519.38
85.28810,468.98,516.36
85.30841,469.86,514.49
85.32953,467.70,515.83
85.34868,469.86,515.91
85.37010,467.64,515.23
85.38969,465.57,513.53
85.40975,467.97,514.38
85.43006,467.75,513.98
85.45203,467.14,516.20
85.47207,466.65,512.59
85.49255,466.90,511.64
85.51373,468.80,512.93
85.53256,466.80,511.35
85.55198,467.01,510.95
85.57342,467.10,511.79
85.59259,467.12,511.40
85.61336,468.67,509.21
85.63215,472.29,508.85
85.65329,468.42,509.52
85.67250,469.91,508.21
85.69328,469.95,508.17
85.71314,470.88,509.86
85.73321,469.40,510.08
85.75331,474.04,510.65
85.77200,474.44,508.24
85.79230,473.34,506.73
85.81186,473.37,506.50
85.83323,472.92,508.97
85.85206,475.12,507.92
85.87251,471.64,508.76
85.89304,472.88,505.59
85.91245,472.43,506.30
85.93272,471.49,507.08
85.95197,472.40,509.05
85.97214,472.50,506.53
85.99308,470.95,507.19
86.01321,469.61,505.48
86.03181,469.96,505.92
86.05170,468.84,507.96
86.07333,465.18,506.93
86.09360,465.20,507.88
86.11337,466.19,506.07
86.13393,467.92,505.29
86.15201,467.86,507.40
86.17240,465.19,507.09
86.19252,467.53,505.68
86.21334,469.18,504.92
86.23291,466.93,503.07
86.25207,465.70,502.77
86.27301,466.36,505.06
86.29308,467.77,506.82
86.31318,469.02,506.84
86.33291,467.21,503.79
86.35184,470.11,501.21
86.37191,467.90,502.48
86.39235,469.28,502.14
86.41199,471.86,502.28
86.43344,469.47,500.39
86.45367,471.22,500.86
86.47228,471.54,500.86
86.49300,468.82,500.75
86.51306,469.06,504.34
86.53340,472.05,506.17
86.55449,473.16,503.42
86.57308,469.94,506.93
86.59386,471.73,507.67
86.61419,474.47,506.28
86.63262,474.06,507.39
86.65334,471.11,506.08
86.67324,474.07,506.61
86.69359,474.53,506.95
86.71307,473.95,505.32
86.73349,470.57,506.98
86.75449,474.34,507.60
86.77449,470.63,507.86
86.79425,473.69,506.66
86.81403,472.07,506.06
86.83554,471.61,506.76
86.85476,472.38,506.77
86.87537,470.65,508.86
86.89510,471.16,509.82
86.91542,471.19,509.02
86.93494,473.09,506.68
86.95471,473.86,506.18
86.97520,470.87,505.70
86.99412,472.23,509.58
87.01505,471.75,507.51
87.03467,471.94,507.04
87.05500,471.39,510.29
87.07434,470.55,510.27
87.09420,471.80,509.68
87.11548,474.90,508.69
87.13508,473.75,508.50
87.15551,475.67,510.30
87.17444,473.48,508.55
87.19462,472.61,508.65
87.21462,474.40,511.27
87.23480,475.66,509.73
87.25666,475.67,509.30
87.27496,476.32,509.05
87.29678,475.64,511.35
87.31489,476.89,512.39
87.33561,477.12,510.66
87.35606,477.74,508.55
87.37597,477.97,509.95
87.39679,478.54,511.21
87.41627,479.71,511.70
87.43606,477.31,512.58
87.45704,477.71,511.77
87.47595,479.19,509.46
87.49614,481.86,511.21
87.51658,479.32,513.08
87.53810,482.09,513.60
87.55761,481.74,513.94
87.57749,484.10,511.36
87.59802,484.09,512.28
87.61707,484.37,509.93
87.63709,483.91,511.31
87.65706,486.20,513.29
87.67810,483.14,511.59
87.69800,485.45,512.95
87.71832,484.64,512.51
87.73822,486.55,516.08
87.75866,483.30,515.20
87.77723,484.10,514.48
87.79793,482.63,514.89
87.81724,484.66,517.18
87.83778,484.56,515.65
87.85771,481.67,515.11
87.87717,484.07,516.08
87.89791,484.49,516.61
87.91876,484.03,514.31
87.93816,482.16,502.24
87.95724,479.72,488.10
87.97678,478.69,467.19
87.99808,479.74,447.95
88.01666,477.95,432.09
88.03853,479.70,422.40
88.05841,480.15,412.63
88.07799,481.30,403.99
88.09919,480.88,398.05
88.11821,484.76,394.50
88.13787,483.08,394.28
88.15832,483.12,395.57
88.17945,484.34,398.82
88.19954,487.18,405.00
88.22034,485.74,408.88
88.23981,489.59,415.59
88.26064,487.45,424.63
88.28071,489.22,428.47
88.29867,488.99,437.45
88.31933,486.67,444.82
88.34036,489.97,455.07
88.36027,488.09,459.10
88.38087,490.22,466.95
88.39935,490.86,474.32
88.42052,490.42,477.81
88.43968,491.12,484.36
88.45857,490.59,489.79
88.47910,490.90,495.26
88.49894,491.92,498.06
88.51992,488.80,500.97
88.53886,490.01,502.14
88.56056,490.20,503.59
88.57965,490.62,513.09
88.60027,488.64,536.73
88.61932,493.38,566.99
88.63898,493.59,603.57
88.65899,498.21,638.28
88.67902,496.72,664.67
88.69920,500.09,684.84
88.72050,496.87,696.03
88.74023,496.55,688.64
88.76002,492.13,677.27
88.78052,490.92,657.31
88.80012,490.17,642.87
88.81916,488.98,625.40
88.84032,490.11,608.40
88.85908,487.25,593.31
88.87967,490.75,583.19
88.90057,490.33,571.30
88.91913,486.88,563.46
88.93974,487.91,552.90
88.95933,488.13,548.25
88.97900,487.37,543.07
88.99950,486.13,538.70
89.02013,487.76,533.16
89.03939,488.58,531.80
89.06072,485.58,528.14
89.07868,486.40,527.49
89.09948,489.40,525.65
89.11919,487.81,526.27
89.13893,488.07,525.33
89.15986,488.67,523.04
89.17900,488.23,524.23
89.19962,490.00,524.88
89.21943,490.53,523.82
89.23921,488.97,524.31
89.26035,488.40,523.92
89.27947,490.57,523.71
89.30070,488.32,523.38
89.32003,489.40,524.62
89.33942,488.89,520.63
89.36054,493.24,522.21
89.38046,490.69,520.95
89.39902,491.51,521.95
89.42060,493.22,519.01
89.43988,493.31,522.74
89.45930,490.83,520.20
89.47893,488.46,520.99
89.49925,490.34,520.15
89.51953,489.37,519.56
89.53983,488.80,520.59
89.55950,488.07,518.85
89.57987,491.59,521.52
89.59931,490.04,518.25
89.62025,488.97,519.11
89.63905,491.17,521.23
89.65961,488.62,520.37
89.67926,491.04,519.75
89.69982,488.10,519.17
89.71958,490.03,518.45
89.73928,486.88,516.70
89.75995,490.10,517.91
89.77953,489.34,519.05
89.79946,488.27,516.44
89.81902,489.17,519.69
89.84066,486.94,518.15
89.85983,490.16,518.66
89.87941,492.64,520.86
89.89938,488.77,522.21
89.92023,491.16,522.29
89.94063,490.55,524.05
89.95909,488.34,522.86
89.98040,491.69,521.55
89.99949,489.71,523.70
90.01912,492.78,521.97
90.03894,491.66,522.18
90.05984,490.86,518.67
90.07874,491.64,518.90
90.09895,491.48,519.76
90.12016,490.62,521.77
90.14000,488.51,523.29
90.15979,487.14,520.85
90.17939,488.53,523.22
90.20039,487.39,522.89
90.21938,485.83,519.64
90.24035,487.35,523.57
90.26041,489.87,520.26
90.28049,487.38,521.03
90.30018,489.57,520.64
90.31861,488.07,521.17
90.33887,486.61,523.56
90.35990,487.58,521.69
90.38128,489.81,521.24
90.40208,485.67,523.13
90.42337,487.96,522.28
90.44338,486.97,524.63
90.46363,487.82,525.79
90.48335,487.49,522.31
90.50290,483.41,522.80
90.52356,485.81,522.92
90.54385,484.04,523.40
90.56454,486.14,522.00
90.58384,482.55,522.25
90.60436,483.88,519.46
90.62447,484.58,521.76
90.64361,481.54,522.25
90.66285,485.36,518.11
90.68463,482.14,518.99
90.70437,481.80,518.33
90.72439,482.66,518.63
90.74490,483.23,522.86
90.76408,483.05,520.29
90.78465,483.96,520.61
90.80433,482.80,521.72
90.82503,484.30,519.89
90.84461,483.09,521.14
90.86351,484.20,521.21
90.88387,482.97,520.23
90.90413,482.15,521.55
90.92443,481.71,520.85
90.94485,481.59,518.58
90.96413,482.09,517.18
90.98463,480.35,519.65
91.00462,479.19,518.30
91.02434,481.45,518.27
91.04419,479.04,515.70
91.06363,479.02,516.30
91.08488,480.06,514.82
91.10541,477.80,517.42
91.12620,477.55,514.78
91.14618,479.08,514.69
91.16633,477.43,518.49
91.18482,478.68,519.00
91.20560,480.86,518.85
91.22589,478.56,517.33
91.24603,481.52,520.70
91.26679,480.16,520.56
91.28597,478.95,519.28
91.30593,481.61,520.36
91.32516,479.68,518.40
91.34571,478.61,519.82
91.36510,480.85,517.72
91.38557,478.43,517.64
91.40658,477.61,515.25
91.42503,478.02,517.52
91.44588,475.91,516.71
91.46671,476.70,515.00
91.48663,476.86,517.84
91.50607,477.88,514.65
91.52626,480.56,514.93
91.54635,478.67,516.67
91.56540,478.58,518.03
91.58543,478.58,515.20
91.60593,476.40,515.11
91.62537,475.85,514.83
91.64481,477.42,516.13
91.66673,478.37,515.91
91.68541,477.64,517.65
91.70500,476.47,517.74
91.72508,475.25,516.31
91.74557,474.47,517.68
91.76459,475.17,516.05
91.78550,473.75,517.54
91.80654,475.61,516.33
91.82538,474.60,515.14
91.84577,476.90,516.83
91.86543,476.23,517.10
91.88501,478.17,517.78
91.90577,477.13,514.58
91.92646,472.77,508.23
91.94645,472.15,498.51
91.96480,468.91,485.38
91.98480,466.33,472.72
92.00596,465.91,460.37
92.02643,467.33,446.40
92.04590,463.54,435.70
92.06602,464.30,423.23
92.08515,464.17,409.33
92.10584,462.55,404.39
92.12637,464.49,396.90
92.14635,466.36,392.14
92.16560,466.11,388.06
92.18458,469.17,390.37
92.20501,467.98,391.38
92.22551,470.57,398.41
92.24612,471.60,405.91
92.26532,471.31,411.42
92.28494,470.77,417.49
92.30617,468.73,427.45
92.32567,469.54,435.22
92.34659,469.43,442.91
92.36541,471.42,452.73
92.38656,471.02,459.23
92.40592,471.16,469.32
92.42588,474.47,475.74
92.44651,475.81,478.87
92.46591,473.33,483.85
92.48452,473.00,489.49
92.50636,473.25,495.22
92.52500,473.51,497.18
92.54528,473.31,505.24
92.56529,477.01,521.48
92.58616,479.47,555.11
92.60603,482.66,591.23
92.62651,485.25,626.92
92.64523,490.34,659.91
92.66633,493.09,683.01
92.68548,496.40,703.18
92.70581,496.89,704.08
92.72556,498.06,692.20
92.74643,494.28,676.42
92.76559,494.81,657.51
92.78633,492.15,639.66
92.80492,490.62,622.80
92.82638,487.15,608.01
92.84496,485.13,595.69
92.86569,485.20,582.89
92.88474,483.17,571.65
92.90471,481.19,559.56
92.92654,482.33,554.82
92.94549,480.95,549.40
92.96588,480.09,543.07
92.98502,476.47,537.82
93.00568,477.46,534.31
93.02534,477.46,531.67
93.04555,479.97,529.32
93.06500,477.60,530.11
93.08550,477.88,528.87
93.10607,479.41,525.91
93.12622,476.72,523.10
93.14632,478.54,522.91
93.16538,478.45,519.09
93.18623,479.36,518.61
93.20548,478.59,516.57
93.22601,476.35,517.72
93.24646,477.04,517.59
93.26612,476.48,517.30
93.28660,478.11,514.16
93.30527,476.84,514.25
93.32508,476.52,514.07
93.34671,477.92,515.19
93.36565,475.66,515.57
93.38500,479.33,514.81
93.40664,476.11,516.29
93.42656,476.88,517.31
93.44657,475.91,515.91
93.46585,475.74,516.80
93.48652,477.06,517.99
93.50655,474.95,514.03
93.52474,474.39,514.28
93.54506,477.41,518.23
93.56500,477.27,517.12
93.58504,477.75,516.29
93.60618,477.58,514.27
93.62541,477.12,517.07
93.64607,476.47,516.28
93.66503,473.62,512.80
93.68646,477.49,515.87
93.70479,477.53,514.66
93.72586,476.04,513.29
93.74483,477.72,514.23
93.76628,475.52,514.02
93.78587,474.64,512.58
93.80497,476.82,514.26
93.82601,477.89,514.03
93.84518,475.75,513.64
93.86552,476.80,518.08
93.88594,477.55,516.12
93.90640,479.66,516.43
93.92634,480.16,516.83
93.94471,480.15,516.84
93.96535,480.82,514.52
93.98538,479.48,517.19
94.00475,476.40,517.68
94.02669,477.75,517.60
94.04511,473.52,519.47
94.06633,475.77,519.44
94.08535,477.71,519.20
94.10586,477.23,518.05
94.12596,475.08,519.34
94.14533,475.93,520.38
94.16649,474.59,518.54
94.18574,474.50,518.30
94.20649,475.00,519.64
94.22506,475.07,518.16
94.24653,472.12,520.64
94.26452,472.27,521.71
94.28654,471.98,518.98
94.30665,472.56,520.94
94.32486,474.05,519.33
94.34645,473.87,517.90
94.36565,473.97,520.53
94.38590,473.50,517.86
94.40609,474.84,519.38
94.42578,472.72,519.36
94.44505,473.52,515.90
94.46606,475.68,515.68
94.48536,475.99,516.47
94.50513,473.94,519.99
94.52559,475.08,519.92
94.54492,475.49,519.62
94.56516,471.35,516.94
94.58654,472.44,517.40
94.60607,473.69,518.98
94.62585,474.47,520.91
94.64616,475.25,518.50
94.66528,475.18,517.61
94.68491,474.89,516.31
94.70495,475.82,520.09
94.72470,474.30,518.43
94.74514,476.90,520.74
94.76619,476.13,518.10
94.78563,475.38,518.89
94.80565,473.60,516.82
94.82628,475.96,516.23
94.84454,474.32,517.65
94.86520,473.86,517.14
94.88590,475.58,518.78
94.90581,474.52,516.16
94.92553,474.29,515.70
94.94634,475.04,517.07
94.96565,475.19,515.17
94.98495,474.69,516.15
95.00524,475.88,515.25
95.02645,474.62,519.19
95.04524,473.37,519.52
95.06621,474.29,522.27
95.08592,474.76,519.77
95.10526,474.49,519.97
95.12545,476.38,522.61
95.14562,474.98,522.18
95.16468,475.57,520.30
95.18602,473.07,520.64
95.20561,470.94,521.21
95.22508,469.70,519.47
95.24578,470.99,518.62
95.26596,471.86,517.89
95.28638,474.62,517.41
95.30494,474.70,518.45
95.32602,472.11,515.35
95.34740,472.33,517.06
95.36623,472.56,517.54
95.38699,472.07,514.44
95.40609,471.74,514.70
95.42722,473.93,516.83
95.44588,469.74,516.10
95.46556,469.58,515.09
95.48700,470.28,513.19
95.50570,470.02,514.12
95.52633,467.82,515.18
95.54724,469.76,514.41
95.56574,469.06,512.34
95.58656,468.60,513.79
95.60665,467.65,513.76
95.62639,467.15,511.96
95.64632,468.98,512.30
95.66603,466.43,514.31
95.68553,466.63,513.87
95.70638,466.91,512.24
95.72606,469.69,514.01
95.74647,471.14,513.86
95.76633,469.49,515.64
95.78655,470.18,513.86
95.80726,468.78,513.45
95.82732,468.73,513.68
95.84737,466.06,514.87
95.86729,468.39,516.15
95.88571,468.36,516.48
95.90668,467.52,514.16
95.92660,466.28,515.60
95.94726,469.38,515.54
95.96721,469.91,514.29
95.98561,467.25,515.82
96.00687,466.59,515.54
96.02634,467.44,513.09
96.04588,468.09,512.19
96.06675,468.49,514.58
96.08615,466.58,512.24
96.10726,469.23,511.20
96.12743,469.59,511.21
96.14641,469.33,511.28
96.16741,470.30,510.84
96.18678,469.65,511.55
96.20612,469.42,514.82
96.22672,466.93,516.21
96.24552,469.44,515.20
96.26570,468.21,508.74
96.28565,471.44,500.39
96.30583,471.73,486.62
96.32550,467.90,468.10
96.34683,469.50,448.25
96.36586,467.58,431.02
96.38734,463.75,415.79
96.40804,464.75,398.63
96.42655,463.48,387.65
96.44761,460.94,380.32
96.46825,459.72,377.06
96.48783,458.41,375.34
96.50733,460.46,380.01
96.52840,463.39,385.57
96.54702,462.10,390.13
96.56828,464.73,398.18
96.58673,467.59,408.76
96.60704,469.41,419.34
96.62814,469.00,430.48
96.64808,466.74,439.64
96.66759,468.91,448.67
96.68746,465.97,454.44
96.70808,468.56,464.21
96.72739,465.78,468.83
96.74735,467.17,476.04
96.76671,466.45,482.47
96.78766,466.72,497.05
96.80698,468.06,520.53
96.82660,472.84,554.07
96.84645,474.57,585.41
96.86685,473.70,612.72
96.88675,474.89,635.61
96.90659,475.58,655.83
96.92709,471.45,668.17
96.94827,472.27,675.69
96.96744,469.59,677.65
96.98688,468.62,668.55
97.00860,464.99,653.21
97.02702,464.92,636.39
97.04832,468.64,621.02
97.06796,463.70,604.59
97.08828,464.29,589.69
97.10801,463.11,579.41
97.12676,461.84,569.65
97.14698,463.35,559.22
97.16740,461.78,548.98
97.18753,464.19,542.14
97.20693,466.12,538.70
97.22686,468.56,529.25
97.24642,468.46,524.85
97.26737,472.30,522.62
97.28792,471.57,520.06
97.30766,473.12,517.93
97.32822,472.44,516.71
97.34834,471.25,514.21
97.36668,471.12,513.01
97.38838,469.87,513.50
97.40658,468.82,510.27
97.42728,469.58,511.14
97.44809,466.88,509.91
97.46702,466.96,512.33
97.48710,464.39,509.84
97.50690,465.44,511.82
97.52736,468.04,510.56
97.54732,466.89,509.70
97.56664,466.27,509.35
97.58760,465.84,509.30
97.60660,468.87,510.95
97.62709,470.70,511.37
97.64835,469.87,513.34
97.66735,470.48,513.05
97.68803,467.02,512.13
97.70714,469.49,511.98
97.72765,468.97,510.83
97.74722,466.34,511.27
97.76806,469.77,512.08
97.78809,470.32,513.04
97.80682,470.30,513.21
97.82785,468.01,513.95
97.84811,468.89,513.52
97.86749,468.26,511.21
97.88657,469.57,513.26
97.90663,469.65,511.53
97.92657,467.34,512.62
97.94841,468.38,510.11
97.96792,468.46,511.78
97.98672,465.82,512.50
98.00659,468.63,509.61
98.02685,468.76,509.79
98.04729,467.53,511.22
98.06725,467.65,511.59
98.08816,468.58,512.65
98.10682,467.39,512.58
98.12702,465.83,512.35
98.14702,464.60,512.17
98.16716,466.67,509.88
98.18860,466.91,512.67
98.20841,466.92,510.30
98.22703,465.63,510.34
98.24768,466.89,510.70
98.26820,468.82,512.24
98.28670,466.30,511.89
98.30674,469.54,510.48
98.32688,468.24,511.51
98.34814,466.64,512.05
98.36716,466.56,513.22
98.38717,469.38,509.58
98.40851,467.97,509.66
98.42723,469.26,509.05
98.44810,468.51,509.53
98.46745,471.91,507.88
98.48763,470.59,509.72
98.50744,468.81,510.75
98.52760,467.71,511.23
98.54728,469.64,512.69
98.56845,469.43,512.34
98.58655,468.28,511.54
98.60839,466.38,512.02
98.62844,466.14,511.89
98.64751,468.24,510.29
98.66647,466.72,510.92
98.68805,466.25,511.25
98.70687,465.65,512.35
98.72685,466.55,509.73
98.74737,466.83,512.12
98.76815,466.55,512.57
98.78660,467.67,511.30
98.80795,465.11,510.88
98.82739,464.17,512.38
98.84657,464.64,512.42
98.86681,467.03,513.27
98.88757,466.94,510.46
98.90777,467.31,514.25
98.92700,465.89,513.79
98.94808,467.49,510.92
98.96719,468.78,513.11
98.98658,469.86,512.05
99.00760,468.05,513.17
99.02761,469.10,512.22
99.04828,467.77,508.67
99.06727,468.79,508.93
99.08710,470.10,506.38
99.10774,467.90,508.49
99.12776,471.19,507.42
99.14736,467.57,508.50
99.16703,469.13,506.90
99.18709,467.27,508.02
99.20796,466.20,505.75
99.22772,467.83,507.44
99.24676,466.52,508.61
99.26841,465.61,505.33
99.28754,468.01,507.42
99.30687,465.27,507.23
99.32811,468.03,507.86
99.34803,469.13,509.06
99.36826,466.14,509.62
99.38652,468.15,510.38
99.40806,467.51,513.13
99.42730,467.00,512.85
99.44653,471.29,511.28
99.46705,469.51,508.80
99.48752,466.72,511.30
99.50692,467.70,509.02
99.52760,466.15,510.70
99.54775,466.95,507.87
99.56824,466.98,508.81
99.58719,468.07,507.42
99.60723,466.47,508.65
99.62733,465.25,508.05
99.64709,467.43,507.97
99.66670,468.82,511.94
99.68786,469.14,509.27
99.70780,469.55,509.52
99.72844,470.04,509.02
99.74789,468.65,509.48
99.76808,469.56,512.55
99.78798,467.84,513.34
99.80765,470.41,513.15
99.82681,469.97,512.38
99.84736,468.95,510.79
99.86837,469.15,513.67
99.88736,467.93,512.57
99.90784,467.58,509.83
99.92773,468.93,511.91
99.94824,468.67,512.38
99.96800,469.61,511.13
99.98732,468.17,509.82
100.00646,468.89,510.91
100.02745,469.03,512.01
100.04692,468.68,511.87
100.06848,470.77,511.10
100.08752,468.17,511.10
100.10607,469.85,511.83
100.12775,467.62,508.54
100.14790,468.85,511.65
100.16607,468.78,510.25
100.18879,466.12,508.86
100.20785,467.77,510.63
100.22772,469.90,508.89
100.24766,467.72,507.85
100.26744,467.87,510.54
100.28660,469.42,507.17
100.30657,468.02,508.42
100.32739,468.23,508.53
100.34771,468.55,508.87
100.36877,470.37,510.89
100.38708,467.68,509.54
100.40720,468.36,508.65
100.42619,467.32,508.33
100.44630,466.64,509.00
100.46716,469.08,509.02
100.48745,469.07,510.30
100.50872,468.52,509.74
100.52743,469.87,509.38
100.54721,469.05,509.83
100.56618,470.65,509.83
100.58656,468.70,509.75
100.60702,467.57,512.48
100.62740,465.76,510.40
100.64612,468.12,508.73
100.66750,468.59,511.44
100.68615,469.27,509.15
100.70896,467.69,509.51
100.72849,466.36,510.90
100.74763,467.62,507.55
100.76732,466.03,496.84
100.78694,466.85,483.74
100.80670,466.94,465.19
100.82725,463.38,443.03
100.84713,466.96,424.83
100.86780,464.68,408.14
100.88789,466.84,397.28
100.90834,468.63,388.27
100.92691,466.67,380.14
100.94753,466.69,376.60
100.96692,466.24,377.68
100.98759,467.01,382.74
101.00813,469.79,386.20
101.02611,468.97,391.12
101.04715,463.81,399.81
101.06645,464.75,408.01
101.08644,466.47,417.52
101.10749,465.93,426.18
101.12614,468.44,438.72
101.14763,469.86,449.19
101.16768,468.02,457.83
101.18677,469.56,464.58
101.20707,469.30,470.95
101.22697,471.39,476.06
101.24645,471.97,482.59
101.26768,472.43,484.21
101.28724,470.63,496.49
101.30645,472.32,513.64
101.32690,471.86,543.43
101.34682,467.40,576.77
101.36766,466.55,611.55
101.38723,462.69,637.09
101.40643,465.11,661.85
101.42730,469.10,677.34
101.44618,473.06,682.07
101.46835,477.33,674.03
101.48797,478.03,661.47
101.50807,479.04,642.33
101.52618,477.15,626.45
101.54667,478.59,610.26
101.56771,476.62,594.33
101.58714,474.12,583.49
101.60740,472.82,572.15
101.62674,471.92,561.44
101.64675,471.13,555.80
101.66714,472.94,549.22
101.68636,470.15,541.45
101.70772,470.08,535.49
101.72782,468.61,530.36
101.74643,469.36,528.01
101.76813,471.50,524.02
101.78779,473.03,522.84
101.80721,470.40,518.90
101.82746,470.27,519.33
101.84651,469.37,518.14
101.86651,470.26,515.29
101.88738,470.68,515.54
101.90756,471.92,516.33
101.92615,469.25,515.56
101.94715,471.67,514.22
101.96791,471.79,512.51
101.98710,470.39,512.93
102.00605,471.06,512.12
102.02678,472.45,512.16
102.04666,471.65,510.62
102.06754,471.37,514.02
102.08715,473.79,513.88
102.10749,472.71,512.49
102.12615,471.00,512.51
102.14708,473.25,512.88
102.16678,470.39,514.95
102.18661,473.00,513.07
102.20666,470.12,514.18
102.22727,471.04,512.73
102.24637,472.91,513.60
102.26796,471.91,511.46
102.28666,473.94,512.74
102.30757,473.60,512.07
102.32722,473.75,512.19
102.34891,472.47,512.37
102.36787,472.26,512.79
102.38650,472.18,512.80
102.40644,474.38,511.63
102.42797,473.67,509.08
102.44615,473.27,511.71
102.46663,472.43,509.43
102.48701,471.72,510.52
102.50766,471.02,512.00
102.52741,471.98,508.94
102.54758,475.30,512.10
102.56821,474.45,510.82
102.58763,472.79,509.92
102.60747,471.90,511.53
102.62732,472.16,512.50
102.64797,471.63,511.60
102.66751,470.01,510.33
102.68669,470.79,513.66
102.70739,473.16,513.47
102.72661,472.77,512.85
102.74623,470.27,512.19
102.76640,469.73,512.82
102.78719,469.55,510.24
102.80660,473.04,510.12
102.82727,471.26,511.07
102.84793,470.37,510.62
102.86668,473.91,509.89
102.88674,471.03,511.78
102.90761,473.23,509.22
102.92642,472.30,509.88
102.94716,472.15,510.21
102.96739,468.67,508.34
102.98646,471.36,509.12
103.00736,469.27,511.29
103.02716,469.17,510.32
103.04642,470.90,508.02
103.06737,470.20,508.15
103.08618,470.60,507.72
103.10783,471.57,508.91
103.12699,471.87,508.73
103.14719,472.34,508.64
103.16626,470.16,510.59
103.18639,470.01,509.25
103.20710,471.31,509.04
103.22678,472.18,508.66
103.24700,468.18,512.33
103.26726,468.77,513.25
103.28700,468.68,513.91
103.30742,471.01,513.47
103.32651,470.30,512.29
103.34747,470.53,513.90
103.36712,467.96,514.71
103.38764,471.54,515.82
103.40703,470.60,515.74
103.42797,472.44,515.73
103.44615,472.25,512.98
103.46743,471.21,512.87
103.48611,472.10,513.92
103.50696,473.05,511.59
103.52661,470.23,512.20
103.54677,469.71,514.66
103.56665,468.81,511.48
103.58793,468.58,512.76
103.60775,468.99,513.39
103.62745,472.48,512.91
103.64786,472.22,515.52
103.66649,472.05,513.56
103.68713,471.99,513.00
103.70674,471.66,514.30
103.72626,471.71,512.27
103.74657,471.31,510.75
103.76718,468.99,513.35
103.78730,471.04,513.21
103.80780,469.93,513.10
103.82666,470.74,512.29
103.84742,470.94,511.62
103.86764,470.77,510.98
103.88718,466.93,510.70
103.90792,468.51,509.63
103.92647,468.40,509.38
103.94748,467.40,509.92
103.96645,468.72,509.90
103.98694,470.89,508.89
104.00737,468.01,509.89
104.02741,467.86,511.82
104.04690,471.02,508.95
104.06676,470.34,509.57
104.08635,471.93,511.35
104.10769,469.00,509.09
104.12723,469.58,509.18
104.14787,471.52,510.19
104.16706,470.71,510.83
104.18650,470.81,512.57
104.20625,470.34,511.98
104.22798,469.44,508.93
104.24769,470.61,509.48
104.26793,470.91,509.57
104.28656,468.89,511.26
104.30649,467.90,510.73
104.32706,470.17,510.51
104.34682,470.67,512.09
104.36673,469.04,509.41
104.38655,470.22,510.97
104.40697,468.33,511.66
104.42757,469.04,509.43
104.44617,468.65,509.84
104.46749,468.56,509.08
104.48644,472.24,508.48
104.50745,470.82,508.43
104.52785,474.33,509.06
104.54636,472.90,509.95
104.56606,471.82,512.29
104.58754,474.24,509.36
104.60768,473.38,511.45
104.62794,473.15,510.40
104.64783,473.11,511.10
104.66707,470.21,510.77
104.68617,470.04,510.28
104.70639,468.28,511.56
104.72656,467.97,505.26
104.74791,468.75,504.49
104.76615,472.14,504.99
104.78710,469.28,501.51
104.80607,473.54,500.72
104.82787,471.10,501.18
104.84632,472.08,503.79
104.86700,473.06,501.89
104.88694,469.86,503.52
104.90754,469.86,501.05
104.92607,471.34,503.18
104.94714,473.31,502.86
104.96662,473.05,505.14
104.98698,473.27,504.76
105.00671,471.98,505.44
105.02605,470.49,504.84
105.04741,471.87,505.20
105.06602,473.79,509.33
105.08651,474.13,508.07
105.10740,470.90,509.46
105.12763,470.32,510.52
105.14726,470.89,510.44
105.16660,473.27,509.17
105.18674,469.81,510.82
105.20739,473.81,508.65
105.22779,472.30,510.59
105.24674,472.58,511.84
105.26694,470.09,511.25
105.28747,472.82,508.52
105.30697,473.03,500.03
105.32712,474.65,488.88
105.34635,478.26,469.32
105.36774,480.15,452.36
105.38789,478.63,435.68
105.40706,477.82,418.13
105.42695,476.57,405.24
105.44793,474.29,394.90
105.46820,472.96,383.79
105.48852,468.01,377.91
105.50841,466.26,377.36
105.52737,465.83,380.43
105.54877,466.67,382.54
105.56878,466.97,389.35
105.58851,465.95,396.85
105.60820,463.12,404.55
105.62753,463.61,415.35
105.64800,465.13,424.28
105.66886,465.99,433.07
105.68862,464.84,445.56
105.70860,466.70,450.08
105.72798,469.05,457.76
105.74836,466.54,466.29
105.76828,469.55,474.03
105.78730,469.66,476.38
105.80827,469.48,480.28
105.82721,470.30,504.16
105.84738,475.10,532.11
105.86757,474.94,573.07
105.88718,477.19,612.51
105.90717,478.56,642.54
105.92841,483.07,667.43
105.94789,485.99,684.93
105.96824,483.42,689.53
105.98878,486.30,681.58
106.00758,485.55,668.09
106.02819,481.49,650.86
106.04908,480.29,634.53
106.06876,481.59,621.48
106.08737,480.38,603.46
106.10807,476.84,591.01
106.12852,478.63,580.07
106.14896,476.62,569.42
106.16810,478.93,558.84
106.18795,477.30,552.69
106.20713,479.67,546.34
106.22808,477.17,542.02
106.24820,478.58,537.37
106.26753,477.60,531.26
106.28902,478.13,527.49
106.30759,476.12,522.03
106.32855,475.43,516.42
106.34750,474.20,516.98
106.36790,475.48,515.48
106.38769,473.21,512.41
106.40803,471.53,513.89
106.42776,474.00,510.33
106.44892,474.09,510.17
106.46849,474.01,508.72
106.48773,475.38,508.95
106.50812,474.91,509.35
106.52705,475.32,510.05
106.54739,475.64,509.86
106.56847,474.16,511.10
106.58780,472.69,511.13
106.60702,473.43,510.93
106.62882,476.05,511.79
106.64844,473.23,512.10
106.66920,474.64,513.73
106.68896,477.34,512.26
106.70932,474.72,513.67
106.72846,476.96,512.98
106.74834,479.14,513.00
106.76919,476.23,515.58
106.78887,476.54,512.71
106.80849,477.69,515.36
106.82907,479.51,515.36
106.84860,477.46,513.48
106.86829,476.48,517.27
106.88844,477.87,518.12
106.90965,476.71,517.54
106.92845,479.67,517.28
106.94808,477.45,516.11
106.96867,477.05,516.01
106.98804,480.91,518.07
107.00920,478.98,517.24
107.02871,479.34,519.69
107.04991,480.24,519.02
107.06926,478.88,519.32
107.08975,478.28,519.29
107.10973,479.87,518.42
107.12825,479.06,518.97
107.14924,477.02,515.79
107.16983,480.81,516.41
107.18998,477.01,518.48
107.20815,477.14,514.38
107.22918,479.49,517.04
107.24863,479.94,513.58
107.26903,478.36,515.83
107.28883,478.33,517.01
107.30853,478.44,516.35
107.32968,478.91,515.42
107.34876,478.45,513.56
107.36910,477.52,515.05
107.38982,475.67,514.30
107.40862,475.63,514.69
107.42882,477.08,514.18
107.44820,476.14,512.11
107.46916,477.76,511.32
107.48852,476.28,510.59
107.50978,479.27,511.55
107.53078,476.92,510.07
107.54864,479.69,509.29
107.56936,478.49,511.83
107.58825,477.39,510.73
107.60927,479.49,513.78
107.62870,480.34,511.73
107.64811,480.24,512.97
107.66853,477.72,514.40
107.68916,481.39,514.87
107.70981,480.33,516.46
107.72850,482.49,513.66
107.74976,479.39,513.80
107.76903,482.08,513.89
107.78977,481.20,515.08
107.80866,481.26,511.62
107.82936,478.94,513.11
107.84801,476.83,510.76
107.86917,479.87,511.32
107.88927,478.85,512.74
107.90845,474.85,511.23
107.92845,476.33,510.89
107.94975,477.58,514.52
107.96864,477.77,511.87
107.98830,478.12,512.41
108.00810,478.10,510.85
108.02880,478.70,513.08
108.04879,477.87,510.80
108.06945,477.54,509.49
108.08990,479.61,511.01
108.10810,476.80,510.03
108.12920,479.87,510.74
108.14852,481.42,510.56
108.16911,477.63,511.60
108.18898,478.84,510.25
108.20911,477.75,509.47
108.22991,479.91,510.59
108.24878,481.16,513.56
108.26834,480.41,511.28
108.28950,479.57,511.55
108.30859,479.04,514.71
108.32930,481.44,512.04
108.34970,479.84,512.49
108.36843,478.63,515.46
108.38881,477.52,514.14
108.40916,479.08,511.54
108.42898,477.80,514.43
108.44864,476.41,515.67
108.46939,476.54,516.10
108.48801,479.32,514.67
108.50853,480.86,514.58
108.52909,480.94,514.17
108.54874,480.53,515.39
108.56871,479.61,515.88
108.58802,476.90,512.60
108.60912,477.93,515.41
108.62946,478.28,511.58
108.64812,477.58,512.95
108.66954,476.95,513.62
108.68892,479.27,513.73
108.70944,478.88,513.58
108.72903,479.86,512.20
108.74871,477.68,513.93
108.76842,478.92,513.84
108.78920,481.31,514.61
108.80878,481.93,514.80
108.82880,479.83,512.52
108.84960,478.90,513.46
108.86998,481.42,511.96
108.88874,479.62,513.36
108.90833,480.73,512.88
108.92935,478.18,513.96
108.94912,476.66,513.96
108.96979,478.83,512.40
108.98962,479.07,514.19
109.00889,476.68,513.96
109.02899,476.83,513.15
109.04906,479.56,511.04
109.06832,478.37,513.08
109.08963,480.05,511.17
109.10832,478.63,513.49
109.12938,478.76,509.78
109.14971,479.49,510.37
109.16892,479.99,510.04
109.18931,479.96,510.42
109.20983,478.55,511.73
109.22960,481.79,511.21
109.24894,480.21,513.17
109.26898,482.24,512.16
109.28862,480.56,511.81
109.30896,482.80,512.79
109.32928,482.60,512.84
109.34978,480.72,513.09
109.36840,483.20,513.80
109.38970,483.35,514.52
109.40863,479.81,504.07
109.42870,479.38,489.23
109.44973,480.76,473.33
109.46993,479.27,457.63
109.48965,480.60,446.84
109.50822,481.80,429.75
109.52895,480.08,418.34
109.54872,477.38,409.46
109.56805,478.26,399.30
109.58806,473.96,393.06
109.60855,474.57,389.31
109.62939,473.77,390.71
109.64948,472.51,390.96
109.66986,473.16,394.95
109.68817,475.39,401.48
109.70915,472.17,409.61
109.72897,473.50,417.25
109.74997,476.35,425.49
109.76997,473.19,436.97
109.78969,474.23,446.53
109.80977,475.31,452.64
109.82844,476.28,461.67
109.84928,477.67,470.04
109.86927,481.32,476.01
109.88993,481.45,480.34
109.90804,480.80,484.14
109.92910,480.76,490.09
109.94978,483.36,492.50
109.96908,481.79,497.24
109.98864,483.62,499.09
110.00838,485.45,501.69
110.02889,484.36,504.56
110.04882,484.57,520.62
110.06810,487.67,556.84
110.08918,489.60,596.61
110.10867,490.79,639.05
110.12806,490.72,670.20
110.14988,490.32,688.97
110.16894,489.33,692.97
110.18954,490.73,688.82
110.20999,489.30,671.51
110.22974,488.90,657.62
110.24979,484.34,638.63
110.26839,484.35,619.82
110.28951,484.32,602.83
110.30864,482.24,589.14
110.32856,482.93,576.40
110.34918,484.31,566.71
110.36858,484.53,558.26
110.38916,480.33,547.65
110.40850,479.57,542.72
110.42816,482.00,538.09
110.44922,483.14,532.48
110.46819,483.27,529.46
110.48861,479.33,529.26
110.50859,481.31,525.10
110.52808,479.56,519.74
110.54968,480.40,517.55
110.56831,479.10,516.54
110.58945,476.44,517.23
110.60959,478.84,515.83
110.62901,478.02,514.46
110.64824,479.79,515.70
110.66837,481.02,515.75
110.68872,483.90,515.21
110.70950,485.95,514.25
110.72826,483.33,513.31
110.74904,484.80,514.26
110.76815,483.96,515.14
110.78811,482.12,517.54
110.80937,483.01,523.78
110.82836,486.52,541.44
110.84885,494.05,570.83
110.86869,498.62,604.82
110.88912,499.64,636.05
110.90827,502.35,651.84
110.92992,500.66,647.79
110.94990,498.96,630.40
110.96918,493.79,608.23
110.98941,491.51,580.87
111.00975,485.20,556.00
111.02953,484.70,532.60
111.04834,483.78,510.01
111.06919,480.31,490.98
111.08892,481.07,474.97
111.10993,480.60,464.41
111.12975,477.17,459.14
111.14839,476.15,453.96
111.16865,477.74,455.25
111.18823,478.79,454.18
111.20988,475.73,455.46
111.22832,475.35,459.14
111.24996,476.80,462.65
111.26858,474.23,468.79
111.28978,478.08,471.98
111.30905,478.93,475.11
111.32845,478.52,478.94
111.34990,480.78,482.91
111.36903,479.62,483.86
111.39061,481.83,490.18
111.41050,482.48,494.74
111.43029,481.00,495.36
111.44994,482.73,500.79
111.46975,484.82,502.32
111.49092,486.26,506.37
111.51045,485.87,508.47
111.52998,484.12,509.13
111.55014,484.63,507.17
111.57057,484.85,509.34
111.58971,483.34,512.37
111.60943,484.87,512.69
111.63084,487.46,514.33
111.65078,487.89,511.53
111.67154,488.76,512.04
111.69119,487.21,515.37
111.71051,489.95,513.74
111.73136,488.75,516.70
111.75122,487.93,515.87
111.77109,485.70,515.22
111.79105,485.36,517.94
111.81141,485.89,516.32
111.83051,488.94,516.50
111.85131,485.38,518.06
111.87130,488.80,517.81
111.89051,486.24,515.59
111.91107,488.59,515.47
111.93076,488.86,516.64
111.95056,489.70,516.00
111.97180,487.95,515.00
111.99197,488.64,516.63
112.01039,487.04,515.08
112.03054,489.59,516.00
112.05169,488.74,514.16
112.07099,488.24,516.04
112.09161,489.54,516.25
112.11080,490.58,517.85
112.13121,488.70,517.63
112.15074,486.16,516.62
112.17068,487.22,516.71
112.19114,485.89,516.74
112.21156,487.50,519.05
112.23162,485.95,518.98
112.25071,487.72,518.45
112.27135,488.19,515.91
112.29129,487.74,514.78
112.31075,487.06,517.09
112.33183,486.06,518.80
112.35072,485.35,519.62
112.37194,485.73,517.97
112.39183,488.67,517.01
112.41022,489.23,519.12
112.43118,487.85,516.22
112.45080,487.48,518.51
112.47187,484.03,515.56
112.49183,487.22,517.78
112.51103,486.35,519.66
112.53075,487.86,515.68
112.55064,484.28,516.04
112.57122,485.73,518.71
112.59194,486.63,517.87
112.61094,489.07,519.77
112.63167,487.06,517.72
112.65035,487.39,518.16
112.67024,486.41,517.73
112.69086,484.94,519.00
112.71021,486.75,520.02
112.73030,486.86,516.17
112.75004,486.18,517.95
112.77003,484.99,518.56
112.79135,487.27,519.39
112.81146,483.83,517.58
112.83063,485.00,517.79
112.85139,487.97,518.55
112.87135,488.94,517.50
112.89171,487.93,519.11
112.91019,488.37,518.83
112.93198,487.65,520.05
112.95094,488.86,516.49
112.97096,486.51,519.42
112.99039,488.97,518.44
113.01151,486.45,519.15
113.03045,485.90,517.61
113.05199,487.38,520.55
113.07225,488.61,521.70
113.09205,486.58,519.85
113.11190,487.24,521.72
113.13165,489.71,522.23
113.15149,488.78,521.66
113.17149,492.71,521.74
113.19127,490.84,522.31
113.21203,491.84,521.40
113.23212,490.64,523.89
113.25295,491.11,524.77
113.27205,490.11,530.00
113.29129,490.94,540.03
113.31270,494.09,553.20
113.33146,495.68,572.18
113.35262,498.78,590.76
113.37203,498.60,600.02
113.39294,498.27,601.00
113.41254,495.39,595.49
113.43177,494.08,575.60
113.45150,488.95,553.05
113.47163,484.97,530.66
113.49208,484.46,514.69
113.51103,479.05,501.92
113.53172,478.01,493.39
113.55197,477.35,503.56
113.57100,477.32,522.87
113.59230,479.03,547.14
113.61291,477.77,558.10
113.63107,476.02,556.73
113.65160,473.80,545.67
113.67142,469.98,531.99
113.69293,467.83,520.23
113.71132,470.18,508.17
113.73286,472.30,501.26
113.75193,474.75,494.63
113.77120,475.03,486.66
113.79217,479.68,483.43
113.81110,482.89,486.05
113.83208,485.46,490.20
113.85142,487.09,504.80
113.87142,492.18,531.63
113.89279,496.37,561.57
113.91202,501.77,585.25
113.93197,506.85,604.80
113.95214,508.46,619.92
113.97177,512.76,631.11
113.99222,511.02,631.45
114.01194,508.39,624.08
114.03266,505.68,607.39
114.05235,499.93,577.69
114.07305,494.73,549.32
114.09217,495.39,519.18
114.11346,495.00,496.15
114.13488,490.60,482.82
114.15404,489.99,471.30
114.17558,493.46,461.63
114.19469,490.20,457.34
114.21423,491.49,453.88
114.23498,488.52,457.52
114.25522,490.57,457.50
114.27467,487.78,457.89
114.29478,488.79,463.00
114.31537,487.38,467.90
114.33487,484.05,474.86
114.35546,484.56,476.25
114.37572,486.34,484.77
114.39574,483.75,489.02
114.41423,486.18,491.38
114.43454,477.98,494.74
114.45453,473.36,497.62
114.47556,467.96,498.13
114.49562,464.27,497.37
114.51411,462.82,499.96
114.53501,465.47,499.83
114.55569,467.75,503.44
114.57585,469.20,506.74
114.59481,473.51,511.87
114.61539,475.62,512.46
114.63565,476.17,516.75
114.65581,479.70,520.41
114.67592,479.80,522.58
114.69549,486.87,523.55
114.71470,486.93,526.59
114.73455,488.57,526.73
114.75496,487.11,524.76
114.77542,488.20,524.67
114.79559,491.05,525.73
114.81631,489.03,525.34
114.83601,491.04,523.06
114.85565,480.99,521.08
114.87622,470.39,523.39
114.89698,454.39,523.09
114.91543,447.24,517.39
114.93655,439.47,514.84
114.95659,437.36,513.70
114.97559,438.11,511.79
114.99537,442.11,515.37
115.01557,444.87,514.07
115.03527,451.54,512.73
115.05627,456.23,510.24
115.07592,456.63,514.48
115.09634,459.52,516.59
115.11695,467.15,517.26
115.13669,480.52,526.87
115.15516,491.85,533.99
115.17626,499.21,541.62
115.19522,503.06,544.45
115.21511,506.40,545.61
115.23506,507.13,543.97
115.25507,509.21,540.65
115.27581,507.08,540.18
115.29534,509.05,542.64
115.31539,506.29,544.69
115.33564,502.26,540.74
115.35642,505.08,540.04
115.37660,504.62,535.56
115.39696,499.91,530.78
115.41654,503.90,528.81
115.43504,499.23,524.69
115.45556,499.36,525.30
115.47666,500.34,527.14
115.49541,501.58,531.00
115.51682,503.75,530.53
115.53646,506.97,532.09
115.55572,506.93,530.15
115.57537,511.52,529.04
115.59548,514.02,529.44
115.61503,514.31,529.61
115.63630,500.99,534.08
115.65631,487.99,541.15
115.67631,475.91,544.27
115.69691,471.45,541.80
115.71624,469.37,533.68
115.73621,472.51,526.79
115.75638,472.49,517.93
115.77527,476.09,512.31
115.79576,476.72,509.72
115.81639,481.60,505.00
115.83535,486.86,501.47
115.85598,488.33,496.82
115.87698,490.96,496.98
115.89546,493.78,514.60
115.91599,494.03,533.24
115.93521,496.62,545.83
115.95644,492.92,552.19
115.97562,493.25,550.99
115.99503,493.25,545.56
116.01557,490.80,544.15
116.03560,489.41,539.61
116.05536,489.79,536.72
116.07684,486.32,530.15
116.09604,484.67,529.48
116.11639,483.20,526.20
116.13675,485.56,523.46
116.15746,483.80,512.98
116.17876,476.93,488.64
116.19869,473.42,467.62
116.21862,465.49,456.94
116.23797,464.44,446.86
116.25775,463.46,443.09
116.27818,462.57,447.54
116.29880,467.43,450.81
116.31727,464.27,454.23
116.33854,464.91,466.11
116.35907,465.04,477.68
116.37910,465.78,509.30
116.39928,461.12,547.89
116.41955,448.13,590.66
116.44161,436.83,615.57
116.46106,420.54,632.70
116.48193,404.89,628.74
116.50039,385.38,613.66
116.52078,379.92,604.35
116.54046,373.24,584.49
116.56133,374.17,560.62
116.58024,374.53,531.59
116.60016,374.95,492.60
116.62128,387.72,462.51
116.64132,391.58,424.26
116.66128,399.94,421.56
116.68051,411.74,400.22
116.70056,424.59,378.25
116.72051,438.65,386.22
116.74010,442.02,384.94
116.76188,449.25,387.98
116.78097,458.44,406.95
116.80057,462.23,422.00
116.82280,462.17,430.19
116.84157,467.95,426.63
116.86157,472.62,430.82
116.88127,468.48,440.67
116.90266,470.75,464.28
116.92122,475.17,489.22
116.94105,506.07,519.45
116.96201,536.34,569.93
116.98169,572.56,590.18
117.00102,609.51,608.97
117.02219,633.74,603.61
117.04122,650.56,635.03
117.06179,665.07,628.39
117.08211,676.05,621.02
117.10142,672.54,645.52
117.12103,674.78,642.64
117.14330,659.79,645.88
117.16363,645.22,646.51
117.18337,629.82,627.21
117.20339,610.70,617.57
117.22350,597.02,605.14
117.24415,581.20,573.56
117.26330,564.36,538.38
117.28419,543.85,502.44
117.30663,516.95,469.03
117.32535,502.71,444.57
117.34512,480.43,402.34
117.36531,467.79,410.83
117.38539,466.26,399.24
117.40673,457.89,387.37
117.42637,448.26,389.65
117.44520,442.07,390.25
117.46523,438.95,413.65
117.48640,439.78,411.81
117.50561,436.85,408.12
117.52668,438.39,385.36
117.54685,441.37,393.48
117.56593,442.66,389.51
117.58584,430.49,381.14
117.60651,422.01,373.06
117.62610,417.16,379.24
117.64502,411.86,372.26
117.66524,413.04,404.54
117.68547,416.10,415.26
117.70521,424.50,419.77
117.72609,426.87,431.79
117.74669,435.85,423.33
117.76640,432.26,458.55
117.78639,431.98,460.96
117.80663,441.45,466.95
117.82561,446.81,470.98
117.84697,447.34,470.78
117.86695,453.00,487.33
117.88513,456.86,486.57
117.90596,455.73,508.20
117.92608,460.84,536.47
117.94655,464.01,556.79
