Program Time [s],data 0,data 1
12.35224,494.48,438.54
12.37160,496.91,438.31
12.39154,493.38,436.18
12.41101,493.40,439.80
12.43085,492.21,439.32
12.45249,495.13,439.91
12.47171,493.71,436.77
12.49151,495.26,440.07
12.51247,496.62,437.90
12.53172,495.76,437.79
12.55248,495.82,438.31
12.57258,495.95,438.21
12.59172,499.02,440.76
12.61199,495.77,442.58
12.63238,495.84,441.40
12.65244,496.14,441.78
12.67204,495.19,442.32
12.69102,496.59,443.49
12.71203,494.38,441.07
12.73102,495.62,443.14
12.75122,493.59,442.68
12.77144,494.38,442.68
12.79120,493.98,446.49
12.81136,493.90,448.12
12.83222,494.02,458.50
12.85156,500.33,486.80
12.87250,500.44,527.79
12.89096,506.11,575.72
12.91083,507.76,597.12
12.93119,506.56,617.80
12.95141,504.58,617.03
12.97117,495.55,608.46
12.99316,488.24,588.08
13.01242,483.67,567.49
13.03281,480.77,539.31
13.05207,479.96,512.17
13.07185,477.71,489.28
13.09201,479.51,468.11
13.11385,479.19,454.86
13.13349,481.11,447.40
13.15236,482.43,435.78
13.17372,481.18,430.33
13.19274,473.85,427.20
13.21283,465.16,422.70
13.23274,457.86,416.23
13.25358,456.36,414.37
13.27321,452.31,414.45
13.29181,452.43,415.51
13.31314,453.42,415.71
13.33352,458.99,417.07
13.35318,458.82,415.80
13.37318,463.16,417.73
13.39202,465.40,418.06
13.41224,469.16,424.18
13.43345,473.03,423.81
13.45318,475.18,425.83
13.47200,478.28,426.79
13.49287,480.34,424.34
13.51244,480.51,429.59
13.53290,480.53,433.21
13.55185,486.70,444.12
13.57192,492.34,472.42
13.59334,508.56,530.23
13.61227,522.04,602.40
13.63344,536.53,637.60
13.65183,542.21,649.99
13.67369,549.42,642.57
13.69361,549.62,625.59
13.71213,543.66,597.43
13.73189,537.60,565.72
13.75252,530.89,537.89
13.77260,520.70,515.58
13.79330,509.95,492.26
13.81269,503.06,470.50
13.83323,493.25,452.80
13.85202,487.28,442.73
13.87238,484.89,432.41
13.89343,479.44,421.79
13.91300,473.65,416.21
13.93259,468.36,413.04
13.95183,466.46,414.24
13.97351,468.88,409.52
13.99244,460.36,405.56
14.01303,454.06,401.58
14.03228,450.65,398.89
14.05277,446.26,396.26
14.07262,445.66,399.56
14.09211,446.25,399.05
14.11200,447.94,399.90
14.13206,447.66,405.50
14.15308,446.76,398.92
14.17184,437.62,386.43
14.19351,424.60,370.45
14.21294,413.89,357.42
14.23320,410.22,351.75
14.25294,411.21,354.18
14.27268,416.32,360.23
14.29309,422.45,372.49
14.31256,428.16,378.80
14.33250,434.61,389.58
14.35334,446.48,398.48
14.37309,449.71,403.28
14.39217,457.75,409.85
14.41181,462.78,419.10
14.43378,463.85,422.63
14.45363,469.00,428.32
14.47184,472.88,432.20
14.49328,472.66,435.80
14.51401,474.43,437.56
14.53283,477.22,440.25
14.55350,477.20,441.74
14.57410,475.64,442.86
14.59407,474.06,444.61
14.61354,475.26,447.34
14.63334,475.05,451.99
14.65422,470.01,454.88
14.67476,475.90,473.48
14.69399,490.48,517.07
14.71569,507.32,571.11
14.73501,526.89,608.21
14.75454,545.59,621.23
14.77519,558.87,621.44
14.79536,566.69,609.91
14.81491,573.00,596.78
14.83450,571.02,578.61
14.85424,567.24,555.72
14.87441,559.47,535.43
14.89427,548.99,515.88
14.91508,538.96,496.64
14.93430,527.58,481.33
14.95579,519.73,469.23
14.97661,512.78,460.70
14.99538,507.08,453.84
15.01540,501.11,448.03
15.03495,495.24,441.39
15.05593,487.27,442.30
15.07616,491.64,439.93
15.09625,487.92,435.39
15.11542,487.68,437.86
15.13524,484.67,432.96
15.15641,484.42,433.85
15.17745,484.26,437.18
15.19760,483.09,434.46
15.21739,483.94,437.19
15.23675,479.55,439.16
15.25581,478.09,437.72
15.27760,475.21,437.91
15.29732,474.10,436.16
15.31728,473.21,438.35
15.33777,473.09,441.41
15.35668,468.74,442.62
15.37663,468.50,441.74
15.39730,468.19,442.52
15.41584,468.59,444.87
15.43592,467.99,445.63
15.45770,468.56,445.46
15.47724,468.67,444.80
15.49601,471.97,446.05
15.51653,470.74,445.86
15.53589,470.81,446.59
15.55615,469.43,447.49
15.57775,473.69,447.97
15.59599,475.07,450.37
15.61684,474.39,455.17
15.63745,475.56,454.03
15.65678,472.77,453.22
15.67640,470.93,454.98
15.69590,471.09,458.15
15.71640,472.32,458.45
15.73742,472.88,459.57
15.75615,477.18,467.91
15.77786,484.99,481.02
15.79704,485.31,506.62
15.81760,483.42,538.74
15.83632,474.76,556.53
15.85690,458.84,559.93
15.87619,444.19,552.49
15.89612,430.32,533.41
15.91776,427.06,515.53
15.93615,422.80,494.83
15.95702,419.87,477.87
15.97721,422.18,458.60
15.99704,424.66,443.70
16.01721,428.22,435.26
16.03758,434.16,427.09
16.05822,435.82,421.60
16.07839,442.67,418.74
16.09843,445.55,416.20
16.11683,448.45,412.45
16.13802,452.97,409.17
16.15800,455.02,407.77
16.17877,458.58,406.26
16.19888,460.77,408.63
16.21927,461.63,408.64
16.23853,464.18,409.23
16.25869,467.51,407.56
16.27810,470.68,409.39
16.29785,473.76,410.90
16.31800,476.71,413.07
16.33883,479.13,415.85
16.35962,482.75,421.99
16.37811,482.65,430.34
16.39906,487.01,440.55
16.41920,491.11,463.47
16.43932,498.89,495.57
16.45871,498.20,520.89
16.47893,501.89,528.86
16.49906,503.11,527.28
16.51950,500.95,516.20
16.53900,500.64,498.08
16.55926,496.87,479.81
16.57915,494.06,467.37
16.59846,494.12,451.71
16.61973,495.12,439.81
16.63942,493.86,430.92
16.66004,493.20,424.77
16.68037,492.51,418.20
16.69921,493.90,414.03
16.71908,495.07,411.23
16.74051,495.09,411.17
16.75887,497.20,412.26
16.77932,494.45,412.47
16.80019,492.61,414.62
16.82021,494.05,421.84
16.84056,495.91,424.75
16.86202,492.46,429.75
16.88176,493.33,431.14
16.90207,492.71,433.78
16.92152,490.32,433.99
16.94097,494.25,436.94
16.96104,495.57,436.40
16.98283,494.24,440.40
17.00313,495.50,441.91
17.02318,497.33,446.23
17.04286,497.47,442.83
17.06310,494.28,440.63
17.08293,495.94,443.90
17.10365,496.84,442.29
17.12292,495.56,443.41
17.14469,494.19,444.38
17.16297,489.27,446.87
17.18426,488.37,443.71
17.20409,489.62,442.43
17.22286,485.71,443.29
17.24413,480.16,441.26
17.26365,472.76,442.54
17.28294,469.07,443.02
17.30436,468.96,443.90
17.32379,465.98,444.61
17.34418,468.23,446.00
17.36448,469.63,447.12
17.38311,471.59,447.73
17.40328,473.79,443.49
17.42296,472.83,438.68
17.44444,474.67,438.82
17.46349,471.26,435.99
17.48407,471.31,440.32
17.50323,472.12,446.15
17.52440,472.60,448.58
17.54377,474.98,452.00
17.56361,473.60,453.54
17.58405,476.73,451.91
17.60442,473.34,448.97
17.62404,477.75,447.87
17.64317,477.06,445.97
17.66426,471.56,447.23
17.68342,470.46,444.19
17.70296,466.63,447.94
17.72392,465.42,462.57
17.74366,467.57,479.26
17.76457,476.20,506.15
17.78380,479.62,533.50
17.80315,484.24,544.42
17.82312,483.93,539.13
17.84310,484.86,519.19
17.86276,485.76,501.24
17.88441,484.62,482.59
17.90359,487.84,463.07
17.92463,483.59,450.21
17.94319,485.57,437.89
17.96308,481.77,427.77
17.98333,480.71,420.89
18.00357,481.54,417.32
18.02454,481.60,416.15
18.04436,481.37,413.08
18.06454,482.16,414.24
18.08418,479.20,416.40
18.10294,476.51,418.56
18.12389,479.42,421.76
18.14322,477.06,423.48
18.16424,477.39,422.25
18.18324,476.22,422.18
18.20410,475.41,424.00
18.22316,476.50,422.88
18.24438,480.35,427.29
18.26280,478.10,426.77
18.28293,480.08,430.07
18.30337,482.41,428.17
18.32366,482.48,432.85
18.34316,488.15,434.22
18.36296,486.62,437.55
18.38324,490.94,437.05
18.40405,492.53,438.03
18.42456,490.11,438.48
18.44460,494.67,440.77
18.46532,497.61,439.46
18.48476,497.93,437.90
18.50354,497.52,440.28
18.52489,495.10,446.63
18.54461,491.75,449.75
18.56445,490.33,450.44
18.58546,484.72,450.10
18.60390,483.96,446.28
18.62570,483.97,443.50
18.64566,482.45,446.86
18.66540,481.73,449.71
18.68555,482.86,449.93
18.70493,482.46,449.56
18.72451,480.82,447.39
18.74432,484.39,451.72
18.76450,485.53,453.06
18.78396,488.74,450.59
18.80426,484.83,452.04
18.82451,487.22,447.48
18.84404,488.81,448.66
18.86528,489.15,447.29
18.88547,490.39,449.00
18.90374,489.61,448.53
18.92521,490.20,450.34
18.94373,490.88,446.88
18.96407,490.24,447.79
18.98508,490.83,446.57
19.00515,493.02,445.56
19.02595,492.89,444.99
19.04538,494.69,447.82
19.06649,492.05,444.56
19.08590,492.44,445.37
19.10650,490.74,447.94
19.12502,492.88,446.81
19.14637,494.34,445.93
19.16641,492.82,446.59
19.18635,492.44,448.42
19.20660,491.13,449.49
19.22714,487.68,448.66
19.24703,487.22,450.34
19.26745,482.98,448.91
19.28655,483.11,452.34
19.30562,481.33,452.20
19.32649,482.38,450.28
19.34651,484.29,448.58
19.36662,483.13,447.93
19.38575,482.69,447.13
19.40574,483.27,444.02
19.42627,485.01,446.02
19.44735,486.69,447.98
19.46644,484.85,446.90
19.48758,487.63,448.06
19.50679,488.61,447.52
19.52680,487.31,446.24
19.54647,487.33,446.48
19.56653,488.71,444.94
19.58837,490.41,446.91
19.60948,489.82,445.73
19.62801,487.16,446.81
19.64872,488.53,450.47
19.66873,485.92,451.23
19.68865,484.58,451.88
19.70885,487.82,456.60
19.72876,486.29,456.43
19.74862,485.70,457.19
19.76964,484.40,455.80
19.78922,483.19,458.76
19.80922,483.23,458.53
19.82755,480.78,457.37
19.84788,478.69,455.44
19.86864,478.19,455.09
19.88837,478.00,456.67
19.90781,476.74,453.76
19.92810,476.06,455.49
19.94974,474.47,454.74
19.96824,477.21,453.33
19.98899,477.30,453.12
20.00905,476.33,451.24
20.02891,475.62,453.68
20.04915,477.46,452.74
20.06807,476.95,454.90
20.08909,477.15,453.80
20.10800,478.98,455.10
20.12851,476.69,454.66
20.14934,477.72,455.27
20.16879,480.44,456.58
20.18818,482.35,456.07
20.20777,480.90,456.32
20.22935,483.05,455.23
20.24826,479.66,455.81
20.26882,482.52,455.74
20.28860,479.66,454.99
20.30962,481.17,453.82
20.32797,480.35,450.94
20.34881,481.09,451.52
20.36861,479.49,451.02
20.38909,481.52,453.85
20.40824,478.86,452.44
20.42834,480.34,455.52
20.44766,480.24,456.05
20.46781,482.07,453.47
20.48788,480.63,456.77
20.50792,478.88,453.85
20.52888,476.91,454.14
20.54956,479.30,454.50
20.56855,478.09,457.06
20.58881,478.10,458.55
20.60860,477.39,454.90
20.62767,479.94,457.12
20.64876,479.97,454.02
20.66855,478.62,455.67
20.68883,478.73,455.82
20.70853,476.33,457.12
20.72915,478.81,456.26
20.74901,476.09,456.42
20.76786,477.41,454.68
20.78910,479.31,456.57
20.80934,475.16,454.60
20.82926,474.27,455.65
20.84796,474.40,453.62
20.86826,472.76,453.89
20.88855,472.47,453.90
20.90788,473.06,452.46
20.92924,469.74,449.54
20.94917,470.01,439.15
20.96773,471.08,422.10
20.98774,474.05,402.94
21.00921,469.54,383.84
21.02957,469.51,365.56
21.04864,464.66,356.66
21.06881,463.58,349.24
21.08830,459.78,347.47
21.10813,459.80,347.22
21.12905,457.53,356.34
21.14811,457.17,361.24
21.16938,457.48,367.42
21.18886,456.72,377.21
21.20845,458.43,383.35
21.22854,460.75,392.38
21.24839,462.41,400.92
21.26834,464.05,405.74
21.28874,464.55,412.90
21.30842,466.22,416.18
21.32922,467.89,422.79
21.34790,471.65,432.11
21.36924,471.84,439.16
21.38789,471.58,447.18
21.40974,473.21,448.35
21.42921,474.65,454.45
21.44821,477.35,454.77
21.46917,475.80,455.88
21.48791,474.06,457.74
21.50829,473.99,458.04
21.52795,475.67,458.62
21.54878,480.15,460.34
21.56799,484.44,461.76
21.58927,483.83,462.93
21.60796,484.28,461.79
21.62970,484.50,461.89
21.64933,486.26,462.37
21.66807,483.85,460.20
21.69015,484.30,459.91
21.70900,481.93,461.02
21.73010,478.96,460.27
21.75056,479.69,458.09
21.77022,478.74,458.31
21.78876,476.73,457.27
21.80919,475.82,456.47
21.83049,476.22,453.17
21.85029,476.16,455.57
21.86992,476.51,452.32
21.88994,472.36,451.90
21.90843,473.66,451.90
21.92978,474.59,453.53
21.95016,475.31,453.20
21.96912,472.53,453.57
21.98908,470.10,452.23
22.01060,469.41,455.14
22.03002,471.38,452.92
22.05057,471.92,451.77
22.06933,470.64,452.27
22.09024,470.54,451.58
22.11065,472.83,465.49
22.13047,473.08,492.19
22.14900,472.88,522.58
22.16873,473.82,549.80
22.19037,471.06,554.29
22.20994,471.45,552.31
22.23069,467.74,546.83
22.24896,467.70,536.57
22.27007,465.88,523.17
22.28898,465.66,515.38
22.31066,467.82,506.62
22.32892,468.39,497.02
22.34925,467.37,488.32
22.37017,466.94,482.32
22.38898,468.67,480.51
22.40938,470.48,482.31
22.42917,474.30,477.52
22.44864,474.38,476.23
22.46986,476.46,472.69
22.48876,475.57,468.30
22.50963,473.45,465.15
22.53021,474.37,463.04
22.54929,475.51,461.83
22.57023,474.25,458.94
22.58897,475.25,457.85
22.60927,475.73,456.76
22.63066,475.73,454.08
22.64938,473.45,456.67
22.67062,475.69,454.66
22.68863,474.54,455.70
22.71062,476.60,456.71
22.72897,473.93,456.26
22.75041,472.99,453.40
22.76877,475.42,451.11
22.78926,474.00,452.00
22.80863,473.04,448.94
22.82919,474.22,447.77
22.84933,473.24,448.63
22.86932,475.62,448.09
22.88898,474.77,451.13
22.90938,474.56,452.50
22.93002,474.62,450.75
22.94994,471.71,454.19
22.97040,475.68,455.33
22.99043,475.85,455.05
23.00935,472.55,456.25
23.02991,473.53,453.65
23.04915,472.64,454.90
23.06920,474.31,455.17
23.08910,473.71,455.53
23.11009,475.23,455.96
23.13058,476.47,457.54
23.14958,474.87,455.88
23.16961,474.46,456.11
23.19025,471.83,452.50
23.20976,471.21,453.80
23.22979,471.10,452.07
23.25047,471.58,454.03
23.26963,474.37,452.26
23.29004,473.72,450.98
23.30971,472.10,450.35
23.32876,474.69,451.23
23.34959,474.40,449.41
23.36972,474.63,451.89
23.39032,471.11,450.42
23.40906,470.82,451.38
23.42989,473.91,451.44
23.45006,471.82,447.28
23.46924,468.89,438.97
23.48981,467.38,421.55
23.51032,464.06,407.82
23.52913,464.35,390.40
23.55051,464.05,376.21
23.56880,461.59,367.91
23.58894,458.28,357.93
23.60969,459.95,352.26
23.62969,459.56,349.72
23.64930,460.80,348.99
23.66996,459.15,351.05
23.68989,459.07,353.95
23.70855,462.70,359.48
23.72872,464.38,364.86
23.75016,468.39,369.19
23.76872,471.26,376.96
23.78935,471.70,382.54
23.80939,470.01,387.58
23.83013,470.17,393.44
23.84921,470.92,396.62
23.87014,474.31,402.15
23.88980,473.37,407.81
23.90872,474.82,411.24
23.92865,474.61,412.69
23.95001,475.39,417.74
23.96927,475.32,423.26
23.98951,475.26,423.56
24.00929,479.33,426.53
24.02972,476.61,432.20
24.05026,478.82,433.10
24.06937,479.04,434.70
24.09020,480.01,436.00
24.10917,480.39,438.95
24.12971,478.37,442.34
24.15049,479.68,441.84
24.16962,476.95,440.95
24.18999,477.90,442.80
24.21021,478.95,446.04
24.22986,477.86,445.19
24.25044,477.57,446.51
24.26979,479.04,448.39
24.29051,477.73,447.27
24.31090,482.31,446.42
24.33004,479.89,449.54
24.35100,482.32,450.25
24.37015,484.23,449.85
24.39111,482.76,446.32
24.41085,484.34,447.84
24.43144,482.81,446.72
24.45259,482.96,448.52
24.47197,486.19,449.83
24.49241,485.65,449.38
24.51084,487.01,448.78
24.53204,489.97,447.28
24.55212,487.89,447.72
24.57204,488.85,448.87
24.59167,488.80,449.93
24.61079,484.99,448.89
24.63075,487.27,446.63
24.65143,486.98,449.39
24.67183,484.05,448.27
24.69187,484.90,445.43
24.71070,484.48,447.14
24.73245,487.72,445.16
24.75214,488.99,446.49
24.77139,487.98,444.06
24.79345,490.70,443.38
24.81248,489.47,445.59
24.83196,491.03,447.11
24.85333,490.34,445.52
24.87251,491.94,459.58
24.89311,493.33,483.18
24.91266,496.01,522.74
24.93375,496.14,556.04
24.95246,498.12,580.57
24.97178,498.43,598.48
24.99210,498.63,603.53
25.01242,495.60,596.67
25.03407,495.23,581.85
25.05323,496.22,565.67
25.07328,492.96,551.51
25.09377,491.17,534.54
25.11277,494.10,523.51
25.13472,491.68,513.08
25.15459,488.17,504.30
25.17557,489.10,497.33
25.19636,489.59,490.72
25.21641,486.96,485.55
25.23569,487.99,479.34
25.25516,494.87,475.49
25.27635,495.41,474.22
25.29723,494.98,466.88
25.31694,493.71,466.76
25.33675,498.15,464.13
25.35680,498.80,462.44
25.37728,496.11,461.87
25.39677,494.96,460.91
25.41747,491.65,457.11
25.43592,490.98,459.47
25.45599,488.85,458.36
25.47572,487.02,455.69
25.49584,487.78,453.92
25.51606,489.28,452.08
25.53689,486.90,453.87
25.55610,488.84,452.84
25.57750,489.41,450.92
25.59707,488.76,448.10
25.61706,487.12,450.06
25.63637,487.55,449.16
25.65672,489.07,449.34
25.67706,485.43,449.87
25.69688,485.96,452.39
25.71647,484.24,449.83
25.73684,482.19,451.07
25.75583,482.25,450.72
25.77704,483.47,449.44
25.79739,482.89,450.51
25.81696,483.88,450.42
25.83662,482.34,450.29
25.85607,483.06,451.10
25.87644,480.86,453.76
25.89605,483.67,453.57
25.91557,480.98,454.44
25.93578,482.12,450.88
25.95575,480.13,452.20
25.97731,481.88,452.14
25.99647,479.49,451.12
26.01740,481.41,451.68
26.03720,476.81,452.48
26.05908,476.55,450.57
26.07797,475.95,453.74
26.09817,475.30,453.10
26.11764,475.48,452.68
26.13771,475.47,455.07
26.15918,475.00,451.78
26.17791,472.94,455.46
26.19805,474.52,454.67
26.21857,471.70,453.49
26.23828,470.84,453.94
26.25833,472.07,451.51
26.27923,474.22,453.84
26.29916,471.92,454.32
26.31866,472.41,455.36
26.33872,473.79,453.66
26.35912,471.99,453.80
26.37915,473.03,453.01
26.39945,473.33,453.68
26.41853,471.25,451.26
26.43917,472.74,451.13
26.46038,473.44,450.97
26.47952,473.50,452.24
26.49939,473.00,453.98
26.51873,470.65,453.52
26.54012,469.56,453.56
26.55964,469.71,454.48
26.57929,469.46,449.21
26.60044,471.29,440.19
26.61978,470.21,423.54
26.64005,465.63,411.95
26.65963,462.69,399.15
26.68005,461.74,384.70
26.70131,456.04,375.52
26.71987,453.11,365.23
26.74127,451.36,357.52
26.76158,450.62,353.52
26.77962,453.74,351.35
26.79988,451.59,352.71
26.81968,453.60,351.75
26.83963,456.09,357.74
26.86113,458.56,366.33
26.88122,460.07,372.41
26.90111,460.89,381.42
26.92041,461.53,389.66
26.94091,461.15,396.50
26.96071,463.52,403.21
26.98072,463.13,408.32
27.00134,461.96,415.74
27.02130,467.14,420.38
27.04166,465.83,422.26
27.06160,468.06,429.14
27.08114,471.07,431.80
27.10161,471.71,433.84
27.12219,471.06,438.42
27.14070,470.73,439.04
27.16253,469.57,441.90
27.18227,471.40,444.98
27.20105,468.94,443.74
27.22092,468.95,446.49
27.24236,470.62,447.41
27.26187,468.88,449.68
27.28072,471.66,448.38
27.30229,473.16,447.88
27.32180,472.61,451.20
27.34241,473.02,451.39
27.36258,473.08,452.15
27.38317,472.85,450.93
27.40172,475.62,450.95
27.42268,474.22,448.94
27.44261,476.14,450.64
27.46159,476.20,450.48
27.48221,478.29,450.24
27.50148,481.17,453.22
27.52150,480.34,452.39
27.54326,480.34,449.58
27.56362,481.76,448.35
27.58370,481.44,449.34
27.60467,480.09,449.69
27.62268,479.41,450.07
27.64373,483.19,452.32
27.66337,483.41,448.85
27.68353,480.83,451.30
27.70377,482.02,452.02
27.72364,482.87,452.40
27.74305,482.22,449.82
27.76277,481.69,451.41
27.78372,478.56,451.73
27.80403,481.09,451.50
27.82461,482.75,448.91
27.84538,486.29,451.55
27.86566,486.61,460.44
27.88636,489.35,482.55
27.90563,490.36,510.67
27.92603,493.14,541.12
27.94659,495.79,569.65
27.96626,500.70,589.98
27.98534,502.35,599.68
28.00588,501.54,598.71
28.02537,502.40,586.38
28.04499,504.36,570.53
28.06628,504.20,557.03
28.08457,502.00,540.68
28.10449,501.70,526.61
28.12578,500.00,515.16
28.14629,498.98,505.41
28.16553,494.73,495.93
28.18452,494.96,490.07
28.20611,495.21,483.97
28.22474,495.93,480.89
28.24517,496.82,475.05
28.26515,497.85,472.78
28.28479,496.68,470.66
28.30557,497.51,467.73
28.32615,498.14,461.70
28.34554,494.63,461.29
28.36599,495.91,461.32
28.38645,495.31,458.52
28.40487,493.58,458.86
28.42468,496.40,456.30
28.44522,495.94,457.42
28.46594,492.31,454.97
28.48576,491.67,455.01
28.50514,491.53,456.99
28.52510,491.78,456.17
28.54562,494.13,455.79
28.56559,493.47,452.36
28.58559,489.67,451.49
28.60538,492.64,454.28
28.62527,490.68,453.19
28.64568,490.46,454.01
28.66501,490.36,451.41
28.68475,489.37,454.13
28.70635,489.03,452.42
28.72468,490.71,450.59
28.74648,490.40,450.36
28.76623,488.65,453.95
28.78557,489.87,452.95
28.80556,492.12,452.89
28.82534,492.61,453.49
28.84544,489.70,453.82
28.86487,489.14,454.06
28.88634,489.12,453.84
28.90493,489.98,453.68
28.92625,494.42,451.52
28.94462,494.61,452.39
28.96622,491.28,452.19
28.98578,491.98,451.56
29.00542,493.14,454.30
29.02508,492.94,451.92
29.04645,493.72,454.49
29.06598,490.02,455.63
29.08576,489.36,453.45
29.10579,489.38,453.58
29.12441,489.18,455.42
29.14525,487.44,455.72
29.16628,488.77,454.17
29.18479,489.68,453.36
29.20613,488.99,453.44
29.22583,489.32,452.86
29.24581,489.71,452.11
29.26555,490.08,452.59
29.28565,490.26,453.11
29.30560,488.81,451.81
29.32639,488.69,449.83
29.34613,488.93,435.09
29.36526,486.12,420.88
29.38571,483.69,405.06
29.40582,481.97,390.53
29.42489,481.08,375.40
29.44518,477.33,367.89
29.46479,479.02,361.00
29.48594,476.17,354.83
29.50575,477.01,354.55
29.52610,475.80,354.62
29.54540,473.10,358.68
29.56537,474.30,362.97
29.58503,480.19,366.06
29.60724,477.54,374.41
29.62637,479.42,381.09
29.64814,480.74,387.20
29.66726,484.51,393.54
29.68684,482.97,397.12
29.70934,482.18,405.52
29.72913,482.82,409.34
29.74795,482.84,414.68
29.76755,479.79,422.09
29.78835,478.51,425.09
29.80863,481.45,428.44
29.82809,480.81,433.92
29.84864,479.25,436.09
29.86828,481.96,439.23
29.88909,480.10,442.07
29.90970,476.70,440.59
29.92865,478.15,443.56
29.94901,476.96,445.02
29.96960,479.57,446.93
29.98963,476.39,447.73
30.01024,478.00,448.44
30.02954,477.76,448.66
30.04945,478.94,448.38
30.07048,478.67,449.13
30.08980,478.58,449.06
30.11054,477.37,451.07
30.13114,476.81,451.42
30.15067,473.83,453.13
30.16951,473.98,450.34
30.18943,473.73,452.95
30.21011,472.69,452.25
30.23109,473.01,452.09
30.25031,473.13,450.50
30.26983,471.43,451.40
30.29026,469.61,453.67
30.30945,471.07,453.03
30.33114,468.83,453.13
30.35116,470.78,454.40
30.37023,471.04,453.68
30.39047,470.63,455.91
30.41057,469.33,455.09
30.43141,472.18,455.03
30.44940,468.35,452.36
30.46958,470.34,451.35
30.48993,467.21,452.96
30.51115,468.42,451.92
30.53207,467.68,455.03
30.55210,467.16,455.18
30.57127,466.95,456.30
30.59166,468.66,467.35
30.61073,471.67,490.75
30.63151,479.38,528.84
30.65076,484.03,578.08
30.67055,486.77,624.53
30.69054,490.53,654.72
30.71190,492.28,664.40
30.73091,491.47,661.49
30.75158,489.09,649.87
30.77029,483.74,627.51
30.79160,482.50,598.90
30.81219,479.51,573.64
30.83057,477.25,548.40
30.85170,476.49,529.00
30.87130,476.74,509.83
30.89341,472.83,493.22
30.91215,471.06,477.62
30.93151,469.61,470.33
30.95185,471.79,458.41
30.97158,467.97,451.86
30.99178,467.26,449.01
31.01226,467.68,445.18
31.03158,468.11,444.35
31.05324,468.99,441.16
31.07231,468.47,444.22
31.09257,467.97,442.17
31.11352,468.69,442.97
31.13358,471.93,442.45
31.15428,472.56,443.87
31.17298,472.28,446.02
31.19347,473.50,443.61
31.21293,474.16,447.57
31.23311,473.73,444.52
31.25369,475.66,447.83
31.27326,471.68,448.10
31.29395,473.73,448.22
31.31322,471.08,449.51
31.33417,475.45,448.92
31.35356,472.39,449.29
31.37312,472.75,448.92
31.39337,472.31,451.52
31.41373,470.84,451.29
31.43276,475.71,451.40
31.45368,476.98,449.45
31.47334,474.56,452.20
31.49435,475.14,449.86
31.51366,473.93,449.13
31.53241,476.59,449.80
31.55297,472.41,450.17
31.57268,472.36,452.35
31.59384,473.78,452.06
31.61437,476.28,454.69
31.63364,474.10,452.89
31.65435,476.62,455.80
31.67347,476.83,454.16
31.69324,477.48,452.74
31.71442,478.74,453.16
31.73322,478.71,451.65
31.75391,475.00,451.26
31.77323,475.56,451.83
31.79235,479.85,451.52
31.81379,478.05,453.66
31.83318,479.76,451.91
31.85313,478.16,453.38
31.87353,479.47,454.09
31.89375,476.46,452.97
31.91365,477.86,450.45
31.93466,478.19,450.42
31.95343,479.52,451.31
31.97385,479.20,453.83
31.99347,477.83,450.95
32.01414,480.81,452.51
32.03442,480.53,450.90
32.05482,480.30,449.73
32.07369,479.61,452.53
32.09463,483.26,450.73
32.11548,482.54,451.85
32.13389,480.40,450.68
32.15416,479.66,441.06
32.17370,477.26,426.64
32.19402,474.70,413.38
32.21338,469.55,399.33
32.23419,466.55,384.07
32.25444,466.72,372.47
32.27540,466.49,364.48
32.29516,465.74,356.16
32.31519,461.97,353.06
32.33545,463.76,351.45
32.35420,460.73,354.36
32.37515,462.79,358.93
32.39454,460.29,365.47
32.41439,462.95,369.08
32.43516,466.36,377.06
32.45487,467.52,384.43
32.47443,468.47,393.47
32.49439,469.45,398.60
32.51429,468.86,401.56
32.53461,472.81,408.05
32.55521,476.00,412.76
32.57520,477.37,417.13
32.59620,479.52,424.56
32.61467,479.75,425.72
32.63579,480.09,427.55
32.65527,478.39,430.98
32.67456,482.00,432.50
32.69494,482.16,434.58
32.71609,480.95,436.64
32.73611,482.31,441.15
32.75504,483.32,442.72
32.77444,483.44,443.49
32.79563,482.41,441.54
32.81456,482.39,445.59
32.83581,484.21,445.19
32.85482,485.20,446.23
32.87553,483.86,446.58
32.89599,484.16,446.30
32.91468,487.19,446.95
32.93615,487.82,448.22
32.95472,486.44,448.89
32.97507,485.21,448.89
32.99639,485.77,450.09
33.01488,484.60,449.45
33.03522,485.78,450.12
33.05454,485.26,448.77
33.07593,487.07,447.65
33.09575,484.34,450.54
33.11542,486.00,448.27
33.13466,487.93,449.05
33.15586,488.49,448.72
33.17636,488.17,450.84
33.19482,490.39,449.82
33.21473,487.99,449.11
33.23569,488.34,450.10
33.25459,487.27,457.43
33.27431,491.85,479.35
33.29467,493.66,513.16
33.31490,497.02,546.08
33.33554,502.84,568.12
33.35542,505.73,589.16
33.37675,509.69,591.03
33.39708,508.69,582.89
33.41698,509.24,573.00
33.43582,505.94,557.27
33.45566,506.35,546.32
33.47838,501.00,532.29
33.49769,500.21,521.33
33.51818,499.19,511.43
33.53645,496.89,503.32
33.55667,494.71,494.34
33.57840,493.27,487.32
33.59847,494.73,482.88
33.61791,490.12,479.33
33.63705,494.14,475.84
33.65829,494.95,473.05
33.67877,494.02,471.15
33.69793,492.91,468.12
33.71824,491.88,465.58
33.73865,493.94,463.56
33.75773,491.85,461.12
33.77753,492.63,460.08
33.79900,491.81,457.82
33.81799,491.40,458.16
33.83768,487.47,459.61
33.85911,489.44,456.66
33.87816,489.27,458.63
33.89912,488.72,458.71
33.91761,486.57,457.90
33.93908,483.94,457.63
33.95750,488.29,455.67
33.97865,485.43,458.15
33.99766,488.47,455.88
34.01756,486.60,456.46
34.03884,484.61,453.96
34.05926,484.17,454.29
34.07763,484.76,455.32
34.09872,485.61,453.99
34.11886,485.81,456.94
34.13935,484.77,453.79
34.15794,480.81,452.03
34.17812,481.81,452.01
34.19813,482.29,451.31
34.21902,482.40,452.39
34.23899,483.88,453.34
34.25922,482.76,454.75
34.27777,485.55,453.85
34.29764,483.38,453.47
34.31866,484.25,453.78
34.33905,483.75,454.12
34.35785,484.90,450.55
34.37929,481.55,451.52
34.39764,482.83,451.80
34.41898,484.93,450.61
34.43744,481.12,450.21
34.45830,484.42,451.90
34.47876,483.78,452.42
34.49875,482.04,451.00
34.51770,481.53,451.85
34.53898,482.82,449.92
34.55913,480.31,441.33
34.57913,481.22,426.05
34.59926,480.47,409.64
34.61745,477.12,395.67
34.63891,471.33,385.10
34.65732,467.97,375.11
34.67934,465.75,367.12
34.69814,466.62,360.15
34.71823,461.33,352.68
34.73908,460.78,351.53
34.75823,456.80,352.84
34.77758,455.03,358.18
34.79880,457.14,360.87
34.81924,456.04,366.76
34.83799,458.17,374.33
34.85846,457.29,376.03
34.87759,458.77,381.84
34.89854,464.10,388.90
34.91863,465.01,393.68
34.93919,465.38,396.96
34.95885,467.36,403.62
34.97821,467.53,407.21
34.99756,466.75,411.66
35.01751,470.06,414.39
35.03803,471.87,420.36
35.05781,471.25,421.54
35.07854,473.33,425.02
35.09827,473.34,428.55
35.11856,475.35,431.99
35.13831,473.83,435.19
35.15774,474.12,437.34
35.17888,474.70,438.52
35.19767,471.14,438.29
35.21858,473.05,438.99
35.23911,475.85,443.33
35.25877,474.69,443.03
35.27763,475.14,444.21
35.29874,475.87,445.26
35.31910,477.14,447.23
35.33754,479.02,446.22
35.35902,476.17,446.61
35.37788,478.39,449.55
35.39924,478.39,447.02
35.41931,474.72,447.80
35.43901,474.71,451.34
35.45860,474.98,451.69
35.47928,474.00,452.17
35.49910,472.88,452.64
35.51983,470.84,450.03
35.53984,471.62,452.71
35.55843,471.81,451.54
35.57849,472.26,455.22
35.59959,469.10,453.99
35.61883,470.07,458.12
35.63910,471.18,473.22
35.65916,474.01,504.97
35.67922,478.76,543.56
35.69990,485.50,596.64
35.71867,493.83,644.61
35.73954,498.77,677.43
35.75943,501.51,686.92
35.77954,501.80,682.12
35.79938,500.91,659.25
35.81908,495.76,633.68
35.83977,492.04,606.20
35.86007,489.02,582.92
35.87851,484.51,557.97
35.89914,481.90,537.00
35.91818,478.97,517.87
35.93814,477.85,500.57
35.95875,477.73,489.36
35.97961,478.48,478.09
35.99986,477.81,469.83
36.02004,473.80,465.03
36.03832,476.08,461.91
36.05968,477.61,457.47
36.07860,478.04,454.93
36.09857,476.83,453.04
36.11862,478.76,450.70
36.13904,478.90,451.83
36.15976,475.56,451.12
36.17968,475.38,450.03
36.20034,476.55,450.02
36.21899,474.21,450.83
36.23996,476.15,460.02
36.25919,480.07,488.21
36.27971,481.30,514.73
36.29811,485.48,521.38
36.31984,484.91,517.25
36.33961,484.14,506.14
36.35980,482.09,491.89
36.37908,477.38,477.36
36.39843,474.58,462.74
36.41971,474.51,451.53
36.43923,470.29,445.25
36.45968,467.75,439.26
36.47858,467.35,432.13
36.49870,469.56,431.32
36.51875,466.94,430.90
36.53990,464.38,432.06
36.55887,464.99,431.96
36.58011,468.04,433.30
36.59978,468.07,433.27
36.61849,465.19,433.81
36.63865,468.41,437.55
36.65937,468.45,437.42
36.67899,468.34,439.90
36.69865,467.26,443.12
36.71996,468.89,445.27
36.73844,467.06,445.03
36.75932,468.42,446.89
36.77932,471.09,447.27
36.79946,469.72,448.34
36.81848,469.47,450.02
36.83871,471.70,449.96
36.85927,470.34,448.65
36.87883,470.32,446.32
36.89876,470.33,446.75
36.91933,472.24,445.57
36.93870,468.02,446.68
36.95959,469.34,444.85
36.97868,471.95,444.70
36.99923,472.02,444.83
37.01984,472.83,446.07
37.04114,470.20,444.36
37.06110,471.20,442.86
37.08013,471.20,441.65
37.10042,468.94,443.03
37.12029,470.76,440.49
37.13966,469.60,442.62
37.15965,471.29,440.63
37.17978,470.64,441.17
37.19951,470.39,443.33
37.22108,471.66,444.64
37.24053,472.27,444.42
37.26102,472.08,444.57
37.28071,474.20,445.49
37.30012,474.01,446.50
37.31970,471.81,446.51
37.34112,471.08,447.18
37.35944,472.00,442.67
37.38013,469.36,425.34
37.40089,467.16,410.80
37.42019,467.91,396.84
37.43975,458.94,383.95
37.46072,456.41,371.71
37.48095,452.06,363.50
37.50056,450.81,358.34
37.52033,447.96,355.65
37.54052,448.80,357.83
37.56061,448.05,357.44
37.58082,448.01,365.40
37.59973,450.41,372.23
37.62052,450.17,379.05
37.63977,453.98,387.29
37.66098,455.41,391.48
37.67988,457.62,399.31
37.70067,459.14,406.43
37.72059,460.51,411.55
37.74010,461.71,419.81
37.76007,465.66,423.79
37.77949,467.80,424.20
37.79925,467.82,430.73
37.82032,469.30,429.88
37.83975,470.72,434.49
37.86008,469.51,436.66
37.88035,472.02,439.83
37.90065,470.40,438.19
37.91947,470.69,440.37
37.94015,475.12,441.48
37.95990,472.48,443.12
37.97912,474.26,444.54
38.00080,476.20,446.97
38.01953,476.23,447.15
38.04114,474.44,449.25
38.05941,479.61,468.53
38.07982,480.80,498.50
38.09984,488.36,541.59
38.11985,496.13,588.57
38.14132,501.25,613.12
38.16033,503.68,624.61
38.18057,506.02,620.59
38.19997,502.69,604.28
38.21923,501.59,585.15
38.23990,497.33,566.10
38.26049,495.70,545.41
38.27923,493.02,529.68
38.30066,488.91,510.11
38.31972,488.17,499.80
38.34015,486.20,484.93
38.35981,488.38,477.82
38.38097,486.66,472.05
38.40099,487.64,469.97
38.42101,489.59,462.10
38.44121,490.16,458.54
38.46337,490.75,459.26
38.48350,488.23,453.41
38.50490,489.27,455.46
38.52477,488.18,453.30
38.54388,487.63,452.75
38.56398,488.58,450.17
38.58492,488.20,451.87
38.60497,487.92,451.83
38.62551,491.14,451.05
38.64690,489.37,451.80
38.66715,490.21,455.68
38.68562,491.99,454.77
38.70684,489.33,458.74
38.72634,490.31,457.82
38.74678,487.50,457.61
38.76557,487.68,459.59
38.78605,485.52,457.64
38.80531,484.54,456.48
38.82687,485.86,456.37
38.84604,483.00,457.35
38.86569,484.19,458.11
38.88552,484.79,462.90
38.90677,483.78,462.14
38.92580,486.90,464.65
38.94696,487.32,461.88
38.96569,487.33,461.98
38.98643,484.31,462.78
39.00702,484.28,463.38
39.02566,484.80,462.19
39.04573,485.19,459.49
39.06593,483.47,459.58
39.08675,484.60,456.47
39.10573,483.33,455.86
39.12672,483.48,454.76
39.14604,483.36,457.28
39.16561,483.51,455.62
39.18557,485.22,455.27
39.20608,484.95,453.38
39.22603,483.92,455.56
39.24626,484.96,453.45
39.26588,484.13,454.74
39.28613,480.87,452.47
39.30706,479.78,438.30
39.32695,478.76,421.12
39.34547,479.45,408.35
39.36646,477.23,391.79
39.38592,472.09,382.93
39.40663,470.43,370.73
39.42714,466.70,364.43
39.44729,465.28,353.55
39.46558,465.23,348.46
39.48645,461.10,347.98
39.50597,462.87,348.28
39.52515,463.96,348.93
39.54698,462.90,352.76
39.56585,465.80,354.89
39.58717,465.20,363.15
39.60699,468.54,367.92
39.62521,467.85,378.04
39.64706,467.66,384.91
39.66685,469.70,391.54
39.68636,473.91,400.44
39.70717,473.45,404.42
39.72564,475.31,411.12
39.74582,474.79,417.77
39.76630,477.15,422.76
39.78655,476.35,425.77
39.80712,478.28,429.87
39.82639,476.06,432.26
39.84723,480.79,435.04
39.86608,478.63,436.57
39.88608,477.77,437.99
39.90628,477.80,439.90
39.92521,479.21,441.02
39.94609,479.00,444.76
39.96612,480.83,442.75
39.98645,479.82,445.93
40.00682,479.32,444.47
40.02718,479.71,446.00
40.04531,478.57,447.30
40.06599,478.86,446.00
40.08604,477.14,446.38
40.10612,477.46,449.11
40.12551,477.95,461.50
40.14610,480.48,485.94
40.16531,485.90,526.25
40.18651,488.89,562.81
40.20644,493.18,595.79
40.22589,501.49,620.26
40.24560,503.06,627.51
40.26607,503.89,622.23
40.28628,502.68,611.90
40.30660,504.69,593.85
40.32689,501.81,578.44
40.34553,502.40,560.66
40.36630,496.75,548.20
40.38602,495.63,533.28
40.40584,494.98,521.93
40.42705,494.27,511.35
40.44521,493.81,502.73
40.46690,493.75,495.17
40.48659,494.45,486.17
40.50583,491.71,483.64
40.52584,493.53,477.03
40.54567,491.82,473.64
40.56642,490.43,469.85
40.58690,488.41,466.71
40.60659,489.87,462.04
40.62677,488.09,459.44
40.64622,487.80,457.26
40.66671,486.66,458.48
40.68564,482.60,456.99
40.70754,483.98,456.05
40.72759,479.34,453.73
40.74673,477.98,456.81
40.76711,479.18,455.92
40.78807,480.61,452.52
40.80751,477.47,453.97
40.82619,479.00,455.00
40.84757,475.81,455.67
40.86678,478.66,454.92
40.88688,478.78,455.11
40.90760,474.42,456.52
40.92714,473.21,458.03
40.94747,475.41,458.54
40.96671,475.07,457.21
40.98765,477.95,460.87
41.00726,476.50,458.77
41.02686,475.23,460.36
41.04712,474.30,460.51
41.06804,475.05,457.53
41.08727,473.72,455.93
41.10763,470.93,455.24
41.12658,470.87,457.45
41.14648,475.62,458.59
41.16652,473.99,456.62
41.18642,475.33,454.97
41.20718,474.98,454.28
41.22669,475.84,455.58
41.24730,475.20,456.22
41.26644,474.32,456.08
41.28715,472.69,454.91
41.30668,471.07,446.59
41.32792,466.12,427.09
41.34754,462.26,410.69
41.36788,454.21,392.81
41.38796,449.99,380.43
41.40724,443.57,367.80
41.42780,440.51,356.94
41.44758,440.61,350.50
41.46767,437.38,344.83
41.48756,439.80,342.99
41.50744,438.19,342.80
41.52697,438.83,347.16
41.54622,445.63,353.18
41.56771,448.00,360.95
41.58792,451.65,370.17
41.60759,453.72,374.92
41.62850,453.62,384.04
41.64838,458.04,391.74
41.66807,458.76,399.19
41.68703,458.49,404.48
41.70837,464.06,410.87
41.72812,463.01,415.77
41.74855,461.83,421.78
41.76760,466.43,427.87
41.78814,466.70,428.87
41.80878,466.05,432.54
41.82735,468.10,435.60
41.84899,466.26,439.13
41.86907,466.76,442.83
41.88824,468.08,445.14
41.90777,466.91,446.51
41.92749,468.22,447.86
41.94894,471.77,448.02
41.96903,471.07,448.61
41.98907,469.27,450.38
42.00837,470.45,450.04
42.02727,470.05,452.71
42.04746,470.05,452.23
42.06817,471.34,451.14
42.08885,471.52,452.00
42.10700,469.77,451.77
42.12805,471.71,451.91
42.14732,470.87,452.85
42.16756,472.36,453.84
42.18917,474.68,453.05
42.20850,471.28,455.90
42.22800,474.91,454.67
42.24777,472.37,453.93
42.26919,474.45,454.39
42.28815,474.61,461.71
42.30899,477.74,482.38
42.32839,483.57,502.47
42.34862,486.52,540.70
42.36905,497.35,569.05
42.38983,504.40,593.01
42.40928,507.78,609.84
42.42959,512.44,611.07
42.44940,513.90,604.43
42.46989,513.20,591.46
42.48962,512.46,575.09
42.50918,506.45,562.40
42.52888,504.81,545.66
42.54988,503.25,536.15
42.56954,496.12,525.15
42.58944,495.53,513.78
42.60876,491.34,505.44
42.63012,488.00,497.02
42.64906,488.33,489.99
42.66920,484.07,487.53
42.68997,485.83,480.48
42.70959,483.53,476.54
42.72969,484.13,475.77
42.74940,484.49,471.44
42.76966,482.58,467.53
42.78966,478.67,463.90
42.81001,477.14,463.50
42.82952,478.61,462.71
42.84853,475.61,461.61
42.86954,474.48,460.20
42.88998,477.02,458.40
42.91012,474.83,458.63
42.92978,475.35,455.29
42.94892,474.22,458.33
42.96979,473.03,457.42
42.98983,475.12,455.24
43.00987,476.00,454.53
43.02994,478.21,453.74
43.04911,476.20,452.63
43.06932,475.96,454.88
43.08973,476.44,455.70
43.10925,477.74,451.02
43.12908,477.73,452.21
43.14982,479.58,454.33
43.16841,479.50,451.91
43.18859,478.93,454.25
43.20990,478.31,453.93
43.23012,478.40,454.41
43.24905,478.22,452.04
43.26947,479.28,453.32
43.28990,480.50,452.94
43.30992,479.67,453.67
43.32863,480.24,452.03
43.34920,480.45,452.44
43.36858,479.41,452.47
43.38882,476.40,453.27
43.40986,476.87,451.32
43.42911,479.56,453.10
43.44996,478.92,452.27
43.46871,477.97,454.14
43.48860,477.18,449.02
43.50872,474.63,438.71
43.52870,472.36,420.75
43.54893,464.79,406.49
43.56912,460.58,392.29
43.58919,458.85,379.60
43.60950,454.39,371.10
43.62830,448.58,364.08
43.64911,448.78,358.25
43.67058,449.86,356.32
43.69054,450.66,357.18
43.71060,451.84,357.22
43.73119,454.49,356.22
43.74985,456.62,359.63
43.76891,457.32,367.28
43.78960,459.07,373.53
43.80900,462.73,378.13
43.83017,464.95,385.63
43.85156,465.66,393.42
43.87218,470.82,398.96
43.89022,470.38,405.52
43.91189,470.76,407.84
43.93105,472.88,415.49
43.95044,476.53,420.11
43.97074,475.72,422.77
43.99107,480.99,426.54
44.01185,480.97,429.02
44.03080,484.15,433.72
44.05029,485.16,432.71
44.07098,485.35,438.76
44.09104,481.72,439.59
44.11156,484.77,441.43
44.13063,486.04,441.42
44.15112,486.06,442.19
44.17132,486.02,444.27
44.19030,483.88,445.29
44.21151,484.19,443.59
44.23196,483.32,447.69
44.25216,485.35,445.22
44.27047,485.20,447.67
44.29069,486.67,450.12
44.31143,486.70,450.92
44.33151,484.55,448.19
44.35070,488.23,453.27
44.37017,490.22,465.59
44.39235,495.72,491.06
44.41295,499.21,519.78
44.43210,502.62,556.50
44.45129,507.40,577.35
44.47184,515.29,594.92
44.49160,519.83,600.32
44.51232,524.13,596.75
44.53310,524.77,587.70
44.55215,524.37,576.01
44.57209,521.24,561.82
44.59172,519.82,547.55
44.61288,517.08,533.46
44.63112,512.15,522.54
44.65292,512.15,511.52
44.67132,507.62,500.62
44.69256,508.43,495.40
44.71314,504.43,486.18
44.73203,503.37,482.51
44.75292,501.17,477.62
44.77140,500.46,476.98
44.79233,496.85,469.90
44.81189,497.61,468.87
44.83166,494.06,467.00
44.85249,495.11,464.72
44.87287,492.13,461.34
44.89298,492.73,462.25
44.91161,493.52,458.40
44.93152,495.24,458.40
44.95284,495.67,458.92
44.97130,494.75,458.44
44.99304,494.38,457.73
45.01263,491.82,454.45
45.03188,491.97,456.28
45.05143,491.90,457.74
45.07180,491.33,455.60
45.09186,490.76,454.82
45.11320,493.07,454.07
45.13272,492.36,455.08
45.15168,490.96,452.48
45.17278,491.53,452.89
45.19202,488.25,456.30
45.21158,489.30,453.59
45.23278,488.41,455.74
45.25149,493.10,454.35
45.27276,490.94,452.92
45.29210,489.39,454.94
45.31284,491.82,456.15
45.33181,492.45,454.95
45.35259,489.88,456.07
45.37276,489.84,456.49
45.39144,489.34,456.29
45.41229,488.13,452.82
45.43307,488.37,454.00
45.45202,489.78,453.15
45.47177,488.04,452.96
45.49281,489.41,455.44
45.51250,488.08,457.67
45.53149,488.49,453.87
45.55189,487.50,456.16
45.57117,489.21,456.48
45.59115,488.24,453.37
45.61148,490.64,452.96
45.63179,489.03,453.54
45.65215,489.75,455.44
45.67302,490.96,455.40
45.69193,486.71,446.68
45.71214,483.20,434.88
45.73259,476.51,420.95
45.75194,467.39,404.93
45.77121,461.13,388.80
45.79214,460.19,376.60
45.81313,453.58,365.62
45.83211,450.43,358.10
45.85256,449.26,351.17
45.87164,444.91,348.29
45.89208,444.90,348.90
45.91159,451.58,352.86
45.93286,451.77,356.78
45.95205,454.77,364.42
45.97159,457.70,373.00
45.99174,460.34,377.70
46.01152,460.54,387.31
46.03101,462.76,393.39
46.05244,464.93,401.51
46.07207,466.03,408.55
46.09248,469.35,413.22
46.11163,473.89,418.12
46.13173,473.94,420.34
46.15162,475.48,426.74
46.17277,478.71,429.12
46.19263,478.14,430.09
46.21292,478.27,434.38
46.23285,480.91,438.19
46.25124,480.12,439.12
46.27258,482.55,442.28
46.29182,480.70,443.41
46.31130,481.01,444.22
46.33176,481.28,444.85
46.35301,482.08,445.06
46.37174,481.85,448.87
46.39123,483.64,448.33
46.41268,481.95,448.61
46.43232,481.28,449.49
46.45198,481.77,451.69
46.47227,485.76,469.49
46.49181,486.48,494.38
46.51224,491.15,522.01
46.53209,497.85,549.85
46.55238,506.86,574.58
46.57257,515.40,590.14
46.59159,521.48,596.18
46.61243,527.54,599.64
46.63183,528.92,592.16
46.65297,530.80,581.04
46.67299,529.10,565.99
46.69304,525.51,552.05
46.71181,520.50,537.97
46.73247,517.03,527.87
46.75283,516.82,516.32
46.77304,512.77,507.54
46.79248,509.86,499.83
46.81232,505.17,493.50
46.83307,504.18,483.87
46.85146,501.23,481.05
46.87101,498.67,475.65
46.89133,494.92,474.87
46.91264,491.80,471.59
46.93272,491.55,467.27
46.95204,489.11,465.04
46.97297,490.94,462.27
46.99118,489.49,458.48
47.01274,489.71,454.78
47.03181,486.39,456.51
47.05131,487.56,454.55
47.07246,486.70,455.75
47.09243,483.18,452.90
47.11186,483.30,453.53
47.13204,484.12,454.11
47.15257,485.32,454.29
47.17208,482.44,452.64
47.19267,482.59,450.00
47.21338,482.16,453.32
47.23303,482.51,452.48
47.25350,480.49,452.20
47.27340,478.75,454.16
47.29289,479.78,452.70
47.31383,480.30,455.46
47.33324,478.62,456.19
47.35317,480.19,455.32
47.37380,480.78,455.77
47.39260,480.31,456.40
47.41356,481.77,456.46
47.43297,480.05,458.64
47.45216,480.14,455.94
47.47250,481.88,456.18
47.49262,481.57,457.13
47.51317,477.32,457.71
47.53220,478.62,457.40
47.55318,477.84,456.79
47.57233,475.49,456.92
47.59286,473.83,455.10
47.61280,472.16,456.63
47.63358,474.26,456.79
47.65230,474.02,457.45
47.67337,474.00,457.17
47.69339,472.43,451.61
47.71402,468.76,437.47
47.73377,466.97,421.31
47.75226,462.28,406.57
47.77375,457.09,392.12
47.79380,450.78,383.18
47.81333,447.70,371.18
47.83351,447.61,365.57
47.85270,443.73,358.29
47.87373,443.74,357.93
47.89231,445.51,355.79
47.91275,444.62,357.72
47.93268,444.89,360.04
47.95305,443.56,363.81
47.97368,443.81,366.00
47.99328,446.03,371.27
48.01268,447.02,380.59
48.03317,451.44,383.35
48.05246,451.77,392.20
48.07320,454.82,397.41
48.09235,456.66,401.57
48.11248,460.40,407.66
48.13325,460.52,410.74
48.15316,460.36,414.16
48.17297,463.50,421.38
48.19236,462.47,423.43
48.21257,462.79,428.22
48.23274,465.19,431.40
48.25202,466.75,433.13
48.27314,465.02,437.29
48.29334,465.16,440.38
48.31358,463.92,441.97
48.33371,465.93,443.92
48.35258,466.74,448.00
48.37316,468.06,447.02
48.39338,466.42,448.45
48.41329,469.40,448.64
48.43302,466.34,450.66
48.45234,466.76,450.79
48.47281,466.79,451.02
48.49303,469.45,452.80
48.51349,468.60,452.24
48.53271,469.15,452.61
48.55306,469.46,451.77
48.57225,470.52,454.08
48.59252,470.89,452.54
48.61218,470.47,452.86
48.63269,469.61,453.06
48.65240,470.45,451.91
48.67321,469.30,453.92
48.69320,472.39,460.92
48.71348,473.56,486.41
48.73356,476.27,517.56
48.75300,486.61,557.11
48.77396,490.28,585.90
48.79289,500.89,604.10
48.81281,503.08,613.55
48.83257,507.81,615.48
48.85296,511.76,607.21
48.87286,509.61,592.82
48.89267,506.54,576.40
48.91377,505.57,555.83
48.93406,501.62,539.86
48.95307,499.95,525.66
48.97369,495.29,514.39
48.99372,493.80,504.02
49.01364,489.20,495.27
49.03389,489.24,485.56
49.05335,485.92,479.43
49.07317,486.27,476.12
49.09262,482.09,471.77
49.11239,478.75,465.54
49.13381,480.54,463.82
49.15395,477.50,464.67
49.17269,480.28,460.84
49.19285,476.79,460.20
49.21232,480.03,461.73
49.23267,477.97,457.50
49.25316,478.49,457.34
49.27372,478.81,457.02
49.29193,478.24,456.48
49.31378,475.04,457.88
49.33245,474.76,455.69
49.35270,476.22,456.44
49.37239,475.24,454.01
49.39284,474.00,457.58
49.41291,473.10,458.30
49.43297,474.42,454.76
49.45393,474.65,456.69
49.47386,474.12,455.03
49.49368,474.76,455.80
49.51260,472.48,454.67
49.53208,472.34,454.41
49.55374,473.55,453.76
49.57208,471.91,456.49
49.59245,472.02,454.58
49.61393,471.79,453.03
49.63369,472.89,455.16
49.65399,472.23,453.27
49.67234,472.09,452.25
49.69373,468.82,454.64
49.71361,468.81,455.38
49.73247,469.83,465.31
49.75343,471.69,480.89
49.77274,479.42,506.27
49.79220,488.07,527.34
49.81273,491.43,549.68
49.83244,496.88,552.00
49.85383,492.94,547.89
49.87216,488.06,531.64
49.89275,483.59,505.86
49.91355,473.17,480.02
49.93250,467.06,454.65
49.95215,461.59,434.73
49.97280,461.40,417.88
49.99287,457.79,411.13
50.01185,456.20,405.14
50.03350,455.45,408.30
50.05364,456.19,426.98
50.07263,462.69,461.44
50.09361,466.91,495.53
50.11385,472.73,526.48
50.13231,476.20,538.37
50.15285,481.70,542.19
50.17374,483.19,530.49
50.19308,482.92,514.61
50.21406,479.32,490.65
50.23404,478.46,473.01
50.25324,475.44,457.12
50.27498,476.40,451.40
50.29383,479.60,448.47
50.31402,483.88,458.72
50.33438,488.23,476.75
50.35479,493.91,499.75
50.37312,497.61,519.75
50.39293,496.58,518.23
50.41334,493.08,507.98
50.43476,490.02,492.56
50.45329,483.68,471.70
50.47485,479.37,449.89
50.49302,474.93,435.80
50.51326,472.64,423.72
50.53349,469.86,415.78
50.55474,471.04,418.68
50.57343,472.37,436.72
50.59336,473.93,461.63
50.61308,478.74,478.01
50.63463,475.74,476.55
50.65310,479.15,468.08
50.67425,477.45,456.37
50.69435,474.91,443.31
50.71331,472.78,428.32
50.73342,469.90,418.25
50.75339,469.41,411.51
50.77287,471.46,415.87
50.79372,473.20,439.41
50.81331,475.82,468.02
50.83344,479.36,484.81
50.85395,477.50,487.16
50.87343,476.89,480.66
50.89435,475.66,468.39
50.91490,475.78,453.90
50.93395,473.84,439.67
50.95387,471.92,426.47
50.97400,469.97,418.37
50.99318,468.93,410.99
51.01323,469.10,406.50
51.03355,469.06,400.75
51.05355,468.94,400.68
51.07308,470.88,400.96
51.09475,471.59,400.02
51.11450,471.77,404.78
51.13373,473.23,408.65
51.15354,469.53,403.49
51.17382,463.43,390.79
51.19424,452.84,375.54
51.21385,447.75,370.10
51.23375,445.89,370.42
51.25387,444.90,370.71
51.27440,449.00,375.60
51.29498,451.59,381.27
51.31494,455.37,386.72
51.33439,456.91,397.04
51.35442,460.80,403.00
51.37458,459.97,410.09
51.39361,465.23,414.56
51.41476,466.42,418.55
51.43425,471.02,424.19
51.45440,473.15,431.45
51.47471,473.21,434.59
51.49301,475.19,436.58
51.51342,477.04,438.92
51.53417,478.46,440.74
51.55324,477.96,444.45
51.57333,481.51,440.04
51.59341,478.37,435.88
51.61480,481.62,432.14
51.63497,479.51,432.72
51.65370,481.91,435.20
51.67369,483.93,436.80
51.69461,482.73,434.17
51.71469,484.19,436.20
51.73416,485.17,438.57
51.75329,484.84,441.79
51.77342,488.59,444.82
51.79432,487.39,443.46
51.81584,487.71,444.92
51.83479,489.09,451.59
51.85609,490.57,454.29
51.87510,490.93,455.88
51.89426,494.36,458.06
51.91459,494.52,461.19
51.93553,495.03,460.30
51.95481,499.67,461.50
51.97459,496.51,461.77
51.99517,495.14,463.39
52.01595,496.07,463.76
52.03476,496.00,464.06
52.05554,493.40,464.36
52.07478,495.60,461.03
52.09564,493.40,461.41
52.11459,494.81,463.03
52.13571,494.42,460.70
52.15451,489.29,460.86
52.17508,488.57,458.38
52.19463,490.43,460.77
52.21598,487.41,462.65
52.23569,485.24,461.47
52.25419,486.21,464.35
52.27455,486.49,463.04
52.29384,487.75,462.09
52.31533,485.10,465.03
52.33401,489.50,463.80
52.35538,491.43,464.09
52.37669,493.79,466.16
52.39531,494.30,465.63
52.41534,496.43,466.95
52.43620,494.84,468.75
52.45682,496.80,469.11
52.47536,494.46,468.53
52.49539,496.79,470.77
52.51652,494.05,473.19
52.53636,497.45,475.34
52.55573,496.04,474.55
52.57531,493.40,468.04
52.59544,488.92,462.16
52.61584,485.91,458.21
52.63673,491.00,457.03
52.65544,488.68,456.61
52.67577,483.61,457.01
52.69654,483.19,459.14
52.71588,486.64,456.62
52.73687,486.09,456.14
