Program Time [s],data 0,data 1
3.79474,516.63,521.19
3.81482,517.85,525.92
3.83418,517.94,526.48
3.85445,517.19,527.76
3.87495,518.13,529.01
3.89536,518.50,529.26
3.91528,520.34,526.97
3.93549,519.36,529.25
3.95542,518.69,528.81
3.97448,518.55,525.61
3.99470,519.43,527.61
4.01623,519.80,526.18
4.03567,519.60,526.10
4.05557,519.75,525.86
4.07563,516.66,524.33
4.09377,516.15,522.96
4.11488,514.18,523.60
4.13484,514.97,526.10
4.15427,514.85,525.25
4.17444,517.07,524.01
4.19410,515.50,527.09
4.21540,516.74,525.78
4.23520,518.97,524.14
4.25473,520.34,523.78
4.27493,521.60,523.68
4.29453,520.92,525.11
4.31520,522.07,525.53
4.33496,518.81,525.30
4.35419,520.12,523.54
4.37411,519.64,523.56
4.39452,516.64,526.36
4.41360,516.15,524.77
4.43549,517.70,523.54
4.45515,515.68,521.05
4.47439,518.94,520.16
4.49375,515.72,523.20
4.51423,515.18,522.10
4.53480,514.79,524.07
4.55430,514.78,525.56
4.57537,514.65,526.88
4.59450,513.54,528.06
4.61525,516.43,531.01
4.63453,517.41,531.17
4.65516,515.13,530.75
4.67499,514.39,528.72
4.69600,512.21,526.79
4.71521,514.21,526.40
4.73566,517.26,528.23
4.75618,518.69,528.79
4.77632,516.50,526.19
4.79596,518.35,528.11
4.81571,517.64,528.34
4.83620,519.20,527.14
4.85507,514.89,524.25
4.87587,518.02,524.76
4.89508,516.02,527.04
4.91465,518.11,524.17
4.93658,518.65,523.58
4.95587,516.77,525.19
4.97615,516.86,526.72
4.99558,516.69,524.92
5.01627,518.35,525.86
5.03501,514.76,525.42
5.05615,517.91,526.87
5.07643,515.91,526.39
5.09502,517.55,525.28
5.11499,519.91,528.46
5.13525,518.94,526.69
5.15534,519.98,530.62
5.17508,517.69,530.11
5.19547,519.28,529.42
5.21502,517.53,526.81
5.23650,517.65,529.29
5.25625,518.94,526.29
5.27620,514.21,526.58
5.29542,516.26,528.01
5.31538,516.57,525.38
5.33490,512.52,523.65
5.35508,513.71,527.22
5.37537,515.90,526.31
5.39539,514.17,525.97
5.41645,511.82,523.87
5.43647,514.50,526.32
5.45635,512.26,525.23
5.47465,511.68,527.31
5.49583,509.27,527.39
5.51579,511.01,526.42
5.53609,511.62,527.23
5.55624,509.43,527.26
5.57500,511.85,526.98
5.59482,510.08,526.66
5.61537,509.49,527.69
5.63616,509.34,525.88
5.65508,508.92,526.02
5.67634,508.47,527.44
5.69565,508.96,525.23
5.71530,508.84,527.26
5.73604,511.90,525.15
5.75528,513.13,525.08
5.77475,511.50,523.75
5.79556,513.67,523.48
5.81656,512.04,524.97
5.83570,510.23,523.21
5.85550,512.68,524.77
5.87469,511.24,526.46
5.89516,512.77,527.33
5.91511,510.96,522.48
5.93584,508.07,505.56
5.95545,505.21,486.76
5.97548,501.32,465.30
5.99576,497.70,440.89
6.01574,496.96,424.38
6.03468,492.80,405.31
6.05642,491.73,393.53
6.07492,492.05,385.59
6.09707,493.70,378.27
6.11705,493.88,381.17
6.13642,495.42,387.01
6.15721,495.77,395.25
6.17699,498.38,404.29
6.19593,501.55,413.08
6.21596,502.01,427.17
6.23639,503.33,438.13
6.25604,503.52,448.86
6.27635,506.40,458.23
6.29586,506.85,463.55
6.31752,508.69,470.30
6.33679,511.94,477.95
6.35556,511.43,485.00
6.37645,512.45,490.15
6.39716,514.28,493.79
6.41685,514.86,499.70
6.43674,513.95,499.25
6.45566,513.41,501.14
6.47583,511.12,506.67
6.49737,509.92,507.12
6.51673,511.02,509.67
6.53718,510.65,520.22
6.55668,512.20,551.16
6.57602,515.56,593.11
6.59743,516.34,639.42
6.61569,517.88,670.63
6.63613,523.84,691.54
6.65623,522.43,700.43
6.67632,521.36,691.39
6.69650,520.84,679.22
6.71641,518.96,662.38
6.73701,518.63,648.21
6.75655,515.52,632.55
6.77628,515.46,617.05
6.79613,512.48,606.35
6.81710,512.64,595.65
6.83669,513.76,583.54
6.85671,513.85,575.87
6.87667,513.13,570.64
6.89719,511.90,564.83
6.91734,512.07,555.91
6.93609,511.15,554.65
6.95613,510.01,547.00
6.97623,509.85,545.21
6.99626,509.54,542.16
7.01630,511.46,538.14
7.03574,511.10,535.09
7.05704,511.51,534.38
7.07605,510.42,535.24
7.09630,508.29,530.84
7.11595,508.57,530.27
7.13699,509.63,530.67
7.15709,505.23,529.32
7.17750,508.32,529.11
7.19691,505.06,530.74
7.21695,505.44,529.78
7.23661,502.28,528.86
7.25724,503.79,530.76
7.27743,503.35,527.10
7.29634,505.34,528.49
7.31687,507.92,526.35
7.33572,507.13,525.48
7.35684,504.54,524.49
7.37722,505.26,525.05
7.39571,506.47,523.60
7.41608,504.68,525.58
7.43741,507.11,521.78
7.45707,505.43,524.03
7.47584,504.21,526.14
7.49594,507.30,523.89
7.51588,504.47,525.22
7.53726,508.15,523.77
7.55665,506.16,523.11
7.57578,504.48,525.14
7.59579,506.07,523.43
7.61574,508.46,523.68
7.63747,508.01,525.59
7.65693,504.73,524.12
7.67658,503.77,523.77
7.69568,503.69,519.95
7.71603,507.49,520.52
7.73698,504.49,520.12
7.75560,507.36,521.01
7.77722,506.81,520.74
7.79708,504.83,521.10
7.81606,503.33,519.81
7.83683,502.79,522.52
7.85742,504.77,521.27
7.87536,505.90,521.45
7.89728,507.04,521.41
7.91734,505.15,521.65
7.93590,503.71,520.29
7.95735,505.10,521.83
7.97632,505.36,521.40
7.99570,504.26,523.27
8.01724,504.21,522.47
8.03543,505.95,520.62
8.05754,505.21,523.00
8.07567,503.28,522.66
8.09731,503.25,521.86
8.11749,504.97,522.40
8.13666,506.64,523.12
8.15547,505.76,522.56
8.17610,506.99,523.29
8.19585,503.78,521.03
8.21735,506.56,521.85
8.23682,508.07,524.15
8.25752,506.36,521.92
8.27701,507.66,525.10
8.29627,505.60,523.68
8.31628,507.38,524.05
8.33576,507.03,521.64
8.35838,504.33,522.60
8.37664,507.60,520.83
8.39733,507.78,520.68
8.41805,507.25,520.21
8.43792,506.42,521.43
8.45651,504.08,521.03
8.47715,504.93,519.62
8.49802,505.53,522.02
8.51919,502.18,522.00
8.53808,502.94,520.29
8.55931,504.04,522.38
8.57903,506.21,522.55
8.59906,506.79,519.66
8.61741,504.69,519.78
8.63882,504.04,521.77
8.65899,505.66,520.32
8.67778,506.98,521.77
8.69796,509.51,522.32
8.71865,509.71,521.54
8.73758,508.24,521.24
8.75838,507.21,519.29
8.77924,508.15,519.87
8.79919,506.48,521.86
8.81918,506.26,519.22
8.83833,507.76,517.71
8.85762,505.46,518.87
8.87909,508.97,520.76
8.89859,507.51,519.22
8.91908,509.20,520.92
8.93829,506.03,519.71
8.95769,508.30,520.32
8.97742,507.57,519.79
8.99799,508.08,520.25
9.01816,507.71,520.36
9.03829,508.75,518.45
9.05813,505.63,517.48
9.07826,508.25,514.61
9.09846,507.92,515.71
9.11958,508.22,514.83
9.13789,508.60,514.85
9.15828,507.84,515.47
9.17766,505.60,514.22
9.19874,505.77,515.47
9.21847,508.98,514.31
9.23914,509.79,514.41
9.25825,508.39,513.62
9.27817,507.64,514.18
9.29942,508.36,514.59
9.31796,506.27,514.49
9.33774,509.46,515.03
9.35773,507.31,513.86
9.37779,506.91,516.20
9.39766,507.22,518.41
9.41768,507.93,509.61
9.43742,505.26,496.23
9.45821,504.83,474.76
9.47775,499.92,454.59
9.49915,498.78,433.15
9.51911,492.00,411.86
9.53895,494.01,391.13
9.55948,490.22,378.03
9.58031,490.77,366.98
9.59930,494.94,363.66
9.61884,495.98,364.85
9.64079,497.96,368.06
9.65879,502.08,379.14
9.68036,500.19,385.18
9.69907,503.14,400.44
9.71870,506.53,411.63
9.74036,507.99,423.62
9.75977,509.20,434.96
9.78007,509.56,445.29
9.79875,506.11,453.19
9.82129,508.33,461.04
9.84115,509.08,472.29
9.86148,510.33,476.56
9.88247,513.44,496.63
9.90186,513.45,534.17
9.92252,519.38,578.84
9.94177,519.27,623.20
9.96236,522.93,657.50
9.98219,523.77,681.13
10.00263,526.90,698.29
10.02223,526.97,696.89
10.04215,527.04,684.79
10.06181,529.31,668.84
10.08185,525.55,651.60
10.10220,524.85,636.43
10.12236,526.43,622.79
10.14249,524.53,608.00
10.16350,524.96,595.63
10.18316,527.68,583.95
10.20228,525.28,576.62
10.22183,528.04,570.51
10.24290,525.32,559.67
10.26163,521.98,556.17
10.28315,519.33,551.04
10.30302,520.81,547.43
10.32199,519.34,546.02
10.34167,518.77,542.77
10.36317,521.04,539.16
10.38164,517.90,537.65
10.40143,520.04,533.00
10.42297,518.63,530.75
10.44265,519.84,531.25
10.46285,518.50,530.74
10.48246,520.36,530.55
10.50256,520.37,528.88
10.52256,519.67,530.05
10.54304,517.93,529.08
10.56175,518.95,529.44
10.58227,520.14,525.70
10.60172,520.05,524.12
10.62233,521.24,524.81
10.64234,519.14,527.32
10.66332,520.00,524.77
10.68311,520.28,525.52
10.70310,520.45,522.61
10.72321,519.59,524.67
10.74192,521.56,522.50
10.76303,520.59,522.30
10.78182,522.05,523.21
10.80264,525.02,524.25
10.82313,523.39,525.25
10.84314,520.40,522.86
10.86249,520.81,526.85
10.88199,521.76,524.47
10.90246,523.48,527.49
10.92333,522.86,523.78
10.94200,523.01,526.08
10.96312,522.84,526.08
10.98287,523.07,523.58
11.00278,520.61,524.67
11.02351,519.91,522.73
11.04330,519.30,523.75
11.06262,517.81,522.38
11.08219,521.01,524.49
11.10303,520.80,525.55
11.12270,521.74,522.65
11.14329,518.70,524.54
11.16354,519.34,523.24
11.18264,519.92,523.78
11.20291,518.82,525.18
11.22244,519.19,523.31
11.24178,519.55,523.86
11.26199,519.16,525.07
11.28255,521.63,523.37
11.30326,522.19,524.33
11.32233,520.49,524.78
11.34351,521.96,524.37
11.36336,521.82,524.77
11.38233,520.34,523.21
11.40259,522.13,525.96
11.42178,520.66,526.76
11.44212,523.14,523.34
11.46205,522.57,524.79
11.48297,523.87,525.90
11.50148,524.35,522.94
11.52340,522.68,524.81
11.54183,521.66,524.54
11.56310,521.19,523.87
11.58240,524.31,524.92
11.60310,524.86,524.40
11.62199,524.16,523.36
11.64311,523.63,528.44
11.66316,523.14,526.54
11.68184,520.91,528.24
11.70180,522.16,525.26
11.72196,522.42,527.34
11.74309,520.45,526.79
11.76189,518.28,524.66
11.78325,523.05,527.54
11.80327,520.49,525.41
11.82273,521.22,525.75
11.84315,521.79,526.18
11.86323,523.55,527.97
11.88322,522.13,526.94
11.90368,522.43,528.52
11.92381,522.71,526.28
11.94358,523.76,525.05
11.96373,524.01,526.34
11.98428,524.33,527.44
12.00413,522.83,527.62
12.02327,525.81,526.36
12.04371,526.34,526.00
12.06333,522.09,524.16
12.08343,524.65,525.95
12.10365,524.51,526.08
12.12421,525.05,527.08
12.14369,523.42,524.57
12.16336,524.31,526.94
12.18284,522.40,526.50
12.20384,521.51,528.28
12.22403,521.42,526.26
12.24427,523.74,528.03
12.26407,522.95,527.68
12.28502,523.74,530.14
12.30493,522.42,526.68
12.32498,521.69,526.41
12.34361,522.37,525.61
12.36366,523.77,525.25
12.38547,524.52,525.36
12.40600,523.22,529.21
12.42552,521.89,528.44
12.44589,524.14,527.21
12.46557,521.09,526.68
12.48434,521.18,527.12
12.50553,521.51,526.61
12.52476,520.82,526.81
12.54562,520.84,526.70
12.56638,519.21,527.23
12.58551,520.40,526.43
12.60606,521.68,525.09
12.62631,521.12,528.54
12.64479,522.15,527.66
12.66558,521.95,528.04
12.68447,520.43,526.07
12.70485,521.15,525.56
12.72612,518.19,524.81
12.74477,519.04,524.30
12.76519,520.31,524.89
12.78538,520.73,527.32
12.80624,519.96,524.38
12.82686,518.57,524.31
12.84657,520.63,526.19
12.86686,517.51,525.86
12.88598,519.16,524.63
12.90674,519.42,528.01
12.92714,519.24,528.17
12.94708,519.93,528.40
12.96672,519.27,528.71
12.98694,521.00,527.04
13.00685,521.37,529.45
13.02600,520.26,528.18
13.04587,518.81,530.77
13.06745,521.56,528.37
13.08544,521.43,527.45
13.10555,521.90,529.08
13.12697,515.59,524.79
13.14804,513.34,509.46
13.16733,508.66,486.30
13.18767,506.55,464.45
13.20745,500.77,438.97
13.22787,493.17,416.86
13.24779,491.54,402.46
13.26742,490.84,386.13
13.28833,489.44,379.49
13.30814,491.95,374.61
13.32760,491.36,377.77
13.34653,493.86,380.99
13.36826,496.77,386.23
13.38796,500.05,396.24
13.40686,503.97,405.35
13.42838,503.79,418.71
13.44693,505.81,430.11
13.46716,506.77,438.87
13.48735,510.54,449.16
13.50808,511.65,458.86
13.52670,512.35,466.81
13.54706,512.88,476.05
13.56820,511.53,481.42
13.58808,516.05,485.80
13.60729,514.59,493.14
13.62753,518.39,496.21
13.64826,517.06,502.31
13.66705,517.60,504.83
13.68765,517.21,507.84
13.70686,517.42,523.91
13.72789,520.73,553.30
13.74673,519.90,595.21
13.76649,522.32,634.19
13.78743,526.77,667.40
13.80746,528.74,693.26
13.82748,533.12,705.33
13.84823,534.86,707.00
13.86804,535.65,695.15
13.88671,535.99,677.72
13.90669,533.64,662.31
13.92666,532.57,644.11
13.94650,528.56,623.85
13.96767,529.20,610.71
13.98774,525.20,596.85
14.00700,522.89,584.72
14.02823,524.32,577.10
14.04657,520.51,569.48
14.06735,518.40,563.01
14.08759,519.24,559.69
14.10698,519.32,552.67
14.12769,518.34,548.60
14.14752,519.96,543.04
14.16823,520.28,542.83
14.18761,519.01,537.08
14.20818,518.18,538.36
14.22838,515.42,533.53
14.24796,516.32,532.74
14.26785,517.89,532.04
14.28780,515.76,527.43
14.30717,516.39,526.19
14.32785,516.32,527.17
14.34747,518.41,525.21
14.36700,515.93,526.18
14.38656,515.44,524.27
14.40826,517.70,527.80
14.42666,518.08,526.74
14.44803,517.49,526.21
14.46799,516.57,528.45
14.48797,513.44,527.64
14.50768,514.61,523.67
14.52798,514.49,522.56
14.54769,513.07,525.11
14.56651,512.85,523.92
14.58799,516.30,523.46
14.60766,513.68,525.06
14.62890,513.62,524.39
14.64821,512.37,527.10
14.66885,512.60,525.28
14.68767,510.95,524.12
14.70726,510.88,524.53
14.72828,511.53,524.19
14.74877,510.66,522.29
14.76756,512.12,523.38
14.78797,513.57,524.49
14.80754,510.62,525.59
14.82917,512.25,525.31
14.84845,512.58,524.71
14.86876,508.93,523.98
14.88943,509.00,524.67
14.90955,509.38,525.52
14.92913,507.42,524.04
14.94888,505.94,523.42
14.96945,505.05,523.93
14.98889,506.38,521.55
15.00990,504.94,524.37
15.02916,504.39,520.15
15.04997,503.08,521.72
15.06946,505.55,520.19
15.08919,507.54,522.88
15.10867,506.46,521.29
15.12873,508.30,523.40
15.14974,509.75,522.25
15.16842,509.38,521.38
15.18817,510.67,519.99
15.20936,505.95,523.29
15.22921,507.01,521.71
15.24864,507.36,524.42
15.27024,507.11,521.93
15.28933,508.41,523.99
15.31025,507.83,522.74
15.32935,505.44,521.31
15.34980,506.25,523.40
15.37006,507.00,520.74
15.39054,506.54,522.69
15.40947,504.61,522.00
15.42875,508.00,518.94
15.45032,506.29,520.90
15.46862,506.26,518.95
15.48969,506.84,520.56
15.51004,504.54,517.88
15.53117,506.08,521.09
15.55132,508.17,517.81
15.57125,506.57,518.13
15.58986,504.58,516.82
15.61017,506.68,519.87
15.63133,506.87,520.88
15.65101,508.71,521.45
15.67113,507.96,519.48
15.68954,506.87,519.44
15.71125,505.09,519.15
15.73041,506.71,518.41
15.74995,504.74,519.69
15.77085,507.17,520.47
15.78967,504.34,521.51
15.81027,505.46,518.91
15.83133,504.53,518.42
15.85114,504.86,516.46
15.87058,506.55,518.89
15.89105,506.20,519.41
15.91087,507.66,520.29
15.92967,507.18,517.46
15.95078,503.44,518.92
15.96984,504.49,518.90
15.99039,505.00,520.29
16.00974,504.16,522.10
16.03119,504.37,521.02
16.05133,503.41,522.32
16.06986,504.49,519.40
16.09059,505.00,521.10
16.11027,505.78,519.59
16.12983,506.41,519.53
16.14989,507.64,518.99
16.16966,508.01,520.46
16.19118,507.99,521.06
16.21065,507.01,519.07
16.23031,508.43,519.30
16.25075,509.20,519.18
16.27002,509.10,521.32
16.29040,511.80,522.85
16.31080,510.38,522.76
16.33120,510.20,520.86
16.35022,509.75,522.95
16.37036,510.78,520.79
16.39055,511.02,522.00
16.41000,510.73,520.44
16.43125,509.62,522.06
16.44948,507.31,520.38
16.47052,507.25,521.76
16.49127,508.66,518.58
16.51129,505.56,519.69
16.53006,505.67,520.70
16.55103,507.82,517.82
16.57086,504.38,518.73
16.59124,504.88,521.41
16.60985,508.65,519.25
16.63115,506.12,521.70
16.64972,509.12,522.03
16.66925,506.63,522.49
16.69064,509.46,520.70
16.71037,507.18,519.54
16.72966,508.25,522.63
16.75006,507.81,520.97
16.76955,506.59,519.90
16.79094,505.79,518.51
16.81207,505.63,517.57
16.83091,505.48,517.67
16.85113,507.03,517.64
16.87195,507.18,516.08
16.89229,507.48,517.65
16.91159,508.13,518.72
16.93150,508.80,518.13
16.95209,508.34,519.45
16.97255,508.63,521.24
16.99301,509.95,519.56
17.01145,507.16,521.14
17.03143,506.90,521.09
17.05157,507.80,520.28
17.07293,508.02,519.96
17.09251,507.22,520.86
17.11154,508.72,519.48
17.13317,507.59,517.42
17.15219,507.07,519.04
17.17337,506.29,520.15
17.19134,506.94,516.22
17.21176,508.08,500.86
17.23165,505.65,486.09
17.25261,503.37,465.74
17.27183,501.59,449.47
17.29266,498.65,437.69
17.31257,497.53,425.08
17.33292,495.44,415.93
17.35151,493.39,406.41
17.37261,493.71,395.82
17.39153,495.06,390.30
17.41135,494.41,389.75
17.43328,491.93,386.77
17.45224,495.55,388.45
17.47279,495.42,393.75
17.49163,496.96,400.07
17.51294,501.12,405.26
17.53241,500.45,414.46
17.55296,502.28,425.66
17.57230,504.83,436.58
17.59261,505.69,442.63
17.61278,505.94,452.13
17.63217,506.86,458.63
17.65160,504.85,464.13
17.67320,505.91,470.24
17.69226,507.63,475.13
17.71245,504.95,493.43
17.73154,505.62,527.78
17.75296,506.81,568.54
17.77390,508.98,614.73
17.79348,511.88,648.23
17.81302,514.45,677.60
17.83434,519.49,690.77
17.85478,519.49,694.87
17.87548,522.49,686.47
17.89560,522.76,669.73
17.91722,527.27,655.11
17.93679,526.31,641.44
17.95836,525.35,625.10
17.97789,527.87,610.70
17.99793,525.14,600.95
18.01898,526.65,592.05
18.03869,526.25,581.08
18.05784,529.01,573.85
18.07774,524.36,564.18
18.09797,524.13,558.95
18.11863,523.19,554.68
18.13849,524.22,550.68
18.15828,525.36,548.06
18.17786,526.95,542.81
18.19763,527.71,541.46
18.21834,526.06,538.49
18.23742,526.88,537.92
18.25759,525.18,533.59
18.27926,526.24,532.88
18.29888,527.47,532.19
18.32013,525.47,530.79
18.33879,527.32,528.31
18.35945,527.60,529.39
18.37962,525.15,529.72
18.39851,523.15,530.64
18.41882,527.78,526.81
18.43957,525.46,530.44
18.46064,526.00,528.48
18.48067,526.04,531.11
18.50076,525.58,527.84
18.52207,526.01,530.46
18.54186,526.12,530.57
18.56031,525.09,531.66
18.58206,525.76,528.25
18.60227,523.30,528.39
18.62101,526.03,529.49
18.64136,523.75,530.20
18.66155,525.16,528.67
18.68197,523.66,528.10
18.70202,522.08,525.87
18.72107,521.07,531.88
18.74051,524.22,532.68
18.76128,522.44,533.92
18.78063,521.07,535.92
18.80031,521.22,538.15
18.82076,519.76,534.70
18.84142,522.28,535.20
18.86062,518.57,535.52
18.88179,520.03,533.98
18.90049,520.58,533.60
18.92083,522.95,535.55
18.94054,520.68,533.99
18.96147,519.27,535.01
18.98164,519.27,534.71
19.00217,520.49,531.87
19.02046,521.15,532.73
19.04133,519.09,531.85
19.06103,520.63,534.21
19.08174,520.21,534.68
19.10262,523.02,533.25
19.12317,519.84,530.14
19.14253,515.55,529.11
19.16317,514.24,532.32
19.18256,515.89,531.27
19.20267,517.39,531.03
19.22299,515.20,527.18
19.24389,515.29,526.15
19.26210,516.47,528.49
19.28398,513.78,526.63
19.30239,515.80,526.33
19.32303,514.60,528.21
19.34289,513.27,528.14
19.36324,513.24,524.92
19.38242,511.14,524.56
19.40364,512.52,523.46
19.42409,512.83,526.07
19.44344,514.59,525.63
19.46440,513.59,522.74
19.48503,513.17,522.84
19.50348,511.71,522.00
19.52432,511.15,523.24
19.54517,510.76,524.88
19.56425,512.31,523.98
19.58451,511.59,527.32
19.60465,508.87,523.47
19.62431,509.23,524.06
19.64431,509.77,525.70
19.66381,510.03,527.09
19.68337,511.18,524.87
19.70437,507.78,526.89
19.72447,510.97,527.39
19.74407,508.07,529.83
19.76368,509.13,527.88
19.78501,509.61,527.72
19.80420,508.03,525.73
19.82486,507.21,525.48
19.84427,506.80,526.11
19.86593,509.59,523.26
19.88464,507.70,522.59
19.90618,508.91,524.82
19.92490,511.19,520.61
19.94554,509.82,518.73
19.96450,507.85,522.04
19.98456,508.24,520.80
20.00577,508.38,522.95
20.02565,506.41,522.06
20.04484,507.55,523.10
20.06452,506.92,522.25
20.08548,506.64,520.70
20.10474,507.91,520.03
20.12477,509.50,518.88
20.14460,507.10,519.35
20.16473,505.88,520.18
20.18514,510.80,519.50
20.20439,509.65,520.26
20.22431,506.42,518.05
20.24541,506.38,518.06
20.26593,506.60,518.33
20.28526,508.40,519.98
20.30461,507.07,518.62
20.32526,505.84,520.75
20.34618,505.71,520.70
20.36495,506.02,520.18
20.38586,508.51,519.39
20.40495,508.04,519.41
20.42626,507.91,519.71
20.44438,507.20,517.14
20.46537,508.09,516.62
20.48497,508.70,520.22
20.50484,508.70,520.78
20.52629,506.93,518.38
20.54457,504.70,522.94
20.56522,506.36,522.16
20.58604,507.97,522.31
20.60544,506.94,519.05
20.62483,507.14,520.29
20.64449,504.87,521.87
20.66431,507.31,520.83
20.68555,508.11,519.13
20.70510,505.98,517.72
20.72498,507.47,517.84
20.74505,506.21,515.95
20.76524,509.25,516.73
20.78456,509.11,520.03
20.80442,505.73,517.58
20.82528,508.40,518.76
20.84537,509.62,520.34
20.86469,507.98,518.79
20.88473,508.82,518.47
20.90563,507.39,518.06
20.92610,506.84,517.00
20.94608,503.41,505.07
20.96648,503.34,491.37
20.98600,503.88,475.88
21.00571,505.89,463.76
21.02514,505.63,446.68
21.04452,501.99,431.61
21.06449,501.85,416.58
21.08508,499.65,400.01
21.10574,499.05,385.21
21.12435,496.79,377.37
21.14496,495.61,375.99
21.16610,493.30,374.98
21.18533,495.77,375.33
21.20544,495.36,382.12
21.22520,496.72,391.85
21.24512,498.15,397.91
21.26607,498.44,410.06
21.28473,500.88,419.72
21.30422,502.60,431.03
21.32618,501.58,442.15
21.34456,502.27,452.54
21.36564,502.92,462.08
21.38468,503.82,471.16
21.40589,504.32,475.52
21.42504,504.52,484.40
21.44535,503.40,488.86
21.46509,499.16,492.10
21.48491,497.48,498.13
21.50551,495.56,502.82
21.52605,497.52,503.90
21.54562,495.60,506.11
21.56612,493.11,504.94
21.58519,493.95,506.55
21.60460,495.54,510.19
21.62550,495.29,523.56
21.64474,496.04,549.41
21.66437,500.46,588.29
21.68414,502.69,633.05
21.70528,507.71,672.47
21.72578,514.99,703.17
21.74458,518.05,716.97
21.76567,523.81,713.88
21.78517,524.58,706.34
21.80612,525.34,687.42
21.82516,523.34,669.40
21.84586,521.34,650.62
21.86526,520.30,630.31
21.88446,519.89,618.45
21.90609,517.55,603.69
21.92482,518.73,592.20
21.94492,514.93,582.25
21.96522,514.13,573.96
21.98606,514.20,564.82
22.00594,512.88,559.30
22.02473,513.85,551.88
22.04475,511.60,547.47
22.06439,512.51,539.33
22.08478,511.05,538.17
22.10568,512.26,532.74
22.12478,509.76,533.37
22.14525,508.88,528.25
22.16508,507.20,528.68
22.18493,506.52,527.28
22.20579,508.26,527.24
22.22551,504.23,524.17
22.24581,507.21,522.16
22.26563,506.91,522.77
22.28505,506.08,521.72
22.30568,505.81,519.04
22.32518,508.16,520.47
22.34453,507.67,519.23
22.36615,504.32,519.25
22.38577,505.00,517.43
22.40592,505.01,520.09
22.42551,505.33,519.40
22.44521,506.17,522.26
22.46572,504.57,520.85
22.48523,505.62,520.72
22.50432,508.11,521.11
22.52475,506.41,520.07
22.54586,505.86,519.02
22.56472,507.65,516.99
22.58421,504.91,519.04
22.60426,504.97,517.41
22.62430,506.90,518.24
22.64436,504.63,516.01
22.66563,502.76,518.84
22.68454,504.37,516.37
22.70633,503.59,518.09
22.72548,506.71,518.31
22.74423,503.01,516.94
22.76545,503.58,519.21
22.78505,502.86,518.77
22.80583,503.80,521.45
22.82443,503.99,519.83
22.84605,505.63,518.65
22.86606,506.56,519.55
22.88517,506.83,517.31
22.90566,504.36,517.95
22.92486,506.02,521.40
22.94576,508.11,518.03
22.96612,505.18,522.23
22.98553,506.33,519.33
23.00579,505.77,523.06
23.02582,503.08,519.88
23.04461,503.49,521.42
23.06488,504.67,521.74
23.08568,501.88,521.11
23.10452,501.69,521.75
23.12482,505.75,524.86
23.14439,505.33,522.40
23.16578,505.26,522.58
23.18460,504.89,521.99
23.20626,505.19,524.50
23.22488,507.64,523.25
23.24478,508.84,518.73
23.26531,507.93,518.63
23.28466,509.36,520.42
23.30533,510.63,519.73
23.32488,508.38,519.52
23.34575,510.03,518.35
23.36429,509.57,517.33
23.38499,506.27,518.21
23.40622,506.42,517.23
23.42587,507.00,520.30
23.44473,508.07,517.38
23.46617,508.86,518.97
23.48511,505.31,519.51
23.50521,505.93,520.36
23.52507,502.75,518.13
23.54543,505.14,517.55
23.56502,505.26,515.59
23.58552,502.89,512.69
23.60457,505.10,513.26
23.62473,503.49,515.64
23.64705,502.44,514.10
23.66662,503.57,512.42
23.68674,505.49,514.09
23.70613,506.94,516.15
23.72573,504.14,516.46
23.74546,505.15,514.29
23.76545,501.47,515.68
23.78671,502.50,516.00
23.80701,502.44,517.66
23.82557,506.67,516.76
23.84687,506.52,517.10
23.86568,505.81,517.61
23.88544,506.31,516.60
23.90550,506.21,518.56
23.92635,507.54,514.72
23.94528,509.37,515.04
23.96697,509.02,515.36
23.98645,510.05,513.87
24.00718,509.10,516.01
24.02682,507.74,516.05
24.04651,506.90,513.47
24.06720,508.17,515.46
24.08688,510.69,515.24
24.10714,508.68,513.23
24.12676,509.76,514.19
24.14563,511.24,516.05
24.16550,510.68,513.67
24.18694,507.84,515.77
24.20674,508.40,512.64
24.22543,507.70,512.02
24.24699,509.46,515.18
24.26632,509.42,514.02
24.28527,506.61,512.86
24.30563,504.24,514.31
24.32524,505.95,512.61
24.34600,503.55,513.64
24.36618,506.79,513.26
24.38580,505.09,514.05
24.40668,506.35,513.30
24.42579,508.50,517.64
24.44590,509.28,513.49
24.46523,506.67,515.83
24.48596,507.17,512.99
24.50521,507.30,516.37
24.52594,508.04,516.52
24.54540,506.73,516.28
24.56613,508.72,517.09
24.58622,506.61,515.64
24.65089,509.04,517.83
24.65024,505.75,519.70
24.65014,509.01,517.60
24.66570,506.55,517.30
24.68665,507.04,516.78
24.70569,505.44,517.33
24.72679,504.75,515.84
24.74561,506.08,517.17
24.76673,505.82,515.19
24.78564,504.19,514.25
24.80587,508.03,513.92
24.82536,505.93,515.36
24.84545,509.55,515.72
24.86633,507.11,513.61
24.88662,508.67,512.82
24.90603,507.12,516.13
24.92628,507.84,517.63
24.94687,510.87,514.99
24.96754,507.89,516.04
24.98729,511.40,516.98
25.00630,509.46,515.56
25.02612,509.92,518.52
25.04777,511.41,518.50
25.06741,508.36,516.47
25.08785,511.02,519.21
25.10773,512.30,516.84
25.12665,509.61,517.29
25.14621,510.81,518.18
25.16684,512.40,516.58
25.18620,509.76,516.50
25.20701,514.81,520.57
25.22841,513.36,523.71
25.24810,512.02,521.41
25.26924,509.79,507.91
25.28799,507.95,492.73
25.30920,503.70,471.38
25.32890,497.15,448.65
25.34761,495.78,429.10
25.36869,494.23,413.23
25.38866,492.05,396.85
25.40754,489.92,386.47
25.42784,490.21,379.10
25.44892,491.52,376.26
25.46912,495.70,379.38
25.48740,498.50,382.81
25.50878,503.45,388.17
25.52804,503.05,395.49
25.54790,507.57,408.93
25.56759,507.58,417.27
25.58799,509.62,427.08
25.60801,512.63,439.36
25.62852,511.15,449.48
25.64784,512.35,457.64
25.66773,514.91,465.51
25.68872,515.46,472.26
25.70825,516.21,478.21
25.72830,519.12,482.20
25.74864,517.76,487.18
25.76729,519.26,489.50
25.78758,517.20,495.64
25.80829,518.64,496.92
25.82779,516.42,500.18
25.84729,519.08,504.14
25.86740,519.42,503.77
25.88829,516.20,510.07
25.90777,518.16,532.46
25.92799,521.11,571.48
25.94845,523.50,615.33
25.96742,525.28,658.78
25.98896,530.94,693.43
26.00882,533.81,718.53
26.02833,534.75,722.20
26.04911,535.47,711.10
26.06889,534.11,697.13
26.08834,532.57,677.27
26.10827,534.23,654.72
26.12872,533.48,634.39
26.14918,531.17,617.27
26.16855,527.47,601.82
26.18759,528.90,587.54
26.20825,526.19,575.50
26.22789,524.54,566.08
26.24857,523.99,554.68
26.26824,522.69,550.99
26.28896,524.99,546.06
26.30834,525.34,541.91
26.32800,526.07,539.39
26.34724,527.83,538.66
26.36871,525.39,532.78
26.38802,527.07,534.15
26.40853,523.65,530.84
26.42761,524.30,529.13
26.44880,526.58,527.51
26.46831,523.61,525.08
26.48916,523.93,526.86
26.50839,522.83,524.36
26.52765,521.74,523.41
26.54775,520.58,525.59
26.56812,523.00,521.90
26.58799,521.91,524.55
26.60824,523.23,521.70
26.62769,521.73,526.01
26.64825,520.20,524.71
26.66781,519.72,525.01
26.68701,520.71,522.08
26.70863,518.59,523.13
26.72867,517.43,521.39
26.74790,518.78,521.92
26.76868,518.02,520.77
26.78779,518.37,519.47
26.80760,521.09,520.15
26.82864,521.40,520.93
26.84751,519.87,520.49
26.86843,520.42,521.06
26.88769,522.86,523.60
26.90889,521.49,525.07
26.92871,521.89,526.16
26.94757,522.38,524.33
26.96872,525.25,525.61
26.98752,523.23,523.35
27.00891,523.53,526.54
27.02907,524.76,523.60
27.04785,522.26,525.59
27.06858,523.08,523.00
27.08858,520.86,523.86
27.10775,523.92,523.91
27.12833,522.56,522.58
27.14815,524.55,524.04
27.16889,524.58,524.43
27.18870,523.34,521.77
27.20854,522.94,521.15
27.22841,523.96,522.55
27.24716,519.98,521.83
27.26835,520.62,524.56
27.28719,519.86,520.70
27.30841,523.42,521.38
27.32725,523.49,521.57
27.34805,524.16,522.66
27.36764,522.98,522.53
27.38784,524.47,522.01
27.40801,524.37,520.72
27.42887,521.19,522.01
27.44729,519.19,519.99
27.46765,519.98,522.96
27.48723,523.10,522.30
27.50870,521.60,523.11
27.52793,524.25,519.73
27.54815,521.49,524.03
27.56793,524.50,524.12
27.58757,524.11,520.87
27.60865,522.54,523.65
27.62745,522.79,524.30
27.64725,523.35,524.30
27.66743,525.57,521.34
27.68739,522.67,522.16
27.70881,525.78,523.60
27.72869,525.33,524.02
27.74894,525.50,525.24
27.76706,523.90,525.02
27.78905,525.34,522.46
27.80768,524.40,524.70
27.82796,520.29,523.82
27.84722,522.33,522.26
27.86895,521.71,521.66
27.88896,519.92,521.55
27.90759,519.37,524.66
27.92830,522.60,523.03
27.94852,522.93,524.32
27.96823,521.30,522.71
27.98850,524.20,521.04
28.00761,521.13,521.87
28.02800,520.85,519.57
28.04794,522.37,522.09
28.06808,522.37,521.05
28.08786,520.97,518.57
28.10828,523.77,518.34
28.12790,523.85,522.04
28.14868,523.23,519.57
28.16714,522.49,521.52
28.18859,522.33,522.00
28.20713,523.27,524.99
28.22749,522.55,522.09
28.24752,522.00,522.46
28.26838,523.31,525.20
28.28717,523.89,525.29
28.30770,520.47,524.30
28.32834,522.15,523.36
28.34831,521.69,524.47
28.36832,523.37,523.96
28.38818,521.46,523.54
28.40833,524.09,520.95
28.42841,523.35,523.14
28.44790,524.95,524.79
28.46844,522.40,522.12
28.48888,525.31,526.50
28.50937,526.52,523.95
28.52852,528.88,527.28
28.54896,526.35,526.10
28.56867,528.42,525.69
28.58945,527.62,526.73
28.60910,527.73,525.29
28.62831,525.30,524.23
28.64874,526.69,523.88
28.66852,523.72,527.05
28.68876,523.26,526.05
28.70817,524.27,525.70
28.72851,524.69,523.94
28.74840,524.45,524.99
28.76785,520.27,522.87
28.78920,520.75,522.81
28.80927,522.50,524.33
28.82967,522.79,526.15
28.84967,520.79,524.06
28.86893,522.90,523.05
28.88894,522.41,522.96
28.90874,521.70,525.99
28.92851,520.10,526.57
28.94986,522.72,526.22
28.96968,521.59,527.32
28.98900,519.10,524.59
29.00997,518.58,524.13
29.02971,519.61,526.73
29.04875,520.44,525.05
29.06922,520.63,526.18
29.08864,519.68,524.86
29.10811,519.08,524.42
29.12904,521.75,525.36
29.14974,520.15,527.67
29.16921,520.34,525.15
29.18890,521.93,525.22
29.20854,523.77,524.38
29.22872,522.41,527.21
29.24813,522.65,524.91
29.26838,525.11,526.41
29.28985,523.47,524.04
29.30877,522.87,523.55
29.32884,522.70,525.02
29.34839,522.24,526.24
29.36988,524.36,524.65
29.38898,524.54,523.33
29.40983,523.66,525.84
29.42944,521.14,522.43
29.44946,522.29,524.54
29.46933,521.10,525.96
29.48933,520.86,525.68
29.51036,521.56,526.79
29.53022,518.96,526.81
29.55105,520.80,526.10
29.56923,519.83,528.32
29.59012,522.14,527.91
29.61076,523.78,526.50
29.62923,523.31,528.93
29.65075,523.70,528.43
29.66955,522.88,525.51
29.69012,525.71,526.55
29.70973,522.70,527.01
29.73102,525.33,522.50
29.74932,520.61,513.74
29.76977,521.37,501.46
29.79098,517.38,480.71
29.81003,512.56,460.71
29.82975,510.79,438.80
29.84998,509.08,420.34
29.86985,506.82,404.68
29.89019,506.41,392.95
29.91047,505.93,386.42
29.93093,506.86,385.15
29.95094,506.50,385.92
29.96926,507.90,392.82
29.99039,506.42,397.42
30.01014,508.72,407.37
30.03083,511.48,415.53
30.04981,513.49,426.40
30.06951,513.74,437.83
30.08988,516.06,445.57
30.10905,515.68,454.34
30.13060,519.36,465.67
30.14944,518.33,471.67
30.17055,518.11,478.02
30.19010,519.39,486.40
30.21029,517.54,492.15
30.22924,517.12,496.75
30.25040,518.83,501.39
30.26975,518.67,505.72
30.28999,520.80,531.65
30.30935,524.60,565.80
30.32942,525.26,611.58
30.34920,529.22,655.10
30.36934,531.86,684.02
30.38934,530.48,701.08
30.41012,535.82,703.29
30.42933,534.48,699.76
30.45013,536.39,689.57
30.47016,536.66,671.70
30.49038,535.11,654.93
30.51093,534.86,637.26
30.53051,530.48,619.65
30.55110,530.53,601.64
30.57041,526.96,588.37
30.59013,526.85,580.51
30.60960,527.81,569.67
30.62974,526.76,561.48
30.65022,526.28,554.69
30.67016,525.56,549.93
30.69041,523.84,545.18
30.71019,524.64,542.04
30.73094,523.37,538.94
30.75055,523.18,534.17
30.77035,521.28,531.87
30.79043,521.83,530.60
30.80942,517.11,530.33
30.82981,518.49,527.97
30.85069,516.39,525.74
30.86883,518.63,527.05
30.88966,518.02,529.69
30.91053,518.41,526.41
30.92942,519.67,527.97
30.95032,520.71,527.38
30.96947,520.76,527.77
30.99020,522.38,528.24
31.01051,521.22,528.80
31.03046,519.51,528.03
31.04987,523.02,527.76
31.06916,520.77,528.44
31.09075,521.83,526.23
31.10930,521.69,528.07
31.12990,522.65,527.43
31.14994,522.96,528.09
31.16901,522.96,526.39
31.19062,519.91,523.15
31.21066,520.56,526.42
31.22991,520.96,525.69
31.25024,520.27,526.71
31.27076,521.86,527.24
31.29068,522.94,524.06
31.30977,521.99,524.69
31.32985,521.39,524.87
31.34973,521.56,525.69
31.36991,522.67,524.52
31.38994,520.30,522.51
31.41024,518.49,525.46
31.43044,521.46,523.16
31.44907,518.81,524.72
31.47080,519.92,522.76
31.48896,521.05,522.96
31.51002,517.48,524.23
31.52933,517.49,527.47
31.54947,517.68,527.49
31.56914,515.95,525.77
31.58940,517.79,528.37
31.60968,518.15,530.95
31.62944,520.43,527.97
31.64972,521.45,528.62
31.67005,519.45,527.33
31.68962,520.68,525.60
31.70945,518.91,524.54
31.73021,521.90,526.94
31.75028,518.82,524.17
31.77061,521.04,524.50
31.78959,522.90,524.23
31.81033,520.42,524.41
31.82998,518.20,526.04
31.85037,516.21,523.77
31.86920,518.44,526.63
31.88920,517.20,524.03
31.90954,513.95,523.35
31.92894,514.56,524.19
31.94989,514.77,526.88
31.96939,514.98,526.86
31.99029,515.54,524.80
32.00935,515.71,525.02
32.02963,518.25,523.94
32.05060,519.43,527.06
32.06925,518.43,523.90
32.08990,518.83,523.85
32.11008,520.57,523.67
32.12923,520.00,524.98
32.14942,519.86,526.47
32.17012,520.25,525.93
32.18907,516.06,529.31
32.20981,519.18,527.53
32.22991,516.97,527.42
32.24965,517.53,528.72
32.26962,517.91,529.38
32.29086,520.18,529.73
32.31069,516.97,528.73
32.32947,519.36,527.40
32.34953,517.61,526.94
32.37008,517.76,526.82
32.39018,517.03,527.86
32.41104,517.75,526.21
32.42968,518.46,526.44
32.44999,518.83,528.08
32.46957,519.40,525.29
32.49006,517.35,523.28
32.50901,518.83,524.16
32.52995,516.99,524.74
32.55017,518.25,525.04
32.56915,518.31,523.23
32.59105,517.95,525.51
32.61048,515.99,524.67
32.62966,515.08,522.00
32.65100,515.52,523.92
32.67056,515.98,524.56
32.68891,518.37,523.87
32.71048,517.53,522.79
32.72905,520.11,521.67
32.75074,519.80,521.86
32.76916,515.61,521.66
32.78999,515.00,522.84
32.81056,514.59,525.34
32.82901,514.62,526.30
32.85083,515.46,525.06
32.87046,514.91,523.85
32.89019,518.36,522.04
32.91040,516.72,524.98
32.92930,518.60,522.95
32.94959,518.47,521.04
32.97006,516.29,521.78
32.98947,514.95,520.91
33.01052,517.55,523.34
33.02939,515.66,522.66
33.04994,513.40,522.14
33.07065,517.29,524.31
33.09026,515.16,524.70
33.10905,516.01,522.84
33.12991,515.87,522.90
33.14988,513.02,523.05
33.16905,514.49,524.31
33.18896,515.94,522.14
33.20951,515.67,521.48
33.22951,514.08,523.21
33.24911,514.45,524.17
33.27077,514.50,521.51
33.29065,512.33,522.93
33.31074,512.82,522.69
33.33031,512.94,521.06
33.35024,514.19,524.02
33.37011,513.65,523.87
33.39096,513.84,522.10
33.41097,512.74,525.77
33.42941,510.89,521.80
33.44984,511.34,522.56
33.46918,515.43,525.13
33.49021,513.33,523.85
33.50936,514.35,525.09
33.52994,513.36,521.70
33.54920,518.62,522.68
33.57013,515.49,521.72
33.58967,515.62,523.18
33.60909,516.00,520.83
33.62938,513.06,523.22
33.65088,511.71,523.37
33.67069,513.56,523.19
33.69071,514.23,521.11
33.71022,513.53,521.30
33.73084,513.94,520.97
33.75023,513.25,521.98
33.76950,516.44,521.33
33.78948,514.69,522.77
33.80979,513.11,521.17
33.83024,514.03,520.45
33.84976,515.51,523.61
33.86954,514.16,523.03
33.89137,513.24,521.88
33.91020,514.59,523.58
33.93053,511.02,521.31
33.95026,509.53,522.81
33.97148,509.98,520.81
33.99164,510.68,518.47
34.01220,510.17,520.90
34.03232,507.65,520.92
34.05170,507.25,521.02
34.07196,508.75,519.78
34.09219,506.71,517.59
34.11134,507.57,517.08
34.13112,505.95,518.18
34.15141,509.05,519.30
34.17150,505.62,515.99
34.19271,507.47,518.84
34.21264,506.04,516.57
34.23224,508.54,515.95
34.25180,506.77,515.44
34.27137,508.59,518.01
34.29156,509.38,517.80
34.31258,505.93,518.10
34.33197,506.26,518.11
34.35108,506.06,518.48
34.37245,508.63,518.92
34.39261,504.89,521.85
34.41296,507.89,524.90
34.43125,505.31,517.87
34.45289,504.90,498.72
34.47123,502.35,477.68
34.49286,500.63,450.77
34.51122,493.49,430.72
34.53232,493.58,410.65
34.55112,489.36,394.84
34.57207,489.18,382.55
34.59156,489.97,377.91
34.61196,487.45,377.61
34.63230,490.67,380.67
34.65255,496.94,386.35
34.67152,499.82,392.27
34.69254,501.63,402.85
34.71238,505.92,414.05
34.73387,507.26,425.02
34.75399,512.33,436.04
34.77357,513.18,444.12
34.79200,512.64,454.47
34.81269,510.58,460.60
34.83328,510.67,467.38
34.85367,510.96,474.84
34.87283,510.35,478.82
34.89292,508.60,485.59
34.91185,506.93,488.98
34.93191,500.04,491.51
34.95343,500.63,496.04
34.97191,497.25,500.77
34.99215,496.51,499.43
35.01236,496.31,501.71
35.03349,500.13,505.79
35.05197,497.03,505.46
35.07342,500.24,515.12
35.09267,502.43,543.34
35.11255,509.43,583.19
35.13326,515.43,625.74
35.15275,523.97,659.19
35.17310,522.54,686.57
35.19272,525.32,703.94
35.21373,525.56,700.04
35.23204,522.06,691.59
35.25300,521.02,675.99
35.27312,516.94,655.62
35.29267,517.07,639.38
35.31339,513.11,622.73
35.33390,514.65,608.43
35.35354,510.74,593.68
35.37261,513.24,582.37
35.39195,510.44,575.21
35.41346,508.72,564.81
35.43294,507.49,558.03
35.45298,505.52,550.34
35.47263,503.91,543.91
35.49309,503.92,538.93
35.51216,504.65,535.65
35.53204,506.34,533.04
35.55391,504.79,530.28
35.57211,501.69,528.08
35.59234,503.94,525.72
35.61223,503.92,523.37
35.63190,502.51,524.15
35.65266,504.84,523.28
35.67267,506.55,522.21
35.69193,504.61,520.32
35.71275,506.00,521.45
35.73289,503.12,520.70
35.75351,502.12,521.24
35.77211,506.34,529.55
35.79408,504.16,533.90
35.81275,505.92,535.77
35.83291,503.54,533.85
35.85301,505.50,535.21
35.87269,506.19,528.90
35.89370,503.74,527.80
35.91307,502.25,524.97
35.93376,503.79,521.61
35.95311,503.20,519.25
35.97298,502.54,517.91
35.99297,503.84,516.63
36.01263,507.19,517.78
36.03291,508.09,514.07
36.05281,506.74,514.56
36.07365,508.13,515.08
36.09247,505.18,513.17
36.11203,507.70,512.12
36.13225,508.48,517.09
36.15351,504.94,525.83
36.17270,506.65,540.98
36.19214,511.79,566.90
36.21354,515.73,603.50
36.23226,515.70,633.65
36.25216,513.72,642.80
36.27218,513.82,637.37
36.29205,513.22,616.47
36.31284,512.84,594.18
36.33367,510.10,570.79
36.35355,507.22,547.61
36.37257,504.54,528.25
36.39266,500.60,509.80
36.41229,498.41,495.33
36.43385,499.68,486.94
36.45347,499.27,480.05
36.47246,500.41,475.10
36.49223,499.38,472.83
36.51252,499.30,472.30
36.53365,498.81,471.67
36.55321,499.99,475.18
36.57256,499.45,478.08
36.59312,496.84,481.85
36.61327,500.98,484.66
36.63483,500.26,487.05
36.65457,502.14,490.24
36.67424,501.48,493.25
36.69408,504.99,497.91
36.71441,504.21,499.13
36.73480,501.87,503.40
36.75406,506.35,505.38
36.77438,502.98,507.54
36.79523,504.13,510.02
36.81516,505.50,513.63
36.83525,506.98,514.82
36.85587,505.58,516.00
36.87573,508.22,513.73
36.89597,507.92,516.84
36.91614,506.99,516.17
36.93562,509.01,515.20
36.95570,507.60,518.09
36.97681,508.38,515.28
36.99489,506.29,515.83
37.01529,510.05,519.22
37.03672,507.93,520.35
37.05667,506.58,518.66
37.07630,510.37,517.15
37.09670,511.46,518.19
37.11622,511.26,517.68
37.13670,508.75,521.08
37.15541,511.46,520.75
37.17540,510.93,519.29
37.19630,511.84,519.11
37.21515,512.45,520.14
37.23558,513.65,517.78
37.25549,512.18,520.83
37.27556,509.17,519.44
37.29570,511.51,521.17
37.31599,511.08,516.05
37.33511,508.74,518.77
37.35531,510.17,514.13
37.37622,511.49,517.08
37.39537,510.94,517.59
37.41632,508.91,514.42
37.43668,511.70,517.42
37.45596,510.23,518.03
37.47495,512.13,515.79
37.49617,512.21,517.73
37.51680,514.84,516.65
37.53499,512.85,516.82
37.55527,510.95,518.11
37.57637,511.44,516.27
37.59635,511.14,520.47
37.61509,509.34,517.94
37.63630,511.64,520.20
37.65653,508.84,521.73
37.67647,511.57,520.14
37.69641,512.36,519.14
37.71609,512.39,517.74
37.73577,511.26,519.09
37.75595,512.98,520.23
37.77547,509.53,518.14
37.79667,510.24,517.84
37.81509,508.30,520.30
37.83482,510.40,516.64
37.85664,510.65,519.04
37.87569,512.77,519.32
37.89651,510.78,519.65
37.91620,511.28,520.34
37.93630,512.47,522.40
37.95596,513.96,521.62
37.97578,514.55,519.07
37.99625,514.95,519.24
38.01620,513.13,517.54
38.03600,514.54,517.47
38.05673,512.51,520.11
38.07535,511.21,518.72
38.09495,513.45,516.15
38.11544,511.92,515.18
38.13675,511.59,518.30
38.15500,513.99,517.98
38.17711,514.75,517.96
38.19672,513.62,518.16
38.21709,516.17,517.02
38.23595,515.42,519.76
38.25678,512.83,520.62
38.27741,514.95,517.44
38.29772,510.36,517.53
38.31755,514.93,520.84
38.33717,513.01,521.15
38.35573,513.78,521.45
38.37613,514.38,522.18
38.39774,517.04,520.27
38.41592,514.79,522.67
38.43659,514.71,520.01
38.45610,514.57,522.95
38.47664,515.90,520.93
38.49753,515.46,520.88
38.51765,512.97,522.67
38.53599,512.45,522.23
38.55603,513.33,522.05
38.57723,513.97,520.51
38.59677,513.27,521.64
38.61703,513.23,520.07
38.63775,516.19,522.86
38.65749,518.94,521.92
38.67762,517.47,522.65
38.69673,515.73,521.91
38.71668,516.99,520.18
38.73684,514.81,523.58
38.75659,517.38,520.28
38.77760,517.96,521.88
38.79694,516.67,520.27
38.81652,519.11,519.41
38.83706,517.68,521.19
38.85605,516.19,522.16
38.87639,518.78,523.65
38.89743,519.51,527.46
38.91593,518.59,522.63
38.93647,518.55,513.04
38.95638,515.53,495.49
38.97593,512.80,471.45
38.99708,509.37,451.28
39.01753,509.59,428.91
39.03711,506.03,411.31
39.05826,500.62,400.88
39.07758,502.01,393.34
39.09742,499.54,387.27
39.11688,500.19,387.97
39.13762,499.30,387.18
39.15807,500.88,392.34
39.17833,504.85,399.58
39.19787,505.67,407.36
39.21690,508.12,415.94
39.23701,508.76,424.66
39.25693,510.94,434.36
39.27861,508.85,444.38
39.29758,508.81,454.64
39.31740,511.07,460.75
39.33853,515.05,471.09
39.35841,519.13,478.32
39.37829,520.49,482.34
39.39870,523.01,486.19
39.41929,522.42,493.75
39.43837,521.16,495.94
39.45789,521.06,499.29
39.47846,525.44,505.35
39.49851,522.90,504.81
39.51862,525.66,506.33
39.53828,525.19,519.98
39.55852,524.58,552.78
39.57910,530.36,596.47
39.59833,532.59,633.68
39.61851,534.11,667.78
39.63878,538.69,687.20
39.65939,538.02,699.32
39.67930,538.56,699.74
39.69961,538.48,686.20
39.71933,538.81,671.57
39.73818,537.35,654.39
39.75797,533.60,637.14
39.77845,537.23,621.05
39.79940,535.26,606.75
39.81795,533.18,594.01
39.83944,532.19,579.59
39.85874,528.50,574.38
39.87927,527.41,565.17
39.89978,527.47,558.47
39.91818,529.75,551.57
39.93865,529.71,545.35
39.95949,526.11,541.22
39.97887,527.32,539.30
39.99871,523.86,535.93
40.01801,521.34,533.92
40.03989,524.74,530.97
40.05850,523.07,531.51
40.07966,523.77,529.08
40.09796,521.27,530.26
40.11799,523.07,529.05
40.13952,524.76,529.67
40.15987,521.89,526.39
40.17816,521.83,526.11
40.19967,525.04,528.64
40.21892,524.09,526.28
40.23767,525.44,527.50
40.26075,522.25,524.55
40.27992,523.26,527.88
40.30027,522.34,524.39
40.32076,521.93,527.54
40.33987,521.37,525.37
40.36049,522.43,525.59
40.38029,523.16,529.70
40.39904,522.36,526.89
40.42026,524.55,528.12
40.44041,523.63,528.61
40.46029,525.53,528.26
40.48053,526.10,525.97
40.50001,525.93,526.14
40.51890,526.13,525.01
40.53962,524.77,525.78
40.55949,523.21,524.62
40.57906,524.74,526.53
40.59957,521.73,527.27
40.61997,522.86,526.83
40.63994,520.43,526.64
40.65899,520.56,526.95
40.67993,523.86,526.60
40.70043,524.71,527.13
40.72045,522.89,525.89
40.73978,523.46,529.01
40.76007,522.17,526.57
40.77971,522.30,526.43
40.79967,521.37,529.42
40.81923,524.89,526.29
40.83951,524.84,527.45
40.86078,523.81,526.87
40.88084,523.46,526.61
40.90078,523.90,524.84
40.92021,525.62,523.86
40.93962,522.07,525.37
40.95944,526.36,526.18
40.97985,523.04,525.25
41.00024,523.55,526.75
41.01963,521.48,523.62
41.03988,524.34,527.04
41.05953,521.62,525.11
41.07885,519.76,524.97
41.10054,522.17,524.91
41.11961,520.32,527.35
41.14170,518.89,527.61
41.16044,521.37,526.85
41.18037,519.89,524.67
41.20164,519.44,526.80
41.22031,523.29,527.29
41.24094,523.31,527.34
41.26149,522.21,524.70
41.27978,520.03,523.80
41.29983,521.49,525.71
41.31996,520.25,523.36
41.34149,521.87,526.79
41.36033,521.89,526.10
41.38019,521.43,523.41
41.40055,524.78,526.03
41.42039,521.50,526.82
41.44104,521.58,525.11
41.46174,522.70,527.70
41.48045,522.07,530.08
41.49994,522.85,527.04
41.52085,521.83,530.18
41.53992,523.48,528.05
41.56126,522.95,527.15
41.58017,523.09,526.80
41.60054,523.91,527.53
41.62030,523.87,526.93
41.64157,526.26,528.38
41.66035,523.73,525.74
41.67985,524.71,527.97
41.70069,526.72,526.30
41.72135,527.66,526.37
41.74057,528.76,524.13
41.76122,529.33,524.02
41.78078,528.73,527.17
41.80028,527.26,523.08
41.81989,529.78,523.25
41.84035,527.29,524.18
41.86058,528.19,524.87
41.88171,526.92,523.78
41.90104,528.94,522.79
41.92062,526.76,523.57
41.94125,528.23,525.75
41.96097,525.61,524.64
41.98104,521.49,521.38
42.00002,523.65,525.15
42.02085,522.38,522.50
42.04172,521.04,524.84
42.06047,520.65,521.80
42.08009,519.66,524.32
42.10170,522.65,522.41
42.12007,521.89,526.04
42.14123,521.62,524.50
42.16067,522.69,523.84
42.17970,518.06,523.84
42.20005,517.15,522.98
42.22055,518.51,524.49
42.24143,518.09,524.55
42.26173,517.10,523.22
42.28039,516.46,522.68
42.30034,520.19,525.11
42.32116,520.47,524.07
42.34162,518.38,523.64
42.36002,520.82,525.38
42.38085,520.37,525.44
42.40072,521.31,527.79
42.42117,521.89,529.74
42.44073,519.60,533.81
42.46000,518.90,532.79
42.48094,520.48,531.84
42.50049,521.03,529.42
42.52031,520.45,528.59
42.53995,521.43,528.26
42.56055,521.06,527.39
42.58020,520.82,528.16
42.60133,520.60,523.77
42.62032,521.23,526.01
42.64076,522.46,526.98
42.65981,523.38,524.10
42.67997,522.36,523.76
42.70063,519.59,526.65
42.72115,519.92,525.20
42.74068,521.28,523.93
42.75992,522.03,527.20
42.78014,522.57,525.50
42.80005,522.06,524.81
42.82052,523.37,526.42
42.84114,522.01,528.70
42.86084,520.75,528.65
42.88022,523.32,528.57
42.90088,520.60,525.59
42.92148,521.74,525.61
42.93999,521.74,527.32
42.95986,523.53,525.70
42.97961,520.85,526.19
43.00046,520.64,524.87
43.02076,522.65,523.91
43.04062,521.50,524.28
43.05981,521.76,521.49
43.08140,520.19,520.74
43.10076,520.49,522.98
43.11975,521.16,522.33
43.14148,524.15,521.43
43.15981,523.67,525.27
43.18065,521.62,524.64
43.19998,523.68,522.89
43.22102,522.38,522.72
43.24070,522.34,526.46
43.26168,523.57,525.29
43.27993,520.68,526.52
43.30024,524.74,527.05
43.32037,523.83,525.95
43.34146,524.06,527.11
43.36095,522.86,527.78
43.38083,525.15,528.84
43.40130,524.83,528.30
43.42089,524.63,527.70
43.44178,519.74,516.24
43.46136,516.80,496.71
43.48101,513.18,475.14
43.49994,508.34,450.42
43.52060,504.18,423.30
43.54088,500.17,402.66
43.56050,497.45,389.41
43.58054,495.51,379.72
43.60051,496.88,371.39
43.62111,495.61,373.18
43.64097,499.99,375.94
43.66114,502.03,378.54
43.68108,502.78,389.45
43.70142,505.22,399.33
43.72115,507.04,408.88
43.74092,506.31,417.60
43.76022,510.99,430.86
43.78146,510.12,441.15
43.80005,513.31,450.80
43.82110,512.25,457.74
43.84174,512.88,471.03
43.86119,513.38,478.87
43.88015,519.63,484.71
43.90020,523.32,498.66
43.92088,526.18,513.54
43.94229,535.29,532.91
43.96142,537.60,547.70
43.98088,544.16,558.89
44.00215,541.46,559.65
44.02203,542.96,560.63
44.04104,541.64,559.51
44.06249,541.37,552.49
44.08275,536.21,558.49
44.10102,532.59,581.49
44.12166,531.01,614.82
44.14230,528.43,642.93
44.16215,521.85,668.31
44.18258,519.58,676.95
44.20071,516.22,676.93
44.22112,517.92,666.42
44.24112,514.78,652.64
44.26094,516.42,642.39
44.28113,513.81,628.34
44.30074,515.29,612.38
44.32332,514.49,602.06
44.34351,514.40,589.13
44.36295,513.69,580.14
44.38270,513.61,573.63
44.40185,512.50,567.15
44.42205,512.27,559.05
44.44254,510.06,553.64
44.46322,513.51,549.95
44.48173,520.46,545.13
44.50221,523.70,542.76
44.52238,526.36,539.59
44.54225,523.85,533.89
44.56275,523.74,533.33
44.58296,524.73,528.50
44.60259,524.02,526.27
44.62317,520.89,528.60
44.64365,524.08,524.62
44.66255,524.12,524.43
44.68328,522.33,527.06
44.70287,519.59,525.06
44.72248,518.73,526.00
44.74203,518.96,528.61
44.76207,518.39,526.07
44.78299,520.29,529.34
44.80322,520.24,526.58
44.82245,518.79,526.93
44.84359,515.98,526.95
44.86215,517.95,527.29
44.88308,515.62,528.37
44.90317,514.42,525.41
44.92336,514.06,527.59
44.94331,515.19,525.18
44.96271,512.94,524.34
44.98264,513.85,527.02
45.00358,514.36,525.81
45.02225,513.80,527.67
45.04279,512.50,525.88
45.06314,515.75,527.98
45.08271,515.81,527.55
45.10349,515.04,525.27
45.12198,515.24,526.31
45.14233,515.58,528.34
45.16243,513.51,527.44
45.18279,513.85,526.62
45.20273,512.49,528.33
45.22195,513.98,524.73
45.24287,513.64,528.08
45.26194,510.03,524.59
45.28225,510.01,527.12
45.30325,509.81,526.68
45.32193,509.00,522.85
45.34190,510.97,525.99
45.36192,511.46,525.94
45.38276,511.96,523.38
45.40308,514.31,525.32
45.42435,510.68,526.22
45.44354,511.15,526.44
45.46403,510.53,525.97
45.48272,512.61,523.70
45.50439,512.54,522.09
45.52293,510.78,523.34
45.54402,510.19,520.16
45.56285,508.51,522.73
45.58461,508.84,526.23
45.60341,511.60,531.10
45.62479,510.74,533.90
45.64362,508.60,537.59
45.66360,509.97,538.24
45.68318,511.98,535.21
45.70306,507.62,536.44
45.72288,508.56,532.45
45.74385,507.89,534.41
45.76455,510.13,533.50
45.78545,508.75,529.54
45.80483,507.37,531.88
45.82468,508.55,528.82
45.84652,505.57,529.01
45.86602,505.58,527.48
45.88570,504.22,529.34
45.90620,504.31,529.08
45.92532,505.53,526.84
45.94662,505.26,527.54
45.96480,505.92,528.18
45.98635,505.20,527.84
46.00590,505.61,525.49
46.02522,505.81,526.22
46.04673,508.38,528.43
46.06632,509.59,527.65
46.08798,508.96,525.59
46.10848,507.83,524.28
46.12668,508.45,523.56
46.14706,507.28,521.96
46.16734,507.90,522.96
46.18745,505.11,521.61
46.20686,505.27,522.33
46.22705,507.63,520.59
46.24734,505.11,522.29
46.26674,507.23,519.45
46.28723,503.95,521.17
46.30694,504.10,520.50
46.32807,506.67,518.19
46.34734,505.47,518.53
46.36860,505.32,516.67
46.38741,505.04,515.55
46.40689,505.31,516.05
46.42823,507.59,517.21
46.44739,504.97,514.88
46.46687,505.49,511.80
46.48743,508.28,512.97
46.50897,506.23,513.32
46.52883,507.18,518.35
46.54802,506.15,515.84
46.56777,508.37,519.86
46.58831,505.20,517.08
46.60866,505.58,517.79
46.62951,507.54,520.46
46.64893,506.77,519.06
46.66968,507.55,519.24
46.69036,508.26,520.99
46.71116,510.50,520.23
46.73041,512.52,520.90
46.74971,511.69,520.51
46.77163,512.76,521.59
46.79090,512.65,520.91
46.80985,513.09,522.90
46.83142,512.81,521.15
46.85120,511.94,523.19
46.87002,509.68,520.58
46.89145,510.27,523.27
46.91029,511.72,520.17
46.93044,511.85,522.61
46.95144,512.89,521.72
46.97149,510.40,523.32
46.99114,510.35,522.22
47.01056,511.40,520.22
47.03118,511.84,519.42
47.05083,515.35,522.66
47.06974,515.50,520.79
47.09168,516.49,519.88
47.10999,514.29,519.98
47.12984,517.05,519.84
47.15112,515.03,519.89
