Program Time [s],data 0,data 1
6.44183,500.06,557.95
6.46202,499.33,554.84
6.48246,501.85,552.89
6.50151,500.51,552.44
6.52135,500.31,548.09
6.54220,498.94,546.39
6.56261,497.36,545.14
6.58225,499.32,544.77
6.60195,503.22,542.44
6.62242,504.91,541.29
6.64168,509.05,538.42
6.66126,510.80,534.44
6.68255,513.59,531.12
6.70130,509.99,532.04
6.72251,506.53,529.02
6.74261,504.79,526.34
6.76116,501.01,524.25
6.78382,501.84,520.49
6.80195,501.13,515.36
6.82198,498.58,511.15
6.84369,501.10,509.02
6.86350,498.79,507.13
6.88358,498.83,508.46
6.90346,496.54,507.78
6.92279,494.67,510.68
6.94257,494.07,509.79
6.96350,494.56,513.38
6.98358,494.37,513.51
7.00287,492.73,516.51
7.02242,491.58,521.52
7.04234,488.05,526.81
7.06216,491.11,529.11
7.08292,490.97,531.72
7.10234,490.07,533.43
7.12352,487.14,533.97
7.14349,490.98,534.83
7.16289,489.99,533.57
7.18279,492.03,533.04
7.20219,492.31,532.57
7.22214,491.24,536.25
7.24305,493.09,535.43
7.26192,497.07,535.40
7.28290,493.99,534.52
7.30376,494.17,532.64
7.32367,492.88,533.09
7.34318,496.63,533.16
7.36243,494.30,534.42
7.38239,495.49,532.08
7.40272,495.84,532.84
7.42284,495.35,531.95
7.44375,492.62,532.70
7.46251,495.56,534.05
7.48359,493.29,531.68
7.50305,494.75,530.20
7.52337,495.87,527.80
7.54209,495.47,528.91
7.56346,496.61,528.86
7.58309,494.16,528.21
7.60326,496.45,530.61
7.62217,495.47,528.98
7.64194,495.31,529.00
7.66298,491.14,526.25
7.68205,490.47,521.80
7.70385,493.23,522.92
7.72275,490.10,520.08
7.74242,490.82,519.10
7.76198,490.85,520.41
7.78194,490.36,521.18
7.80295,488.73,522.58
7.82349,488.50,521.22
7.84346,489.83,520.52
7.86257,490.01,518.81
7.88278,489.93,517.21
7.90300,488.37,518.01
7.92286,488.00,517.72
7.94302,488.04,517.01
7.96219,491.21,516.47
7.98225,492.38,516.87
8.00206,492.96,514.80
8.02167,492.00,514.61
8.04359,492.21,516.38
8.06261,492.17,516.90
8.08287,488.64,516.14
8.10207,489.07,517.71
8.12237,489.04,517.36
8.14236,488.81,515.31
8.16468,486.25,513.89
8.18384,489.07,515.53
8.20380,490.28,513.14
8.22389,489.42,511.82
8.24402,490.23,513.43
8.26295,489.55,510.42
8.28365,491.40,513.24
8.30420,491.59,513.36
8.32424,492.08,511.03
8.34314,490.93,512.35
8.36392,490.02,511.12
8.38292,491.78,504.13
8.40421,488.78,502.08
8.42410,489.64,497.75
8.44474,484.75,496.21
8.46436,481.14,497.35
8.48294,475.05,494.30
8.50298,474.50,494.97
8.52430,479.29,493.82
8.54327,479.12,497.05
8.56484,482.25,495.10
8.58295,480.85,494.13
8.60386,483.76,496.32
8.62371,484.92,497.52
8.64496,485.96,503.10
8.66297,487.80,504.26
8.68326,488.82,508.85
8.70364,492.08,516.49
8.72435,497.57,530.46
8.74408,504.34,543.39
8.76327,508.13,559.28
8.78368,507.30,567.45
8.80310,506.28,572.20
8.82409,506.64,567.92
8.84313,506.87,560.32
8.86290,506.19,549.72
8.88328,503.98,542.52
8.90320,500.52,532.36
8.92337,500.80,528.55
8.94443,500.74,522.55
8.96448,500.02,514.36
8.98312,495.85,510.10
9.00332,494.36,508.05
9.02309,497.63,503.64
9.04315,496.33,503.88
9.06296,495.57,506.92
9.08398,496.27,521.29
9.10421,498.57,529.98
9.12315,500.85,533.79
9.14429,499.15,538.21
9.16361,499.08,537.46
9.18330,499.92,532.88
9.20313,499.15,529.15
9.22441,502.52,526.46
9.24313,499.86,523.76
9.26370,497.30,524.70
9.28367,497.02,518.43
9.30289,497.24,514.58
9.32386,493.38,515.91
9.34478,495.89,511.09
9.36420,491.68,511.04
9.38436,491.25,515.05
9.40389,492.12,513.99
9.42333,489.68,516.03
9.44459,489.80,519.39
9.46490,488.71,521.98
9.48437,490.04,523.11
9.50567,488.15,526.74
9.52406,488.58,529.94
9.54556,488.30,531.89
9.56449,491.26,527.83
9.58461,489.93,529.64
9.60481,492.35,527.02
9.62586,490.10,527.09
9.64477,489.31,524.81
9.66542,490.61,524.62
9.68462,491.21,524.78
9.70525,492.23,523.47
9.72399,488.32,527.40
9.74413,488.28,523.11
9.76629,487.49,526.44
9.78508,489.98,526.12
9.80545,488.51,526.06
9.82525,485.37,525.30
9.84479,486.06,529.23
9.86559,489.89,525.45
9.88661,487.08,530.85
9.90679,491.42,528.45
9.92478,490.55,529.23
9.94622,489.35,532.81
9.96658,491.68,531.07
9.98617,489.76,530.58
10.00606,494.09,530.99
10.02635,491.08,534.68
10.04712,493.64,532.23
10.06677,491.05,533.71
10.08721,491.56,535.66
10.10622,490.20,533.82
10.12722,491.75,531.84
10.14626,489.88,532.87
10.16619,490.83,529.42
10.18601,488.47,528.96
10.20571,490.00,528.95
10.22592,486.98,527.62
10.24588,487.56,529.67
10.26646,485.39,530.52
10.28745,487.65,527.37
10.30674,485.79,529.57
10.32737,488.36,529.38
10.34638,490.70,531.56
10.36610,491.77,526.89
10.38726,489.75,512.18
10.40748,485.82,495.89
10.42774,487.44,473.03
10.44606,481.62,451.07
10.46684,478.07,428.45
10.48730,476.87,413.46
10.50685,472.12,399.41
10.52734,473.95,392.38
10.54849,474.52,387.95
10.56872,474.84,390.83
10.58799,477.76,394.27
10.60708,478.94,396.68
10.62714,480.06,405.24
10.64697,478.78,416.72
10.66814,483.11,426.68
10.68773,481.42,440.32
10.70710,483.08,450.19
10.72828,482.49,457.66
10.74795,483.90,468.94
10.76857,485.74,478.43
10.78702,487.19,485.16
10.80711,485.89,490.84
10.82851,487.42,496.61
10.84811,490.25,501.41
10.86745,488.63,504.91
10.88827,492.13,510.98
10.90739,498.08,517.81
10.92765,499.32,521.43
10.94806,501.73,525.86
10.96860,501.32,528.41
10.98939,499.78,531.21
11.00907,501.25,533.46
11.03074,501.56,531.97
11.05033,499.27,533.14
11.06956,499.70,535.34
11.08985,502.02,535.55
11.11059,498.04,536.42
11.13013,498.24,534.72
11.15153,495.80,538.48
11.17148,494.57,536.99
11.19014,491.94,539.34
11.21055,491.98,538.69
11.23143,491.22,538.78
11.25052,491.30,540.26
11.27118,489.59,539.26
11.29005,489.36,537.92
11.31017,488.24,539.72
11.33135,490.73,538.68
11.35000,490.02,541.12
11.37098,487.79,539.73
11.38990,488.34,535.59
11.41139,491.54,548.70
11.43066,491.90,574.72
11.45000,494.21,614.16
11.47155,494.38,663.78
11.49161,497.90,698.55
11.51058,497.89,720.87
11.53099,497.09,720.63
11.55041,498.11,706.96
11.57004,493.94,690.35
11.59052,497.03,668.18
11.61099,492.37,648.64
11.63072,493.13,631.17
11.65075,493.11,618.82
11.67134,492.52,606.22
11.69113,492.75,595.92
11.71000,492.36,587.06
11.72979,491.60,576.58
11.74997,492.50,572.58
11.76982,494.48,568.98
11.78974,494.57,567.02
11.81138,495.26,561.61
11.83051,494.75,554.85
11.84985,493.17,553.13
11.87042,493.32,550.54
11.89104,494.01,545.89
11.91158,495.61,547.14
11.93061,493.04,545.49
11.95139,494.93,544.94
11.97109,493.51,542.27
11.99095,491.83,542.11
12.01158,493.25,544.38
12.02990,491.86,544.19
12.05153,490.64,540.84
12.07159,493.38,541.53
12.09195,492.80,540.70
12.11103,493.37,538.54
12.13100,490.59,536.86
12.15172,489.30,537.66
12.17259,491.45,536.57
12.19171,492.39,535.01
12.21085,490.80,535.41
12.23147,494.15,535.34
12.25221,490.82,537.68
12.27267,490.71,533.62
12.29171,491.00,535.41
12.31251,489.72,534.15
12.33168,490.93,533.45
12.35099,491.69,533.14
12.37186,492.66,531.91
12.39084,492.91,530.73
12.41198,495.14,530.49
12.43195,493.92,529.90
12.45131,492.80,530.53
12.47150,495.45,528.37
12.49169,494.64,532.72
12.51169,496.80,531.79
12.53092,494.56,531.81
12.55144,496.30,530.59
12.57194,494.49,532.26
12.59197,492.10,535.20
12.61240,492.82,535.06
12.63216,493.10,531.68
12.65274,493.56,531.58
12.67161,491.42,531.41
12.69268,490.80,533.45
12.71145,490.87,534.31
12.73113,492.38,532.24
12.75137,492.08,530.49
12.77184,493.04,531.76
12.79115,490.21,528.26
12.81236,492.30,529.30
12.83257,488.77,529.45
12.85125,490.29,528.27
12.87181,490.74,528.15
12.89135,492.14,528.41
12.91064,492.07,531.71
12.93221,488.75,531.00
12.95086,489.23,528.77
12.97259,490.65,531.36
12.99158,489.63,530.97
13.01189,492.42,527.77
13.03103,492.73,526.66
13.05144,492.26,528.56
13.07179,492.80,530.73
13.09257,491.42,527.80
13.11157,492.69,516.77
13.13208,491.15,503.81
13.15149,490.38,492.01
13.17093,488.06,478.36
13.19259,486.45,463.17
13.21269,484.69,452.30
13.23253,483.14,440.12
13.25269,481.48,428.00
13.27341,479.96,421.96
13.29256,479.22,413.13
13.31339,479.24,412.24
13.33254,482.56,411.40
13.35293,483.62,412.94
13.37214,483.67,416.33
13.39205,486.74,423.11
13.41182,485.84,429.33
13.43279,487.96,437.88
13.45170,490.66,451.51
13.47294,492.35,458.59
13.49295,492.16,467.56
13.51470,490.64,473.70
13.53557,492.95,480.71
13.55465,492.55,488.26
13.57468,491.08,491.34
13.59383,493.10,496.95
13.61412,494.83,505.07
13.63588,498.21,505.98
13.65421,499.45,510.77
13.67442,498.69,515.75
13.69511,497.31,518.10
13.71494,498.44,518.48
13.73384,495.39,518.67
13.75407,496.34,520.54
13.77444,494.64,524.34
13.79462,492.06,525.74
13.81488,494.90,527.51
13.83540,492.09,527.62
13.85458,490.58,527.31
13.87546,490.98,527.69
13.89478,488.71,528.30
13.91580,490.55,528.37
13.93535,489.52,526.83
13.95497,493.08,528.19
13.97541,491.20,526.16
13.99608,490.74,525.82
14.01583,492.28,526.89
14.03462,493.41,528.08
14.05638,494.20,528.23
14.07499,492.68,525.96
14.09682,494.14,526.98
14.11687,493.44,527.83
14.13849,489.61,525.49
14.15868,488.66,526.80
14.17722,491.19,529.51
14.19840,488.79,529.59
14.21803,487.70,526.71
14.23804,489.34,529.02
14.25773,487.62,527.37
14.27797,489.35,529.20
14.29870,486.81,528.67
14.31864,489.54,527.66
14.33688,489.37,550.07
14.35820,491.77,587.81
14.37677,497.86,626.19
14.39787,499.08,667.33
14.41758,500.81,692.35
14.43846,498.46,705.34
14.45775,500.95,701.92
14.47845,499.23,686.26
14.49876,498.47,669.64
14.51794,497.26,653.00
14.53955,491.57,633.59
14.55821,490.89,620.11
14.57962,491.71,605.15
14.59864,491.57,595.56
14.61938,489.15,583.84
14.63863,489.93,575.09
14.65870,490.36,569.92
14.67935,489.32,566.84
14.69903,490.30,563.05
14.71925,491.92,562.41
14.74057,491.29,558.71
14.75917,491.53,554.38
14.78044,490.82,550.53
14.79913,494.07,546.28
14.81970,491.65,546.35
14.83931,491.83,544.23
14.85924,494.46,538.23
14.88090,492.89,540.45
14.90064,492.63,537.53
14.92149,493.76,537.11
14.94040,492.66,534.68
14.96221,491.47,536.82
14.98266,492.86,537.27
15.00090,492.70,537.43
15.02140,494.38,536.02
15.04199,494.13,537.19
15.06279,494.82,540.64
15.08292,492.84,539.49
15.10221,493.58,537.77
15.12314,492.66,538.85
15.14326,496.33,535.59
15.16203,495.99,537.13
15.18179,496.13,536.28
15.20265,496.02,531.67
15.22364,491.62,532.81
15.24293,490.15,531.50
15.26292,490.97,533.05
15.28288,491.38,534.36
15.30164,489.94,534.24
15.32303,489.63,535.04
15.34335,493.26,535.59
15.36316,493.35,535.56
15.38348,491.60,534.07
15.40340,492.63,537.71
15.42345,492.18,537.94
15.44278,493.62,535.49
15.46393,491.72,535.04
15.48276,496.23,536.74
15.50381,495.11,536.56
15.52419,494.41,537.11
15.54442,495.20,535.32
15.56471,494.61,533.16
15.58310,492.92,536.28
15.60419,496.69,536.81
15.62345,496.51,536.37
15.64319,495.16,535.63
15.66389,495.23,536.45
15.68384,493.11,534.15
15.70519,492.08,535.04
15.72369,491.72,533.73
15.74495,495.19,532.60
15.76476,491.74,534.82
15.78402,491.54,533.36
15.80432,493.06,535.86
15.82462,492.38,536.73
15.84487,491.84,533.06
15.86510,494.23,535.12
15.88416,493.73,536.04
15.90441,492.72,534.51
15.92390,492.93,535.70
15.94546,491.73,533.77
15.96387,493.26,532.66
15.98460,492.19,534.10
16.00510,491.73,533.45
16.02467,494.49,532.06
16.04401,491.51,533.71
16.06438,493.59,535.12
16.08403,491.19,533.41
16.10516,493.69,531.65
16.12498,495.06,534.70
16.14457,492.21,533.30
16.16540,491.96,533.09
16.18517,492.67,534.56
16.20594,490.97,533.19
16.22504,490.85,531.88
16.24530,492.83,531.37
16.26564,492.00,529.41
16.28523,494.24,530.66
16.30663,492.68,529.23
16.32587,493.37,530.52
16.34572,492.77,529.43
16.36652,492.48,529.56
16.38538,489.25,531.85
16.40499,491.57,531.04
16.42629,492.26,530.72
16.44654,489.82,529.94
16.46553,490.22,529.73
16.48618,489.44,530.94
16.50514,493.30,530.95
16.52492,492.79,531.55
16.54651,493.95,532.69
16.56489,492.81,532.16
16.58538,490.58,534.62
16.60496,493.73,531.87
16.62670,491.34,530.64
16.64654,494.74,532.03
16.66733,493.70,530.92
16.68610,491.78,532.40
16.70567,490.35,534.06
16.72684,492.56,534.25
16.74742,495.33,531.13
16.76684,495.19,530.83
16.78625,494.20,529.05
16.80712,492.90,528.54
16.82735,495.17,528.57
16.84768,493.51,529.10
16.86603,493.88,528.17
16.88656,494.59,530.89
16.90587,492.06,533.46
16.92688,493.84,530.64
16.94721,490.59,521.94
16.96685,491.04,507.86
16.98747,488.36,487.17
17.00711,480.58,467.92
17.02711,473.08,450.98
17.04602,469.67,432.24
17.06641,465.23,417.23
17.08810,466.19,406.20
17.10690,465.10,401.55
17.12878,469.67,396.54
17.14797,473.17,399.11
17.16779,474.64,400.84
17.18736,478.56,408.05
17.20833,482.47,417.97
17.22697,483.32,426.32
17.24774,487.39,435.03
17.26819,485.06,443.49
17.28715,488.69,451.93
17.30733,487.51,464.08
17.32863,490.08,472.61
17.34754,489.69,479.30
17.36722,489.45,483.53
17.38661,491.30,490.55
17.40759,492.44,497.97
17.42799,490.85,502.12
17.44776,492.77,504.46
17.46852,492.65,512.20
17.48850,498.55,521.28
17.50698,498.43,525.47
17.52842,503.01,530.56
17.54710,505.68,535.58
17.56669,506.34,534.19
17.58706,504.26,535.06
17.60806,503.95,534.84
17.62793,502.13,535.60
17.64721,498.37,535.00
17.66756,499.57,534.56
17.68683,497.73,535.10
17.70846,494.63,535.38
17.72702,492.35,532.01
17.74674,493.34,532.64
17.76743,491.59,532.49
17.78765,489.60,533.71
17.80748,490.35,535.56
17.82759,489.44,534.17
17.84864,488.87,536.42
17.86827,490.14,535.11
17.88726,492.75,534.41
17.90831,491.64,534.48
17.92804,489.49,534.22
17.94691,490.83,534.29
17.96713,492.41,537.91
17.98823,492.40,537.22
18.00760,492.64,534.94
18.02716,495.00,536.80
18.04674,493.85,536.78
18.06782,491.42,535.11
18.08827,493.91,534.86
18.10712,492.32,534.67
18.12706,491.95,530.94
18.14864,493.51,530.44
18.16845,493.26,540.22
18.18746,493.76,566.29
18.20807,495.92,603.46
18.22760,496.10,638.78
18.24731,496.66,672.21
18.26765,499.73,691.32
18.28761,500.83,702.83
18.30802,499.24,708.84
18.32739,498.91,703.35
18.34855,497.72,689.32
18.36853,499.73,673.05
18.38711,500.19,651.29
18.40796,499.53,637.06
18.42743,500.87,622.63
18.44806,497.85,605.61
18.46765,497.46,594.35
18.48868,494.74,582.64
18.50756,496.16,576.51
18.52832,493.93,569.40
18.54673,494.98,561.39
18.56739,494.08,556.24
18.58859,491.80,551.38
18.60801,488.41,546.86
18.62687,489.43,541.93
18.64805,488.16,538.17
18.66718,489.32,536.83
18.68686,486.95,535.89
18.70765,490.98,534.58
18.72740,488.63,533.97
18.74692,489.89,535.65
18.76852,493.16,537.40
18.78718,495.23,534.81
18.80809,495.47,535.41
18.82729,493.33,534.34
18.84678,493.10,536.70
18.86664,494.75,532.76
18.88794,496.12,534.79
18.90834,493.55,531.30
18.92676,494.34,532.49
18.94851,493.59,532.18
18.96916,493.67,532.37
18.98815,491.57,531.73
19.00884,491.52,534.33
19.02844,492.45,534.94
19.04949,494.07,536.48
19.06947,493.07,536.43
19.08952,494.31,535.34
19.11024,491.47,533.90
19.13015,490.52,530.38
19.15047,492.15,534.51
19.16877,491.26,534.11
19.19042,489.63,533.46
19.20856,491.36,531.19
19.22894,492.84,531.51
19.25043,492.50,532.08
19.27026,493.08,533.52
19.28949,495.27,532.64
19.30899,496.89,535.17
19.33114,497.38,537.14
19.35116,493.92,537.00
19.37087,493.07,535.25
19.39096,492.95,533.33
19.41171,492.18,532.61
19.43189,490.03,534.08
19.45068,490.68,535.02
19.47092,489.98,532.54
19.49127,492.74,534.41
19.51192,494.03,533.48
19.53360,492.48,536.47
19.55161,489.27,537.81
19.57328,491.18,537.13
19.59177,494.82,536.60
19.61315,494.30,535.56
19.63273,493.23,533.75
19.65402,490.43,531.71
19.67403,491.69,532.36
19.69278,492.16,530.25
19.71352,490.63,531.45
19.73468,490.26,531.81
19.75363,491.44,532.15
19.77437,489.70,531.99
19.79296,488.40,533.64
19.81389,492.52,536.64
19.83284,491.51,535.08
19.85288,493.78,536.49
19.87506,490.98,535.01
19.89586,494.32,536.03
19.91655,494.82,536.90
19.93659,491.45,535.82
19.95623,491.86,531.57
19.97494,492.16,531.54
19.99717,494.86,530.37
20.01672,494.94,531.73
20.03672,494.90,533.09
20.05750,493.85,531.36
20.07682,496.46,534.47
20.09662,495.31,533.27
20.11577,496.36,532.55
20.13615,495.07,531.11
20.15690,496.64,532.36
20.17710,497.62,532.49
20.19581,496.63,533.94
20.21628,496.28,531.81
20.23695,494.89,532.00
20.25676,495.53,535.88
20.27633,495.18,533.26
20.29653,495.12,532.33
20.31601,493.91,532.33
20.33732,497.76,532.07
20.35641,496.46,531.05
20.37595,495.18,531.13
20.39633,493.57,531.53
20.41743,496.73,532.55
20.43697,496.45,532.55
20.45643,493.95,535.35
20.47669,495.46,529.11
20.49614,492.95,516.99
20.51591,492.90,497.74
20.53603,496.37,479.47
20.55712,492.96,457.90
20.57722,495.52,443.15
20.59621,493.31,429.85
20.61743,492.15,417.90
20.63674,491.05,407.32
20.65586,489.54,402.30
20.67546,487.08,403.39
20.69568,488.03,402.41
20.71699,488.95,406.55
20.73636,486.64,412.82
20.75619,484.67,421.03
20.77598,485.81,430.47
20.79695,485.44,441.51
20.81633,488.52,449.64
20.83661,488.40,458.01
20.85604,489.45,468.02
20.87608,486.89,475.86
20.89681,488.26,482.25
20.91747,491.40,489.86
20.93652,489.18,493.71
20.95613,490.74,499.97
20.97718,492.68,503.13
20.99745,496.94,508.86
21.01662,495.95,514.74
21.03681,495.57,516.25
21.05674,497.95,520.68
21.07645,495.79,522.51
21.09635,495.44,522.06
21.11610,493.06,527.11
21.13709,492.02,525.71
21.15621,493.64,527.54
21.17652,495.78,528.48
21.19665,492.89,531.91
21.21748,494.94,530.36
21.23590,491.58,532.05
21.25692,491.63,533.51
21.27697,493.45,534.13
21.29596,493.54,534.88
21.31701,493.22,537.48
21.33605,493.29,537.87
21.35745,494.13,537.91
21.37664,493.78,538.43
21.39721,492.12,535.80
21.41593,494.19,535.61
21.43587,490.99,534.17
21.45661,492.43,534.37
21.47632,492.09,531.63
21.49592,490.06,531.58
21.51657,491.90,533.94
21.53619,492.36,555.34
21.55542,495.13,594.28
21.57663,498.07,630.82
21.59712,499.54,667.38
21.61670,498.01,699.56
21.63681,496.16,713.15
21.65717,498.41,719.02
21.67605,495.90,708.90
21.69628,494.58,693.71
21.71625,495.70,674.99
21.73647,494.36,657.21
21.75726,492.22,639.84
21.77701,488.78,625.12
21.79646,488.26,614.21
21.81642,490.26,599.97
21.83649,489.70,592.45
21.85605,489.66,581.84
21.87681,488.67,574.61
21.89570,488.25,569.40
21.91644,486.18,562.92
21.93683,491.02,558.24
21.95740,490.90,549.22
21.97603,490.49,545.34
21.99618,492.13,542.77
22.01726,492.36,541.48
22.03777,492.03,537.66
22.05670,489.98,538.56
22.07782,490.05,536.55
22.09671,492.72,533.62
22.11803,495.06,534.82
22.13717,492.79,535.70
22.15822,492.05,531.94
22.17717,490.11,531.54
22.19814,493.66,533.41
22.21762,492.54,531.49
22.23859,494.08,529.15
22.25659,495.23,533.35
22.27835,494.28,531.64
22.29840,491.91,529.47
22.31806,494.03,532.25
22.33840,491.76,532.66
22.35735,492.42,532.53
22.37814,491.52,529.90
22.39723,489.64,530.15
22.41750,490.95,531.94
22.43689,491.86,532.40
22.45776,490.85,529.31
22.47651,491.98,532.22
22.49762,491.58,533.87
22.51837,493.48,530.58
22.53681,490.72,534.35
22.55710,492.93,530.90
22.57755,491.75,533.82
22.59763,490.82,530.61
22.61699,492.90,533.30
22.63634,488.60,530.71
22.65820,492.69,528.70
22.67764,492.17,528.20
22.69802,491.70,530.97
22.71768,493.71,531.40
22.73660,495.01,533.07
22.75823,493.30,531.52
22.77670,491.22,532.45
22.79807,492.62,532.62
22.81662,491.25,532.58
22.83823,493.98,531.16
22.85771,492.32,534.04
22.87674,488.04,532.59
22.89642,487.18,531.37
22.91650,488.51,532.84
22.93790,489.37,532.93
22.95773,490.90,531.25
22.97773,492.87,531.42
22.99696,494.47,532.66
23.01793,493.75,535.10
23.03673,493.28,531.48
23.05681,491.98,532.60
23.07818,495.56,532.47
23.09695,493.07,531.87
23.11659,493.16,530.66
23.13734,494.72,532.10
23.15758,490.08,533.67
23.17652,490.89,530.73
23.19823,488.21,531.21
23.21760,491.46,530.75
23.23723,488.96,529.84
23.25731,488.52,532.64
23.27669,489.00,531.40
23.29760,488.56,531.58
23.31851,489.37,532.53
23.33677,489.64,530.01
23.35805,489.80,532.58
23.37737,491.30,532.23
23.39814,491.01,531.42
23.41775,493.26,529.97
23.43664,489.85,528.27
23.45701,490.07,526.11
23.47691,489.73,529.07
23.49719,490.63,527.87
23.51849,493.24,530.49
23.53762,489.44,529.04
23.55765,489.52,529.97
23.57847,489.43,528.22
23.59796,491.01,527.40
23.61664,491.23,529.13
23.63695,490.10,528.37
23.65740,490.92,530.12
23.67830,489.71,530.43
23.69820,486.81,528.88
23.71815,489.81,531.93
23.73781,489.76,529.89
23.75858,489.36,529.43
23.77897,487.58,531.27
23.79823,487.25,529.40
23.81958,488.50,529.13
23.83850,488.41,527.79
23.85907,486.79,529.34
23.88028,488.41,528.59
23.90048,487.53,528.84
23.91936,490.11,527.55
23.94142,489.40,527.98
23.96028,489.44,531.69
23.98084,490.20,531.75
24.00057,493.76,533.33
24.01943,492.85,534.21
24.04085,491.63,531.32
24.06000,489.05,533.25
24.08228,490.80,536.59
24.10068,491.53,531.04
24.12055,491.26,523.02
24.14142,488.66,507.55
24.16266,489.92,493.55
24.18211,491.72,480.87
24.20153,492.34,464.66
24.22269,491.85,453.96
24.24314,491.91,441.90
24.26160,489.59,429.47
24.28267,487.71,419.69
24.30209,485.60,412.61
24.32412,486.88,411.52
24.34261,485.61,406.81
24.36303,488.71,410.83
24.38433,488.29,414.83
24.40394,486.90,422.19
24.42410,487.02,430.70
24.44392,488.76,438.48
24.46319,490.31,448.20
24.48346,490.64,455.31
24.50429,491.46,465.99
24.52395,489.21,474.57
24.54394,488.25,482.75
24.56272,492.53,490.83
24.58354,494.83,496.54
24.60443,493.19,503.52
24.62354,492.59,510.27
24.64312,493.15,516.41
24.66369,494.96,519.44
24.68341,495.04,521.02
24.70254,494.71,525.33
24.72302,494.90,524.85
24.74387,489.84,527.15
24.76291,491.23,530.93
24.78400,489.83,534.45
24.80341,488.32,536.72
24.82450,489.67,536.16
24.84337,488.80,537.50
24.86323,487.64,538.62
24.88403,486.52,539.90
24.90330,489.08,540.46
24.92256,489.04,539.92
24.94263,490.80,537.49
24.96246,490.21,539.92
24.98338,491.83,539.42
25.00388,490.74,538.58
25.02336,492.34,539.38
25.04274,491.03,537.73
25.06241,492.70,538.31
25.08271,489.09,538.78
25.10420,490.09,537.81
25.12449,490.74,538.13
25.14428,490.87,536.07
25.16525,488.80,535.08
25.18449,493.01,536.78
25.20379,492.98,542.03
25.22519,493.06,565.45
25.24516,490.49,599.67
25.26452,489.67,633.37
25.28504,490.16,664.15
25.30352,492.45,685.71
25.32459,494.48,705.54
25.34436,493.63,714.68
25.36395,494.91,711.17
25.38415,497.39,692.83
25.40457,497.61,676.10
25.42488,495.50,656.89
25.44395,493.12,641.05
25.46550,491.39,620.32
25.48475,492.07,608.26
25.50478,494.07,594.41
25.52464,492.16,585.61
25.54527,490.30,575.16
25.56639,493.21,567.90
25.58535,489.67,560.50
25.60657,490.33,559.20
25.62528,494.86,553.60
25.64436,494.01,551.83
25.66455,492.77,549.18
25.68627,493.98,547.94
25.70646,492.48,544.89
25.72468,495.95,539.07
25.74715,493.96,538.46
25.76679,495.75,539.86
25.78729,495.69,534.36
25.80706,493.85,536.23
25.82716,493.30,535.74
25.84669,492.64,537.45
25.86558,495.37,533.93
25.88544,493.91,534.65
25.90695,493.57,533.26
25.92685,491.49,535.34
25.94574,491.25,534.61
25.96635,494.32,536.07
25.98564,494.34,535.20
26.00551,492.63,536.69
26.02623,494.58,537.44
26.04657,493.52,534.74
26.06648,494.54,535.10
26.08555,493.14,533.76
26.10630,492.82,533.57
26.12654,494.23,535.40
26.14666,495.82,533.61
26.16695,494.77,533.26
26.18573,492.94,537.92
26.20541,491.47,537.08
26.22567,494.70,537.79
26.24703,494.83,534.40
26.26739,492.31,535.84
26.28669,491.86,535.89
26.30669,491.42,536.07
26.32584,492.39,535.99
26.34583,491.29,534.93
26.36662,489.84,533.74
26.38569,490.00,532.46
26.40651,491.33,535.52
26.42570,490.43,534.72
26.44631,493.06,531.82
26.46724,489.35,534.08
26.48746,490.86,532.18
26.50714,490.23,532.57
26.52630,491.20,530.85
26.54570,491.68,531.71
26.56550,492.93,534.49
26.58665,491.90,532.12
26.60673,490.30,531.16
26.62579,491.77,532.48
26.64668,494.05,533.54
26.66704,494.24,533.61
26.68558,496.04,532.44
26.70638,496.12,534.54
26.72662,493.55,532.18
26.74639,496.08,532.28
26.76734,495.94,536.19
26.78643,496.19,533.72
26.80638,493.84,535.39
26.82609,491.25,533.27
26.84634,491.13,534.49
26.86710,488.53,534.03
26.88712,490.28,534.95
26.90733,491.58,533.43
26.92596,489.79,534.99
26.94666,490.64,531.83
26.96596,490.11,532.31
26.98589,488.87,532.87
27.00627,488.54,535.79
27.02543,489.51,533.06
27.04667,492.13,534.50
27.06629,492.39,534.29
27.08685,490.93,535.22
27.10654,489.91,532.97
27.12720,491.28,533.71
27.14707,489.82,531.86
27.16566,487.70,533.31
27.18583,488.39,533.16
27.20722,487.67,531.95
27.22598,488.27,533.23
27.24693,491.97,531.22
27.26706,490.44,530.78
27.28667,491.29,529.32
27.30660,489.98,531.17
27.32617,490.20,528.48
27.34624,490.30,527.65
27.36596,493.07,529.91
27.38570,491.90,530.08
27.40620,493.60,530.09
27.42609,493.18,533.00
27.44637,496.31,535.76
27.46632,494.84,536.33
27.48692,492.64,531.98
27.50657,490.01,521.37
27.52563,489.36,506.13
27.54673,483.14,490.24
27.56707,482.36,472.67
27.58659,475.87,456.75
27.60722,473.22,447.88
27.62649,470.64,438.44
27.64612,468.74,430.18
27.66728,468.54,421.62
27.68713,468.05,417.73
27.70643,469.43,415.35
27.72680,470.88,414.23
27.74678,473.82,417.48
27.76811,475.46,420.14
27.78790,479.46,426.36
27.80651,481.04,430.93
27.82810,483.36,439.59
27.84792,483.90,445.22
27.86810,486.56,455.39
27.88820,488.89,462.77
27.90790,489.67,468.90
27.92696,492.10,476.65
27.94759,493.01,485.60
27.96840,491.05,488.14
27.98762,492.72,496.99
28.00715,492.26,498.72
28.02723,491.20,503.36
28.04698,493.21,509.58
28.06664,495.20,515.32
28.08718,495.94,518.05
28.10712,498.33,521.77
28.12771,498.17,525.52
28.14823,497.11,527.02
28.16834,497.58,528.51
28.18686,499.39,530.83
28.20864,496.66,528.56
28.22706,499.12,529.04
28.24715,495.63,530.52
28.26726,496.05,531.52
28.28725,494.57,532.16
28.30674,495.10,531.02
28.32741,496.53,531.17
28.34670,495.25,531.32
28.36798,494.88,530.08
28.38786,496.14,530.08
28.40627,493.59,532.24
28.42790,494.38,532.08
28.44767,492.36,533.21
28.46778,493.01,532.24
28.48834,492.94,534.92
28.50744,492.12,536.28
28.52761,492.44,535.21
28.54813,489.86,532.82
28.56702,492.55,533.75
28.58817,491.85,530.58
28.60734,493.57,531.42
28.62799,493.36,532.66
28.64761,495.04,546.24
28.66758,494.54,578.07
28.68730,497.77,618.31
28.70839,507.16,666.36
28.72837,510.59,724.58
28.74787,518.10,776.65
28.76733,520.29,803.75
28.78813,522.93,811.29
28.80649,520.69,803.58
28.82777,514.96,782.99
28.84828,508.12,754.73
28.86815,504.60,718.98
28.88795,498.83,684.83
28.90788,491.80,647.73
28.92701,486.00,615.88
28.94758,483.04,586.69
28.96738,480.11,558.75
28.98799,478.51,540.18
29.00789,477.61,527.43
29.02829,479.04,515.98
29.04712,475.89,506.28
29.06699,476.93,498.34
29.08647,477.68,494.37
29.10812,477.51,495.76
29.12632,478.62,496.14
29.14819,478.74,496.08
29.16789,481.74,498.12
29.18672,486.17,502.78
29.20693,490.61,503.41
29.22834,489.01,507.63
29.24714,490.47,506.43
29.26701,488.07,510.41
29.28823,489.06,512.09
29.30724,491.12,514.24
29.32793,492.55,516.28
29.34729,490.93,516.91
29.36695,493.59,517.63
29.38679,495.08,521.55
29.40679,493.10,519.75
29.42646,489.50,522.26
29.44712,492.02,522.81
29.46728,490.44,525.85
29.48876,489.55,524.69
29.50890,489.52,525.16
29.52764,488.30,527.27
29.54752,488.34,524.78
29.56896,488.93,527.63
29.58826,489.55,529.01
29.60838,492.17,528.15
29.62842,490.81,527.60
29.64872,491.01,529.45
29.66800,489.79,527.53
29.68813,489.50,530.75
29.70765,492.28,528.71
29.72954,491.46,530.64
29.74848,488.95,530.23
29.76844,491.88,532.50
29.78848,488.18,531.40
29.80898,488.54,534.01
29.82854,487.49,533.80
29.85014,490.43,532.49
29.86950,488.47,535.58
29.89021,489.40,532.95
29.90859,490.90,534.87
29.92914,491.07,532.97
29.94882,489.82,534.43
29.97028,490.91,534.44
29.98898,489.30,536.60
30.01001,489.01,536.66
30.02859,488.11,534.96
30.05037,489.27,533.05
30.06978,487.89,531.61
30.08838,486.61,532.22
30.10924,488.00,534.40
30.12984,488.43,532.44
30.14921,487.82,532.97
30.16962,489.44,534.87
30.18946,487.50,533.95
30.20912,490.18,532.47
30.22897,488.49,532.23
30.24892,490.91,532.00
30.26984,489.02,531.75
30.28960,488.32,532.43
30.30957,488.33,531.78
30.32889,490.28,532.48
30.34857,489.03,533.72
30.36870,490.33,532.58
30.38893,490.89,533.66
30.40855,489.52,530.93
30.42860,491.75,533.56
30.44947,491.20,536.33
30.47029,492.13,535.48
30.48897,490.98,529.78
30.50916,492.12,517.40
30.52893,490.75,500.06
30.54968,492.16,480.31
30.56842,490.08,465.61
30.58908,487.71,447.18
30.60842,485.26,433.88
30.63000,482.37,421.41
30.64996,479.86,411.85
30.67027,482.22,405.76
30.68914,481.66,402.26
30.70916,483.18,403.84
30.72973,482.71,406.44
30.74920,484.86,413.13
30.76941,486.37,420.84
30.78877,488.13,431.41
30.80828,490.59,439.66
30.82930,492.94,448.70
30.84961,489.99,457.57
30.86913,492.93,467.10
30.89023,488.62,474.46
30.90961,489.79,483.38
30.92864,489.79,487.36
30.94862,490.43,495.55
30.96836,492.67,500.42
30.98919,492.20,512.17
31.00886,491.89,523.85
31.02920,496.33,528.45
31.04858,496.05,533.95
31.06847,492.09,536.64
31.08938,492.83,540.74
31.10958,495.43,540.15
31.12918,492.63,541.40
31.14896,494.28,540.94
31.16825,493.94,540.50
31.18964,494.48,539.32
31.20855,494.70,538.91
31.23116,495.46,536.40
31.24986,492.62,536.16
31.27086,494.39,534.36
31.29078,490.58,533.90
31.30928,489.68,535.12
31.33106,490.31,534.44
31.34991,487.33,535.23
31.36966,491.18,535.25
31.39030,491.67,531.77
31.41015,491.95,531.59
31.42971,492.20,532.45
31.45009,492.13,528.93
31.47082,491.38,531.96
31.48978,492.94,528.67
31.51069,493.07,529.54
31.53058,494.35,543.71
31.54988,496.20,575.76
31.56950,496.69,615.73
31.59103,500.47,656.56
31.61083,499.47,685.77
31.63045,497.77,702.05
31.65103,496.76,702.66
31.67098,496.76,694.76
31.68996,494.44,680.50
31.71124,491.91,664.71
31.73092,493.03,645.82
31.75014,489.33,630.05
31.77092,489.62,614.99
31.79067,489.10,600.93
31.81081,490.29,593.31
31.82950,491.57,581.17
31.85111,490.71,575.67
31.87052,491.51,568.56
31.89106,491.63,563.57
31.91063,490.78,559.78
31.93121,491.64,555.16
31.95008,490.78,554.31
31.97052,494.20,548.59
31.99005,494.76,544.90
32.00946,495.37,544.33
32.02955,494.84,542.70
32.05047,496.20,541.77
32.07013,495.03,542.10
32.09104,495.76,538.24
32.10983,495.32,538.11
32.13022,492.74,538.07
32.15080,495.90,533.60
32.17108,493.48,536.57
32.18993,493.16,535.18
32.21137,491.61,534.43
32.22976,491.17,536.06
32.25029,492.75,535.78
32.27015,491.53,533.08
32.29129,493.35,534.56
32.30953,492.98,536.23
32.33011,491.13,535.45
32.35063,491.80,534.78
32.37010,490.76,536.01
32.39071,493.12,534.87
32.41061,492.94,538.34
32.43080,491.77,537.71
32.44958,491.58,537.14
32.46961,490.40,537.84
32.49135,492.03,535.04
32.51003,489.55,538.61
32.53006,494.40,538.43
32.54937,492.81,536.92
32.57102,493.66,537.74
32.58975,494.22,537.49
32.61127,492.36,537.56
32.62964,491.86,536.44
32.64962,493.74,535.49
32.66998,494.42,535.09
32.68945,493.35,535.43
32.70950,491.12,534.22
32.72998,491.54,537.22
32.75095,490.21,538.38
32.77028,489.92,536.25
32.79097,491.66,536.33
32.80960,488.86,537.60
32.83042,490.28,536.77
32.85100,491.72,536.31
32.87055,490.95,536.88
32.89136,488.54,536.46
32.91045,489.14,535.48
32.92939,491.41,534.74
32.95042,492.46,532.82
32.97126,490.89,532.62
32.99013,489.73,535.94
33.01086,491.19,534.36
33.03094,494.75,534.19
33.05057,494.48,532.92
33.07075,493.01,532.63
33.09005,490.45,532.54
33.11025,492.48,534.51
33.12992,489.80,532.43
33.15118,490.92,532.82
33.17106,489.97,533.18
33.19096,492.76,534.70
33.21042,492.60,532.39
33.23078,491.13,533.88
33.25046,490.92,534.17
33.27086,491.91,534.83
33.29139,488.92,535.21
33.30954,491.49,533.08
33.33020,492.03,536.01
33.34965,491.35,537.75
33.37022,490.35,535.46
33.39121,487.72,539.39
33.40924,489.19,536.56
33.43071,489.76,536.48
33.44935,492.05,535.96
33.47084,491.08,536.21
33.49005,492.29,538.11
33.51001,491.53,536.52
33.52978,491.06,538.35
33.55100,494.41,537.89
33.57027,493.65,539.03
33.59058,489.44,537.67
33.60955,490.20,536.03
33.62958,493.08,535.90
33.65053,489.80,536.93
33.67017,492.20,535.73
33.69098,491.51,525.71
33.70930,491.84,508.13
33.73015,488.77,482.65
33.75126,482.33,461.91
33.77063,480.14,441.15
33.78945,479.49,425.24
33.81052,476.48,414.29
33.82970,474.99,404.22
33.85079,476.27,402.38
33.87065,477.74,401.30
33.89033,481.26,407.87
33.90929,481.64,414.97
33.92996,483.84,423.10
33.95107,483.35,434.66
33.96968,484.87,445.02
33.98920,487.92,455.62
34.01063,487.35,466.70
34.03060,488.30,472.12
34.04947,489.35,479.32
34.06976,489.46,487.52
34.09088,492.29,493.57
34.10961,494.18,500.98
34.13059,493.36,506.17
34.15095,494.35,508.87
34.17008,493.92,513.87
34.19103,494.09,517.75
34.21090,492.53,520.38
34.23028,497.49,523.20
34.25032,498.45,526.51
34.26983,502.83,530.27
34.29123,501.67,532.27
34.30930,499.62,534.91
34.33053,501.79,536.85
34.35155,500.86,536.52
34.37072,500.31,535.60
34.39121,498.51,534.87
34.41003,501.02,537.21
34.43067,499.71,536.79
34.45160,497.05,534.11
34.47101,495.01,535.72
34.49174,496.83,535.47
34.51136,495.69,533.97
34.53204,496.37,535.29
34.55109,495.78,533.58
34.57089,496.98,535.04
34.59144,492.53,534.04
34.61067,493.31,534.48
34.63024,491.31,529.05
34.65212,493.08,532.47
34.67220,492.36,541.29
34.69021,492.67,560.15
34.71219,492.56,594.70
34.73059,494.12,634.96
34.75154,495.01,669.30
34.77166,496.95,695.78
34.79077,496.11,703.04
34.81116,497.33,703.38
34.83152,495.62,689.73
34.85185,495.88,676.21
34.87125,494.75,656.54
34.89020,491.12,642.59
34.91315,494.47,624.73
34.93252,492.17,612.24
34.95182,490.65,600.32
34.97201,493.23,589.42
34.99231,490.85,589.16
35.01191,493.56,590.10
35.03188,492.84,591.81
35.05222,492.00,589.60
35.07273,491.42,584.32
35.09165,491.36,582.15
35.11236,490.31,578.49
35.13217,492.59,569.96
35.15174,492.57,568.22
35.17329,491.82,559.88
35.19383,490.89,556.06
35.21317,490.26,553.74
35.23391,491.31,552.96
35.25334,491.16,551.85
35.27319,492.31,549.53
35.29339,489.11,546.88
35.31358,490.92,546.95
35.33356,490.40,542.50
35.35365,489.19,544.09
35.37283,490.57,542.32
35.39292,491.50,542.14
35.41358,487.40,541.15
35.43352,489.19,541.56
35.45224,487.23,538.96
35.47375,489.97,539.00
35.49425,489.38,538.47
35.51457,490.48,538.97
35.53381,490.84,535.91
35.55494,488.96,534.42
35.57410,488.79,536.37
35.59492,491.55,536.52
35.61344,491.72,533.85
35.63332,492.18,534.69
35.65519,491.19,535.93
35.67507,489.92,534.88
35.69525,491.77,535.22
35.71484,491.64,535.83
35.73447,491.97,535.15
35.75431,488.68,536.81
35.77500,488.96,535.38
35.79461,490.37,537.29
35.81336,488.52,534.97
35.83435,491.74,536.00
35.85429,488.47,536.16
35.87521,488.92,534.33
35.89459,490.45,533.94
35.91517,490.81,533.01
35.93449,489.83,536.92
35.95356,489.69,534.37
35.97362,489.31,534.60
35.99362,490.80,537.38
36.01482,489.49,535.36
36.03439,491.62,535.58
36.05407,492.35,536.65
36.07487,490.25,534.88
36.09325,493.32,534.33
36.11435,493.78,532.81
36.13480,492.41,531.63
36.15489,493.30,532.22
36.17355,495.13,530.42
36.19330,494.91,531.39
36.21435,492.61,532.47
36.23407,495.14,531.74
36.25354,495.24,529.00
36.27434,493.87,531.71
36.29393,496.20,532.08
36.31491,493.96,532.76
36.33503,493.99,528.50
36.35514,495.85,532.22
36.37409,494.56,530.39
36.39483,492.44,532.72
36.41428,492.48,530.62
36.43452,492.33,528.80
36.45388,492.79,529.15
36.47376,493.23,528.79
36.49465,492.52,531.90
36.51355,493.53,530.28
36.53349,494.49,530.11
36.55442,494.79,534.17
36.57320,493.74,527.53
36.59419,492.75,520.59
36.61360,493.41,511.38
36.63339,490.59,495.93
36.65506,489.15,479.02
36.67398,489.68,463.71
36.69362,487.85,450.93
36.71369,485.86,438.25
36.73366,485.21,429.03
36.75488,482.78,419.12
36.77390,481.93,415.16
36.79488,481.18,412.93
36.81468,482.28,411.86
36.83364,483.28,412.44
36.85391,484.81,416.91
36.87323,483.34,421.70
36.89428,486.18,426.76
36.91430,486.95,434.41
36.93485,488.34,445.20
36.95516,487.33,452.18
36.97380,489.81,464.55
36.99457,490.77,470.72
37.01344,493.08,479.51
37.03488,490.58,487.71
37.05489,494.36,493.02
37.07442,491.56,498.36
37.09417,493.39,503.93
37.11407,493.18,509.13
37.13456,494.86,511.91
37.15448,496.05,516.01
37.17493,493.81,517.65
37.19434,495.39,518.89
37.21361,496.08,519.85
37.23346,494.52,522.15
37.25379,493.59,524.19
37.27397,493.95,527.06
37.29483,493.29,526.65
37.31342,489.81,529.60
37.33414,489.46,528.50
37.35469,490.42,527.90
37.37347,492.08,528.15
37.39388,490.95,528.33
37.41511,494.57,531.84
37.43444,491.49,529.30
37.45445,492.05,531.39
37.47430,489.17,530.95
37.49460,489.61,530.68
37.51350,489.70,531.07
37.53419,491.93,529.17
37.55495,492.02,528.86
37.57444,490.64,535.58
37.59382,489.03,556.63
37.61450,488.45,590.26
37.63384,489.85,633.00
37.65506,490.16,670.57
37.67414,489.80,698.69
37.69498,492.10,718.92
37.71432,497.10,724.11
37.73463,496.93,715.54
37.75434,498.30,702.17
37.77393,495.98,683.52
37.79455,495.77,663.53
37.81362,493.38,644.21
37.83411,492.64,629.21
37.85352,492.90,614.11
37.87511,494.98,600.52
37.89462,491.49,592.05
37.91357,491.15,580.82
37.93500,490.98,573.07
37.95511,492.59,568.22
37.97376,492.34,558.41
37.99436,492.78,554.10
38.01372,493.67,547.36
38.03396,490.89,546.97
38.05371,491.80,543.51
38.07358,492.89,538.86
38.09363,492.65,538.06
38.11417,489.40,537.11
38.13333,489.81,535.14
38.15443,490.61,532.87
38.17351,488.26,533.43
38.19327,487.94,533.55
38.21440,489.78,533.92
38.23425,490.20,532.55
38.25465,491.97,532.12
38.27503,490.22,532.84
38.29425,489.03,530.79
38.31494,489.21,530.43
38.33368,490.02,531.11
38.35360,487.05,529.57
38.37412,487.69,531.70
38.39471,487.84,529.66
38.41350,486.49,532.36
38.43372,488.63,528.79
38.45419,488.81,530.30
38.47460,488.14,530.85
38.49472,488.23,532.33
38.51403,487.05,530.47
38.53434,487.91,530.07
38.55384,487.44,531.57
38.57471,487.76,533.16
38.59433,486.64,533.77
38.61339,485.76,533.88
38.63384,487.20,534.66
38.65503,487.06,532.03
38.67492,487.71,532.96
38.69326,489.04,531.38
38.71375,488.31,533.28
38.73363,487.85,532.50
38.75321,489.49,531.06
38.77478,489.27,529.20
38.79450,490.73,532.48
38.81301,490.60,532.83
38.83326,490.99,533.96
38.85361,491.88,531.47
38.87488,490.43,531.87
38.89391,491.92,530.72
38.91439,491.25,530.21
38.93391,493.35,530.55
38.95331,492.11,530.58
38.97524,491.79,528.96
38.99484,490.46,530.81
39.01491,489.72,529.74
39.03412,491.34,530.21
39.05337,491.17,528.94
39.07461,492.17,527.09
39.09410,493.39,526.47
39.11413,493.24,527.51
39.13331,491.31,526.61
39.15365,492.23,529.12
39.17468,494.41,529.87
39.19435,491.36,528.62
39.21464,493.48,526.45
39.23472,490.69,528.32
39.25454,491.50,528.65
39.27453,491.67,528.36
39.29488,491.81,529.41
39.31336,493.78,531.17
39.33433,491.28,530.42
39.35481,492.52,533.86
39.37362,492.44,529.76
39.39345,492.45,532.46
39.41424,492.57,531.33
39.43378,489.16,532.07
39.45431,491.23,532.92
39.47426,492.16,529.12
39.49398,492.57,521.46
39.51322,488.82,503.60
39.53330,487.94,485.84
39.55335,485.11,467.57
39.57440,485.00,449.05
39.59328,484.43,438.37
39.61468,484.09,426.25
39.63389,482.17,418.01
39.65365,482.98,410.08
39.67371,483.76,410.96
39.69364,481.79,405.11
39.71312,481.85,407.50
39.73434,483.41,409.29
39.75362,484.05,412.07
39.77497,481.34,419.73
39.79469,481.62,425.95
39.81420,484.54,433.12
39.83342,484.78,437.31
39.85374,485.54,446.72
39.87446,485.55,456.92
39.89342,482.97,461.46
39.91438,485.45,469.49
39.93412,486.58,480.52
39.95429,485.96,484.58
39.97472,487.59,493.74
39.99319,484.37,499.62
40.01390,485.16,503.11
40.03331,483.28,507.55
40.05391,487.83,510.65
40.07567,488.85,512.31
40.09488,486.67,515.05
40.11525,488.34,520.97
40.13571,489.45,526.08
40.15499,492.27,532.27
40.17454,493.67,539.45
40.19566,492.45,540.88
40.21464,495.49,544.08
40.23518,496.90,545.22
40.25558,498.22,543.36
40.27603,495.02,546.74
40.29667,495.17,543.75
40.31614,492.14,545.55
40.33682,493.94,542.75
40.35517,494.40,544.74
40.37591,496.71,544.10
40.39659,495.40,541.82
40.41518,496.35,537.89
40.43588,494.86,538.46
40.45683,495.53,537.70
40.47676,495.94,537.08
40.49555,493.99,538.87
40.51573,493.71,534.82
40.53545,496.62,536.89
40.55656,495.59,539.96
40.57646,492.85,564.37
40.59614,494.09,601.13
40.61538,495.19,644.28
40.63684,494.63,683.12
40.65543,496.85,706.92
40.67515,493.37,715.81
40.69611,491.33,715.23
40.71557,490.79,703.51
40.73694,490.02,685.94
40.75692,489.80,666.89
40.77644,489.30,648.41
40.79670,489.92,630.11
40.81656,487.48,611.54
40.83614,491.47,599.89
40.85641,489.74,588.55
40.87518,489.25,581.08
40.89610,489.04,572.21
40.91677,490.71,566.33
40.93494,488.77,560.33
40.95668,489.74,555.27
40.97542,489.33,549.78
40.99516,490.11,548.03
41.01546,489.63,542.40
41.03628,488.83,541.52
41.05638,489.73,538.50
41.07577,489.00,538.92
41.09595,491.01,536.07
41.11671,486.47,536.21
41.13665,489.73,537.98
41.15524,488.31,537.35
41.17609,487.37,535.96
41.19589,492.52,537.65
41.21542,495.69,540.29
41.23553,495.42,542.38
41.25536,497.89,540.97
41.27571,496.43,541.28
41.29629,499.94,540.93
41.31710,496.29,540.91
41.33637,497.47,538.97
41.35702,497.98,538.93
41.37523,496.42,538.72
41.39559,496.62,540.65
41.41691,499.27,537.17
41.43691,498.70,536.11
41.45619,499.11,537.28
41.47559,496.87,533.79
41.49517,498.33,533.18
41.51677,496.61,531.51
41.53694,494.86,532.65
41.55531,494.95,534.46
41.57620,494.49,532.72
41.59529,492.67,533.55
41.61697,492.47,535.29
41.63704,493.07,537.66
41.65664,490.63,533.59
41.67709,493.29,534.65
41.69542,491.94,536.41
41.71661,489.98,535.28
41.73567,492.35,533.97
41.75625,490.46,533.51
41.77571,492.26,533.33
41.79664,491.92,533.94
41.81598,492.87,535.19
41.83619,490.95,533.08
41.85517,490.35,532.49
41.87579,492.56,533.51
41.89584,491.26,533.24
41.91534,493.13,531.29
41.93606,490.77,532.48
41.95571,492.26,533.07
41.97591,492.75,533.69
41.99688,493.60,533.11
42.01575,493.45,533.23
42.03638,489.74,533.07
42.05630,492.76,532.43
42.07584,490.69,530.83
42.09635,489.60,533.35
42.11524,490.04,533.72
42.13684,492.73,534.81
42.15624,493.33,536.56
42.17690,493.79,535.29
42.19549,490.67,532.17
42.21689,491.66,524.59
42.23693,491.04,515.48
42.25643,489.84,513.73
42.27647,490.45,512.42
42.29705,492.68,513.66
42.31625,491.95,515.46
42.33802,490.55,517.78
42.35762,491.74,518.05
42.37769,490.25,519.57
42.39752,490.91,522.19
42.41718,492.52,520.48
42.43715,490.16,523.14
42.45676,494.32,522.31
42.47792,494.01,524.30
42.49695,491.88,527.49
42.51723,491.16,528.10
42.53634,493.84,527.41
42.55778,492.95,520.59
42.57670,490.00,507.46
42.59778,491.48,493.91
42.61732,489.50,479.11
42.63628,485.44,464.98
42.65789,482.66,454.05
42.67783,482.87,444.90
42.69624,479.49,435.23
42.71655,479.20,427.76
42.73783,479.66,424.12
42.75780,479.74,419.70
42.77674,480.31,423.16
42.79803,481.64,422.78
42.81701,482.96,427.46
42.83727,484.48,431.80
42.85662,486.90,436.82
42.87637,491.65,442.98
42.89697,490.21,449.11
42.91636,494.15,457.36
42.93785,496.41,465.76
42.95806,495.45,470.74
42.97680,496.84,480.19
42.99807,495.00,485.78
43.01798,496.78,490.11
43.03909,495.13,496.81
43.05808,494.88,502.48
43.07693,497.33,504.80
43.09864,497.57,508.07
43.11838,496.17,510.94
43.13860,498.14,515.44
43.15700,496.68,517.33
43.17713,498.24,517.79
43.19874,499.53,519.85
43.21858,497.23,521.52
43.23700,496.35,522.17
43.25961,494.89,524.54
43.27951,495.62,526.36
43.29849,493.90,526.35
43.31929,491.92,527.62
43.33868,494.21,526.73
43.35996,490.46,526.08
43.37894,491.58,530.35
43.39969,492.94,538.63
43.41814,494.89,543.36
43.43860,494.00,546.51
43.45832,496.80,547.68
43.47897,498.81,545.69
43.49996,497.42,544.00
43.51991,497.42,545.92
43.53959,496.70,544.04
43.55820,497.21,541.40
43.57934,493.31,542.26
43.59890,494.09,541.57
43.61891,493.22,537.47
43.63924,493.84,539.01
43.65879,492.73,533.20
43.67958,492.71,532.08
43.69990,492.85,529.26
43.71844,492.63,528.49
43.73992,491.77,526.02
43.75936,487.79,530.39
43.78295,489.22,551.51
43.79983,489.26,581.93
43.81947,491.16,624.62
43.83883,495.97,656.51
43.85979,495.98,680.86
43.87902,494.87,694.09
43.89874,497.72,692.87
43.91968,497.68,683.28
43.93844,498.74,666.27
43.95970,496.52,649.73
43.97898,497.54,632.91
43.99879,495.96,619.24
44.01971,495.11,607.38
44.03856,494.08,597.61
44.05895,494.86,588.36
44.07909,494.92,581.62
44.09923,491.80,571.42
44.11860,492.55,566.40
44.13887,489.36,558.80
44.15990,490.04,551.93
44.17840,489.73,547.94
44.19810,491.49,547.03
44.21925,489.65,542.59
44.23905,489.54,540.62
44.25821,491.23,539.25
44.27827,492.08,535.69
44.29839,492.43,535.93
44.31939,491.51,532.35
44.33982,492.67,531.31
44.35973,493.16,531.26
44.37906,495.81,531.59
44.39870,494.18,531.92
44.41853,490.55,530.22
44.43990,490.52,530.25
44.45844,492.90,534.02
44.47973,491.56,531.50
44.49973,493.66,529.73
44.51810,493.05,528.97
44.53943,491.51,527.58
44.55900,491.42,531.24
44.57836,493.68,530.72
44.59841,490.73,529.24
44.61832,490.47,527.61
44.63872,493.15,525.80
44.65817,491.94,526.72
44.67889,492.06,529.02
44.69823,490.98,528.82
44.71938,491.33,529.56
44.73895,490.82,529.57
44.75926,491.58,530.55
44.77824,490.63,528.51
44.79855,489.11,531.09
44.81979,491.03,529.77
44.83887,487.91,530.00
44.86096,488.33,530.94
44.87889,489.75,530.48
44.89973,486.65,528.21
44.92026,487.42,527.38
44.93901,487.20,527.19
44.95931,488.55,524.10
44.97901,490.94,526.11
44.99932,488.97,524.91
45.01953,491.79,523.63
45.04080,490.74,526.40
45.06063,489.64,522.26
45.07934,490.83,524.45
45.10071,488.74,524.70
45.11913,490.20,526.09
45.13993,491.98,526.52
45.16109,491.17,525.15
45.18001,492.72,526.91
45.20009,488.94,525.57
45.22149,490.16,527.08
45.24095,490.96,526.02
45.26117,489.05,526.19
45.28168,486.23,525.01
45.30065,489.11,522.20
45.32150,487.26,522.46
45.34080,488.21,523.30
45.36173,488.17,523.43
45.38143,487.39,524.30
45.40186,488.36,524.18
45.42104,493.39,525.33
45.44139,493.35,524.85
45.46000,491.55,524.32
45.48173,492.31,524.60
45.50294,494.42,525.82
45.52236,494.29,526.51
45.54218,490.53,523.16
45.56132,492.62,517.98
45.58245,492.03,509.31
45.60197,492.97,498.70
45.62239,491.55,489.62
45.64226,489.63,474.28
45.66142,487.67,461.66
45.68176,486.24,449.65
45.70163,486.57,440.49
45.72229,484.03,430.07
45.74140,484.42,424.87
45.76162,484.80,420.77
45.78223,484.33,421.37
45.80105,484.24,423.01
45.82234,483.37,427.14
45.84094,485.97,429.07
45.86171,485.33,436.74
45.88138,488.48,444.89
45.90240,483.85,451.82
45.92108,485.01,457.76
45.94236,486.22,464.83
45.96136,486.55,471.89
45.98274,486.79,479.50
46.00299,489.87,486.19
46.02267,490.77,489.88
46.04275,489.94,495.71
46.06189,492.15,499.35
46.08103,492.31,501.87
46.10217,492.33,504.89
46.12177,491.41,508.17
46.14207,491.08,511.47
46.16135,490.99,514.01
46.18253,492.98,519.12
46.20121,491.83,517.92
46.22251,495.38,520.60
46.24124,495.30,520.51
46.26284,494.94,522.68
46.28156,493.31,522.08
46.30141,494.14,522.05
46.32146,492.74,521.86
46.34122,493.37,524.97
46.36358,492.05,524.48
46.38236,492.50,523.44
46.40347,491.70,524.54
46.42289,489.88,524.71
46.44294,491.14,524.25
46.46315,490.14,527.11
46.48227,488.77,526.50
46.50369,486.80,528.16
46.52369,482.34,525.11
46.54354,483.47,529.49
46.56271,482.99,528.06
46.58227,485.79,529.38
46.60357,486.95,526.20
46.62363,485.49,529.03
46.64301,487.02,529.74
46.66318,487.59,530.00
46.68316,485.90,525.86
46.70276,488.63,526.55
46.72388,489.27,531.40
46.74269,490.40,554.27
46.76345,488.50,585.83
46.78226,492.21,625.22
46.80244,488.48,655.72
46.82206,488.81,675.54
46.84344,490.79,675.17
46.86261,489.86,665.65
46.88241,488.48,653.98
46.90203,488.36,640.75
46.92245,487.68,622.86
46.94294,490.81,611.44
46.96280,492.43,597.76
46.98315,488.98,589.01
47.00423,489.00,579.69
47.02417,487.85,570.09
47.04392,489.50,560.52
47.06373,488.36,554.14
47.08456,487.22,551.97
47.10458,491.14,546.48
47.12394,485.66,535.13
47.14487,480.71,517.83
47.16503,478.57,514.58
47.18350,478.17,513.02
47.20432,477.27,516.45
47.22294,481.44,529.09
47.24329,484.78,555.75
47.26486,488.81,594.21
47.28445,492.57,619.97
47.30414,491.55,625.79
47.32462,493.36,618.63
47.34407,490.33,601.84
47.36464,490.61,578.42
47.38465,488.31,559.44
47.40298,489.89,541.25
47.42400,487.98,526.59
47.44452,483.85,518.21
47.46439,487.01,526.76
47.48338,491.73,558.62
47.50296,498.94,592.07
47.52381,504.55,624.28
47.54453,514.58,650.08
47.56466,518.78,655.97
47.58305,519.82,643.90
47.60409,517.39,620.72
47.62440,514.55,589.76
47.64305,507.62,561.13
47.66441,504.91,532.72
47.68409,499.96,514.05
47.70296,498.55,500.87
47.72422,498.34,488.67
47.74277,497.67,484.36
47.76415,498.00,490.79
47.78294,497.12,511.84
47.80276,498.66,544.93
47.82432,499.09,573.25
47.84462,495.29,578.46
47.86431,492.78,565.54
47.88484,489.11,542.15
47.90401,487.36,522.37
47.92388,485.04,502.51
47.94300,480.76,488.94
47.96431,480.40,482.61
47.98434,479.52,479.51
48.00435,479.64,486.43
48.02378,485.48,521.05
48.04418,487.45,557.19
48.06415,487.69,581.27
48.08419,490.24,583.05
48.10462,488.27,570.50
48.12384,488.63,547.42
48.14458,485.15,530.60
48.16434,484.42,515.91
48.18304,480.99,506.21
48.20476,484.38,513.74
48.22388,488.22,534.32
48.24399,490.46,560.75
48.26396,489.45,568.39
48.28428,488.57,559.33
48.30317,490.06,540.31
48.32386,488.97,524.25
48.34368,488.43,506.50
48.36350,485.73,492.24
48.38448,484.39,480.96
48.40415,486.33,474.54
48.42291,487.71,466.17
48.44303,484.96,457.92
48.46453,483.29,461.16
48.48469,481.46,460.07
48.50373,483.70,462.16
48.52352,486.68,463.56
48.54449,488.87,468.47
48.56308,490.54,470.65
48.58315,491.64,480.78
48.60411,490.34,493.47
48.62371,490.44,500.10
48.64432,492.09,499.28
48.66466,492.88,511.21
48.68417,492.97,522.07
48.70462,494.31,529.14
48.72430,495.74,530.03
48.74397,496.94,536.26
48.76368,494.76,539.53
48.78293,495.59,543.05
48.80414,495.69,549.11
48.82312,493.51,552.19
48.84375,488.99,548.39
48.86426,491.61,550.72
48.88302,491.82,536.27
48.90461,492.62,543.28
48.92405,495.46,550.48
48.94433,492.11,556.72
48.96477,495.82,555.85
48.98440,496.25,557.56
49.00291,500.22,551.80
49.02457,495.08,543.85
49.04324,498.60,541.24
49.06365,496.85,535.54
49.08437,494.57,532.00
49.10486,492.32,524.07
49.12286,494.84,528.38
49.14397,494.14,524.12
49.16376,492.66,515.44
49.18405,491.92,518.74
49.20434,494.98,525.67
49.22310,496.80,516.80
49.24417,495.95,522.73
49.26308,498.12,521.07
49.28331,502.38,527.92
49.30435,507.90,535.65
49.32425,507.98,544.07
49.34397,506.74,547.01
49.36442,506.95,547.49
49.38310,509.41,548.28
49.40441,506.69,548.28
49.42410,504.33,548.90
49.44303,506.75,550.50
49.46307,504.49,547.73
49.48324,505.23,549.55
49.50360,501.33,554.31
49.52502,496.24,541.93
49.54445,494.34,543.20
49.56449,495.56,538.11
49.58402,494.78,547.02
49.60398,495.28,544.13
49.62415,492.99,550.37
49.64274,496.14,543.80
49.66430,493.43,542.73
49.68454,491.95,537.34
49.70467,495.33,537.05
49.72460,496.64,534.41
49.74395,493.25,537.16
49.76387,496.85,532.25
49.78407,494.39,532.48
49.80384,493.55,527.10
49.82463,492.21,529.38
49.84315,493.85,525.19
49.86522,495.47,529.32
49.88562,496.41,536.77
49.90507,495.96,533.87
49.92449,493.85,536.16
49.94438,498.74,535.53
49.96556,500.67,539.45
49.98625,505.56,537.08
50.00484,504.05,544.81
50.02511,508.38,552.75
50.04628,506.22,548.48
50.06613,504.03,550.53
50.08587,505.69,544.09
50.10526,504.17,542.75
50.12667,503.30,535.45
50.14574,500.61,540.51
50.16524,497.81,537.50
50.18669,498.10,530.54
50.20673,491.09,522.94
50.22678,489.42,524.53
50.24485,493.30,512.77
50.26611,498.66,502.85
50.28590,497.72,501.21
50.30603,498.99,501.71
50.32633,503.42,500.04
50.34593,502.27,500.21
50.36508,499.33,504.30
50.38511,499.62,504.89
50.40553,496.22,508.07
50.42631,497.05,512.68
50.44598,497.01,511.45
50.46688,498.06,516.15
50.48626,499.40,518.69
50.50760,497.40,520.63
50.52693,494.58,519.33
50.54783,497.80,523.64
50.56690,494.43,524.02
50.58780,492.34,534.46
50.60716,487.05,536.22
50.62716,482.41,541.05
50.64818,479.38,539.65
50.66707,474.95,539.55
50.68699,477.47,542.70
50.70685,473.67,538.46
50.72714,470.46,534.08
50.74813,473.74,536.49
50.76788,480.25,531.30
50.78774,480.65,529.85
50.80749,482.45,534.91
50.82762,487.39,534.28
50.84801,487.10,532.16
50.86864,490.12,536.98
50.88838,485.99,536.51
50.90693,488.84,534.08
50.92850,492.59,532.43
50.94876,494.03,529.97
50.96828,491.54,532.31
50.98718,497.46,536.84
51.00879,499.66,545.43
51.02844,506.72,552.30
51.04821,508.57,551.91
51.06808,510.02,553.10
51.08696,508.11,553.06
51.10777,506.53,551.49
51.12813,510.11,549.42
51.14816,510.77,542.31
51.16733,506.61,542.36
51.18859,504.39,544.96
51.20743,496.14,539.99
51.22803,487.08,528.82
51.24716,479.93,514.91
51.26705,473.02,511.53
51.28714,470.89,506.65
51.30686,471.58,502.62
51.32776,466.43,496.09
51.34810,460.86,505.05
51.36691,460.45,501.30
51.38786,461.15,499.95
51.40714,467.15,498.02
51.42766,472.52,494.83
51.44963,481.01,502.78
51.46781,480.85,503.27
51.48928,487.15,504.05
51.50926,488.78,508.35
51.52899,486.69,511.12
51.54977,489.77,516.95
51.56788,487.45,521.36
51.58853,493.00,522.19
51.60844,492.43,530.05
51.62786,492.19,529.10
51.64939,491.21,529.38
51.66893,493.56,527.87
51.68952,494.81,532.46
51.70825,487.53,539.21
51.72800,484.11,546.41
51.74968,482.27,547.69
51.76798,480.57,544.61
51.78788,484.59,544.41
51.80863,482.60,542.77
51.82841,481.67,545.07
51.84897,484.27,540.39
51.86898,481.12,537.15
51.89032,484.72,540.29
51.91090,486.15,537.79
51.92954,485.26,533.76
51.94917,485.97,530.51
51.96947,488.58,532.59
51.98936,487.02,529.72
52.01044,487.81,531.36
52.02913,491.91,527.98
52.05069,492.12,520.32
52.06922,491.06,505.32
52.08914,493.96,496.39
52.10890,492.63,489.77
52.12992,488.41,488.72
52.15087,488.20,490.36
52.16983,488.86,491.62
52.18900,493.03,493.23
52.20907,490.80,497.59
52.23061,488.08,499.17
52.24950,492.03,499.17
52.27079,488.96,500.30
52.28987,486.42,501.48
52.30904,488.65,507.16
52.33031,486.44,508.14
52.35242,487.99,509.92
52.37158,488.70,511.18
52.39232,489.57,524.69
52.41204,492.36,548.36
52.43245,494.81,557.95
52.45255,492.39,562.57
52.47088,495.81,560.82
52.49213,493.80,561.97
52.51171,494.58,556.86
52.53117,493.86,555.59
52.55123,493.69,549.41
52.57238,493.83,547.44
52.59228,492.52,542.15
52.61247,492.91,538.53
52.63126,491.41,535.09
52.65244,494.94,528.03
52.67251,493.29,527.67
52.69244,496.57,524.45
52.71220,496.18,523.58
52.73231,492.34,519.32
52.75129,495.77,521.99
52.77214,494.76,521.67
52.79256,494.10,520.52
52.81211,491.93,521.08
52.83212,491.03,519.27
52.85234,491.74,523.61
52.87131,491.87,519.46
52.89142,492.88,521.67
52.91136,490.09,520.98
52.93169,489.53,520.17
52.95168,495.82,528.73
52.97122,502.69,536.74
52.99170,508.11,538.35
53.01274,509.73,539.48
53.03198,513.56,541.83
53.05264,512.17,542.55
53.07218,512.24,536.76
53.09097,508.42,535.48
53.11182,509.83,537.86
53.13171,504.86,533.30
53.15217,503.01,531.05
53.17173,502.25,534.31
53.19067,502.14,532.25
53.21144,501.34,528.01
53.23100,499.82,530.00
53.25261,500.16,529.90
53.27274,501.17,531.27
53.29296,498.73,531.25
53.31191,494.79,532.60
53.33213,496.19,532.99
53.35198,497.33,533.75
53.37179,496.52,527.88
53.39106,496.38,525.37
53.41243,502.38,524.85
53.43330,504.05,526.04
53.45374,507.76,527.45
53.47248,506.94,530.69
53.49374,502.65,535.05
53.51310,503.24,539.44
53.53191,500.94,545.78
53.55389,500.50,535.33
53.57399,496.21,518.17
53.59353,488.54,497.37
53.61368,484.71,480.44
53.63379,481.68,470.05
53.65280,476.74,467.83
53.67232,477.74,464.71
53.69250,476.38,466.90
53.71212,476.80,467.26
53.73239,480.47,469.87
53.75373,478.74,473.52
53.77325,474.08,475.46
53.79306,479.06,477.06
53.81347,478.03,481.29
53.83195,480.58,483.93
53.85376,481.29,487.35
53.87281,484.34,491.32
53.89267,484.23,493.64
53.91263,487.25,495.43
53.93262,485.89,499.96
53.95188,489.22,502.43
53.97290,489.95,502.29
53.99405,489.80,505.95
54.01273,489.18,509.07
54.03210,490.25,510.89
54.05327,488.19,513.98
54.07224,484.17,515.55
54.09345,486.89,518.50
54.11262,484.55,520.79
54.13203,483.36,525.89
54.15280,480.47,524.02
54.17292,485.34,531.55
54.19304,482.80,544.96
54.21308,477.68,558.88
54.23339,473.95,566.67
54.25345,475.56,573.88
54.27265,476.43,574.34
54.29277,478.40,578.65
54.31341,477.46,573.39
54.33219,479.81,574.38
54.35356,481.13,570.08
54.37323,481.53,571.44
54.39281,486.19,569.44
54.41299,487.44,565.35
54.43353,488.30,566.52
54.45194,488.15,562.44
54.47317,489.24,560.13
54.49265,489.91,556.23
