Program Time [s],data 0,data 1
13.5869,401.95,546.04
13.6069,404.16,545.83
13.6269,405.93,542.47
13.6469,404.54,542.57
13.6667,411.64,544.86
13.687,411.91,544.29
13.7069,407.93,540.83
13.7269,408.14,540.46
13.747,407.91,539.57
13.7669,405.13,539.86
13.787,406.3,539.49
13.807,406.44,538.19
13.8267,404.55,540.15
13.8469,400.64,541.92
13.8668,401.32,542.14
13.8869,401.65,544.71
13.907,399.92,544.97
13.927,397.74,544.17
13.9469,398.59,542.14
13.967,398.67,539.51
13.9869,401.14,539.01
14.0068,402.71,537.41
14.0267,403.17,535.93
14.047,402.13,534.14
14.0671,402.11,533.51
14.0869,402.89,531.01
14.1068,404.31,528.21
14.127,404.25,525.37
14.1469,404.2,524.49
14.1667,404.16,523.39
14.1866,402.73,521.32
14.2069,402.58,521.25
14.2268,403.06,521.6
14.2467,402.65,520.68
14.2667,402.52,519.95
14.2867,404.22,520.56
14.3066,403.57,520.04
14.3267,401.26,520.24
14.3468,402.41,520.39
14.3667,401.53,522.71
14.3869,401.02,523.17
14.407,400.42,523.34
14.4268,398.33,525.47
14.4469,397.67,525.77
14.4667,397.53,526.42
14.4867,397.63,528.94
14.5067,397.7,529.95
14.5269,396.96,530.76
14.5469,397.17,531.41
14.5669,397.34,531.53
14.5867,397.47,530.42
14.607,396.37,531.14
14.6267,396.9,531.71
14.6469,396.32,531.77
14.6667,396.66,531.41
14.687,397.72,531.93
14.7071,398.78,531.74
14.727,399.42,533.4
14.7469,399.94,532.92
14.7668,399.75,531.33
14.7869,400,532.27
14.8068,399.8,531.81
14.8269,399.24,531.45
14.8468,398.79,531.16
14.8671,399.23,531.93
14.8867,397.59,531.54
14.9069,397.67,531.63
14.9268,398.34,531.91
14.9468,398.07,531.33
14.9667,399.65,531.46
14.9869,400.32,531.37
15.0069,401.06,530.89
15.0267,401.05,530.92
15.0467,401.44,530.93
15.0667,401.35,530.95
15.0866,402.28,531.56
15.1066,401.62,534.45
15.1267,394.7,534.16
15.1468,381.56,532.53
15.168,363.85,528.02
15.1879,344.88,525.42
15.208,329.1,521.73
15.2279,314.88,517.79
15.2478,302.91,510.83
15.2677,297.72,503.46
15.2877,295.98,496.57
15.3079,296.98,489.66
15.3279,301.19,485.33
15.3478,306.95,482.46
15.3677,314.16,481.37
15.3878,321.93,482.09
15.4077,330.14,484.28
15.4279,338.11,487.82
15.4477,345.09,491.46
15.4679,352.27,496.37
15.4879,357.42,500.09
15.5077,361.73,503.87
15.5279,366.59,506.9
15.5479,371.87,509.12
15.5678,375.3,512.7
15.5879,379.04,516.36
15.6079,381.63,519.29
15.628,384.9,521.23
15.6478,388.12,522.18
15.6678,391.3,524.15
15.6877,392.44,525.12
15.7077,394.15,525.89
15.7277,394.92,527.51
15.7478,395.54,529.01
15.7677,397.23,529.81
15.7877,398.98,530.45
15.8077,399.59,530.96
15.8277,400.07,532.37
15.8478,400.66,532.49
15.8677,401.52,533.39
15.8876,402.82,534.92
15.9079,402.66,534.73
15.9279,410.52,539.39
15.9479,428.22,549.31
15.968,452.18,563.65
15.9876,479.14,577.52
16.0078,505.71,587.81
16.0279,529.77,593.85
16.0478,541.42,593.68
16.0679,543.73,591.14
16.0877,539.59,587.32
16.1078,532.87,583.25
16.1277,523.3,578.8
16.1479,512.44,574.24
16.1679,501.55,570.39
16.1878,490.44,566.91
16.2079,481.35,563.33
16.228,472.68,560.47
16.2479,465.54,557.37
16.2679,457.84,554.1
16.288,450.87,551.68
16.3077,444.09,548.54
16.3288,437.88,548.63
16.3486,433.1,545.91
16.3688,428.68,544.73
16.3889,427.14,543.58
16.4098,423.72,542.66
16.4298,422.57,540.93
16.4496,420.86,539.15
16.4698,418.49,539.12
16.4899,417.59,539.89
16.5098,416.07,538.71
16.5307,415.86,538.77
16.5508,415.49,538.82
16.5719,416.99,539.25
16.5917,416.59,538.8
16.6118,416.87,539.24
16.6316,416.3,539.39
16.6517,417.24,539.12
16.6717,417.59,539.49
16.6917,418.67,538.59
16.7127,419.74,538.27
16.7329,420.39,538.62
16.7529,421.71,538.7
16.7728,421.77,537.56
16.7929,422.62,536.65
16.8127,422.69,537.12
16.8327,422.35,536.69
16.8527,421.48,536.15
16.8729,420.99,536.52
16.8928,420.59,536.62
16.9128,420.87,537.3
16.9328,421.3,536.84
16.9528,421.24,537.27
16.9729,421.39,537.62
16.9927,421.91,538.29
17.0138,422.53,537.03
17.0337,422.22,536.63
17.0539,423.18,536.9
17.0738,424.54,536.52
17.0939,424.63,536.62
17.1136,425.71,536.89
17.1346,425.97,537.91
17.1547,425.17,537.93
17.1757,424.54,538.75
17.1956,423.63,539.2
17.2156,423.5,539.36
17.2359,424.2,539.09
17.2568,423.76,539.47
17.2768,424.41,540.17
17.2968,424.93,539.94
17.3167,423.74,540.35
17.3377,423.59,541.28
17.3576,424.08,541.43
17.3776,423.46,541.74
17.3977,422.77,541.99
17.4179,422.41,541.39
17.438,422.33,540.71
17.4578,421.47,540.77
17.4778,419.97,540.62
17.4979,419.78,540.09
17.5178,420.22,540.48
17.5376,420.38,539.78
17.5578,420.3,539.62
17.5777,420.44,539.5
17.5978,420.95,539.4
17.6179,421.96,539.72
17.6378,421.37,539.18
17.6578,421.7,539.14
17.6779,420.16,539.51
17.6978,420.73,538.61
17.7179,420.98,538.69
17.7379,421.58,538.75
17.7577,421.87,538.8
17.7778,421.89,538.44
17.7978,421.32,537.55
17.8179,421.45,537.44
17.8379,422.56,536.95
17.8576,422.25,537.16
17.8778,422.2,537.33
17.8977,422.56,537.66
17.9179,421.65,537.13
17.9379,421.92,538.11
17.9578,421.73,538.08
17.9779,419.79,538.67
17.9977,418.43,537.93
18.0178,418.14,537.95
18.0378,417.52,537.36
18.0579,417.81,536.69
18.0779,418.45,535.95
18.0979,418.56,535.16
18.1177,419.05,534.93
18.1378,418.04,534.54
18.1577,418.43,534.23
18.1778,419.74,534.19
18.1977,420.8,534.15
18.2177,420.64,533.72
18.2376,416.91,534.58
18.2577,407.73,535.06
18.278,391.98,531.25
18.2979,371.79,528.6
18.3177,353.63,525.88
18.3379,336.1,519.5
18.3578,322.48,513
18.3778,313.19,505.4
18.3976,306.95,499.32
18.4178,303.56,493.66
18.4378,304.65,489.53
18.4578,307.12,489.02
18.4777,312.69,489.82
18.4978,320.96,491.45
18.5178,329.36,493.76
18.5378,338.89,496.41
18.5578,348.31,499.13
18.5779,356.25,502.5
18.5978,363.6,505.8
18.6179,371.08,510.64
18.6378,377.46,513.71
18.6578,383.17,516.97
18.6789,387.54,520.38
18.6998,390.63,522.7
18.7197,393.7,523.96
18.7398,395.96,526.57
18.7598,397.97,527.85
18.7798,399.58,529.68
18.7996,400.66,530.55
18.8198,401.73,531.44
18.8398,402.38,531.75
18.8599,404.71,532.4
18.8797,405.77,533.32
18.9008,406.81,534.26
18.9206,407.25,535
18.9406,407.4,535.8
18.9607,407.92,535.64
18.9817,406.74,536.11
19.0016,405.79,536.49
19.0217,405.63,536.79
19.0416,404.9,536.23
19.0617,405.52,536.39
19.0817,405.62,536.71
19.1027,406.3,537.57
19.1236,416.44,543.25
19.1446,435.15,552.8
19.1647,459.92,565.84
19.1847,486.94,577.87
19.2046,510.95,586.9
19.2246,528.56,590.52
19.2456,536.45,590.22
19.2657,536.96,587.97
19.2859,532.77,583.38
19.3059,524.41,578.9
19.3258,515.13,574.12
19.3459,504.7,569.9
19.3656,494.36,565.32
19.3856,483.69,561.25
19.4056,474.15,556.6
19.4269,465.32,552.88
19.4468,458.06,550.11
19.4667,451.05,547.89
19.488,445.24,545.71
19.5075,438.99,544.57
19.5275,434.19,543.05
19.5476,429.35,541.84
19.5675,426.08,541.07
19.588,423.07,539.66
19.6079,420.45,539.33
19.6277,418.16,539.06
19.6476,415.93,538.45
19.6677,414.94,537.96
19.6876,413.76,537.37
19.7077,412,536.69
19.7277,411,537.16
19.7486,410.4,536.72
19.7687,410.12,536.58
19.7887,410.1,536.46
19.8087,410.28,536.17
19.8288,409.62,535.74
19.8485,408.9,535.99
19.8686,408.32,535.39
19.8886,408.45,535.51
19.9087,408.36,535.21
19.9296,408.89,534.77
19.9496,409.71,534.61
19.9696,410.57,534.69
19.9895,411.06,534.55
20.0097,410.84,535.04
20.0296,410.08,535.03
20.0495,409.46,534.63
20.0696,409.37,535.3
20.0897,409.29,535.44
20.1106,410.04,535.95
20.1308,411.03,535.76
20.1517,413.22,536.61
20.1726,415.78,536.29
20.1935,416.22,536.43
20.2135,417.98,535.94
20.2336,418.98,536.36
20.2536,419.79,536.88
20.2736,421.23,536.31
20.2936,422.18,536.45
20.3137,422.75,536.56
20.3345,421.8,536.05
20.3546,422.44,535.84
20.3746,422.55,535.27
20.3957,422.64,535.22
20.4166,422.51,535.77
20.4378,420.81,536.42
20.4587,418.85,536.53
20.4787,417.68,536.43
20.4999,416.14,535.94
20.5206,414.71,535.75
20.5406,413.57,536
20.5606,411.66,535.8
20.5808,411.13,535.44
20.6007,410.7,536.15
20.6206,409.76,535.72
20.6409,409.21,536.18
20.6619,408.77,536.54
20.6818,408.21,536.63
20.7018,406.77,537.11
20.7217,406.62,537.69
20.7416,406.49,537.55
20.7617,406.19,537.84
20.7815,405.76,538.07
20.8019,405.8,538.06
20.8217,405.64,537.45
20.8418,404.91,538.16
20.8617,403.73,538.13
20.8816,403.59,538.1
20.9019,404.07,536.88
20.9218,403.65,536.3
20.9417,404.32,535.84
20.9615,404.26,535.07
20.9816,404.41,534.86
21.0025,404.13,534.09
21.0226,403.9,533.27
21.0436,404.12,533.22
21.0645,402.9,533.17
21.0845,403.12,533.14
21.1046,402.69,533.11
21.1246,403.15,532.89
21.1448,403.12,533.11
21.1646,402.9,533.29
21.1849,403.12,532.63
21.2047,402.3,532.7
21.2248,402.04,532.76
21.2448,401.43,532.81
21.2645,401.14,533.25
21.2848,400.71,533.2
21.3048,400.97,533.36
21.3246,400.78,533.69
21.3448,401.62,533.75
21.3645,401.5,534.2
21.3846,401.4,534.76
21.4046,401.92,534.81
21.4245,401.73,534.25
21.4446,401.19,534
21.4655,401.75,534.4
21.4856,401.6,534.32
21.5065,399.28,534.05
21.5266,388.42,530.04
21.5468,371.74,520.83
21.5669,353.99,510.67
21.5865,335.99,499.13
21.6066,320.19,489.11
21.6265,306.76,481.49
21.6465,297.6,478.39
21.6666,292.08,477.51
21.6866,291.07,478.41
21.7076,292.25,480.73
21.7286,296.8,485.38
21.7495,303.44,490.31
21.7697,309.55,495.04
21.7906,319.24,499.84
21.8108,328.19,504.27
21.8305,337.96,507.81
21.8506,345.96,510.85
21.8716,354.57,514.08
21.8916,362.66,516.47
21.9115,370.53,518.37
21.9316,376.42,520.7
21.9516,382.54,523.56
21.9716,387.83,525.65
21.9915,392.26,527.32
22.0116,396.21,529.45
22.0326,399.57,531.16
22.0535,402.05,533.13
22.0736,404.24,533.7
22.0945,406.4,533.76
22.1145,408.12,533.61
22.1346,408.69,534.29
22.1546,410.75,535.03
22.1745,412.6,535.22
22.1956,414.48,535.78
22.2155,415.99,536.22
22.2355,416.39,536.38
22.2558,415.71,537.7
22.2757,415.17,538.36
22.2957,415.94,539.69
22.3156,416.75,539.35
22.3367,419,538.88
22.3567,419.2,538.51
22.3764,419.96,539
22.3966,421.37,538.8
22.4166,421.49,539.04
22.4367,421.6,539.43
22.4566,421.48,539.55
22.4767,421.18,539.44
22.4967,420.74,539.75
22.5166,421.2,540
22.5367,423.96,540.4
22.5567,437.97,545.72
22.5766,460.57,553.98
22.5965,487.86,561.38
22.6166,516.09,567.9
22.6375,538.67,571.52
22.6575,550.14,572.02
22.6785,550.51,570.22
22.6985,546.41,567.17
22.7185,538.13,563.94
22.7385,528.3,560.35
22.7587,518.04,557.28
22.7787,507.63,554.42
22.7988,498.31,552.14
22.8186,489.04,550.11
22.8389,480.44,548.09
22.8586,472.95,546.27
22.8785,465.96,544.62
22.8988,458.57,544.29
22.9187,452.85,544.03
22.9385,448.08,543.63
22.9587,442.87,543.3
22.9786,438.09,543.64
22.9985,434.47,543.11
23.0187,431.98,542.29
23.0386,428.58,542.23
23.0587,426.27,542.19
23.0787,424.01,541.35
23.0986,422.81,540.88
23.1187,421.25,540.5
23.1389,420.8,540.6
23.1585,418.84,540.08
23.1787,417.07,540.07
23.1985,415.86,539.45
23.2188,414.89,539.16
23.2387,415.31,538.93
23.2585,415.85,537.94
23.2788,416.08,537.55
23.2985,415.06,537.44
23.3186,415.05,537.56
23.3387,414.04,537.84
23.3587,413.23,537.48
23.3787,413.19,537.78
23.3985,419.15,542.82
23.4188,425.12,546.06
23.4385,428.29,547.85
23.4586,430.24,548.28
23.4786,430.79,548.62
23.4986,430.83,547.9
23.5186,429.66,547.72
23.5387,429.13,546.77
23.5585,428.11,546.02
23.5785,426.88,545.02
23.5985,424.91,544.21
23.6186,423.53,543.17
23.6387,421.82,543.74
23.6587,420.06,543.99
23.6785,419.45,541.79
23.6985,418.96,540.23
23.7185,418.17,538.79
23.7385,416.73,537.43
23.7585,417.19,537.34
23.7785,417.15,537.27
23.7985,417.32,536.62
23.8185,416.46,536.3
23.8385,416.16,536.04
23.8586,416.93,535.83
23.8795,415.94,535.46
23.9006,413.76,534.97
23.9205,411.8,534.78
23.9416,411.24,534.82
23.9627,409.8,534.86
23.9826,408.24,534.89
24.0024,406.79,534.91
24.0228,405.63,534.73
24.0424,404.3,534.58
24.0627,403.44,534.87
24.0826,403.16,534.49
24.1037,402.92,534.79
24.1237,402.94,534.63
24.1435,402.55,535.11
24.1636,401.44,535.29
24.1839,401.75,535.63
24.2037,401,535.9
24.2235,402,535.72
24.2435,402.6,536.18
24.2635,402.68,535.54
24.2835,401.94,535.23
24.3036,401.76,534.79
24.3246,401.2,534.83
24.3455,401.96,534.46
24.3655,402.77,534.17
24.3856,403.22,533.74
24.4055,403.57,532.99
24.4254,402.66,532.99
24.4468,403.53,534.19
24.4669,404.02,534.15
24.4866,404.62,533.72
24.5067,404.69,533.38
24.5265,403.96,533.1
24.5467,404.16,532.88
24.5668,403.53,532.11
24.5866,403.62,532.48
24.6078,404.7,533.19
24.6278,405.56,533.35
24.6478,405.85,533.28
24.6677,406.68,532.62
24.6878,407.54,532.3
24.7075,408.43,532.44
24.7275,407.95,532.95
24.7476,408.36,532.96
24.7676,408.69,532.37
24.7885,409.55,531.7
24.8085,410.64,531.16
24.8284,410.51,531.52
24.8484,410.61,531.22
24.8686,410.89,531.18
24.8896,412.51,530.74
24.9097,414.61,530.19
24.9307,415.09,529.35
24.9506,414.27,530.48
24.9705,409.62,532.19
24.9906,397.29,533.15
25.0105,379.83,534.52
25.0315,359.27,533.82
25.0515,340.21,527.45
25.0716,324.77,519.76
25.0925,314.42,513.01
25.1125,307.13,505.01
25.1325,303.11,499.61
25.1535,302.69,495.48
25.1746,304.95,494.19
25.1956,309.96,494.95
25.2165,314.57,496.76
25.2365,320.65,499.01
25.2565,328.72,502.61
25.2776,336.98,506.29
25.2985,344.38,509.03
25.3187,352.11,511.22
25.3387,360.48,513.78
25.3587,367.39,516.22
25.3787,373.31,518.38
25.3985,379.25,520.5
25.4186,383,522.6
25.4386,386.2,524.28
25.4587,390.36,525.43
25.4787,393.69,526.34
25.4985,395.55,527.07
25.5186,398.44,528.06
25.5385,400.35,528.85
25.5587,402.08,528.88
25.5784,404.47,528.9
25.5984,406.37,529.52
25.6184,407.1,530.02
25.6385,408.28,529.81
25.6585,410.22,530.45
25.6794,410.98,530.56
25.6994,410.78,531.45
25.7195,410.83,532.96
25.7394,420.06,535.37
25.7596,438.05,540.69
25.7807,462.84,544.75
25.8016,489.87,545.8
25.8215,515.5,546.44
25.8416,537.8,547.15
25.8615,550.04,546.12
25.8814,553.23,544.3
25.9014,549.58,542.44
25.9214,542.87,541.55
25.9414,533.09,540.64
25.9617,522.08,539.11
25.9816,510.06,538.49
26.0016,499.65,538.79
26.0225,489.72,539.03
26.0435,479.57,539.43
26.0645,471.26,543.14
26.0844,463.01,546.11
26.1044,455.81,547.89
26.1247,449.45,547.91
26.1446,443.56,547.33
26.1644,437.44,545.66
26.1848,432.16,544.53
26.2047,427.12,543.22
26.2246,423.3,542.18
26.2446,419.24,540.34
26.2645,416.39,539.48
26.2847,414.31,538.38
26.3046,412.85,537.7
26.3245,411.28,537.16
26.3446,409.22,535.13
26.3645,407.78,533.9
26.3847,406.02,533.52
26.4046,404.62,533.02
26.4246,401.9,532.62
26.4447,400.92,531.29
26.4644,400.33,531.23
26.4847,400.07,530.79
26.5046,399.45,531.63
26.5247,399.76,531.5
26.5445,400.01,531.6
26.5644,400.21,532.08
26.5855,400.37,532.27
26.6057,401.29,533.21
26.6257,401.63,532.97
26.6456,401.91,532.98
26.6655,403.53,532.58
26.6854,403.42,532.46
26.7065,403.54,532.57
26.7276,404.43,532.06
26.7474,404.14,532.05
26.7675,404.51,531.64
26.7874,405.41,532.31
26.8075,405.13,532.65
26.8285,406.9,533.52
26.8494,408.52,534.41
26.8704,410.42,534.33
26.8905,411.93,533.67
26.9106,413.15,533.53
26.9306,414.72,533.23
26.9506,415.17,533.38
26.9707,416.14,533.1
26.9906,416.91,532.68
27.0106,417.33,532.95
27.0308,416.86,533.16
27.0506,416.29,532.93
27.0706,416.63,533.34
27.0906,417.11,534.07
27.1105,417.48,534.06
27.1307,418.39,534.85
27.1506,418.11,535.48
27.1705,417.29,535.58
27.1915,418.23,536.47
27.2126,419.18,536.97
27.2325,417.95,537.38
27.2525,418.76,537.5
27.2725,419.21,537.6
27.2926,419.97,537.68
27.3126,420.37,537.15
27.3335,420.9,537.52
27.3535,421.12,536.61
27.3734,421.29,536.09
27.3936,420.84,535.67
27.4135,421.07,535.34
27.4336,421.05,535.47
27.4535,421.84,535.98
27.4736,421.28,535.58
27.4935,420.82,535.26
27.5134,420.66,535.61
27.5344,420.72,535.49
27.5545,420.98,535.19
27.5746,421.18,534.75
27.5946,422.35,534.4
27.6145,422.48,535.52
27.6346,422.58,535.42
27.6544,423.07,535.33
27.6746,423.05,535.27
27.6946,422.04,535.61
27.7146,420.63,535.69
27.7345,420.31,534.95
27.7546,419.85,535.36
27.7745,420.28,535.69
27.7946,421.22,534.75
27.8146,421.78,535.4
27.8347,422.82,536.12
27.8546,422.86,538.1
27.8746,423.29,538.48
27.8945,423.43,537.78
27.9146,422.34,536.83
27.9348,422.87,536.46
27.9548,423.3,536.57
27.9744,423.04,536.25
27.9943,423.03,537
28.0144,420.23,539
28.0343,409.38,544
28.0544,391.7,550.2
28.0744,370.56,557.36
28.0944,349.25,559.69
28.1144,330,556.35
28.1344,315.4,548.48
28.1545,304.72,538.38
28.1745,297.98,527.71
28.1944,295.38,519.37
28.2144,295.3,513.49
28.2344,299.04,508.19
28.2543,304.44,504.56
28.2745,310.35,502.64
28.2944,317.48,501.72
28.3144,324.98,501.77
28.3344,333.79,502.82
28.3546,341.03,505.05
28.3746,348.22,507.24
28.3944,355.18,509.99
28.4145,362.74,512.8
28.4345,369.39,515.44
28.4545,375.92,518.95
28.4746,382.73,521.16
28.4946,387.39,522.93
28.5144,392.11,523.74
28.5346,396.49,525.59
28.5544,399.59,526.87
28.5746,401.87,528.7
28.5946,404.9,529.76
28.6144,406.52,529.81
28.6345,407.61,530.45
28.6547,408.89,531.36
28.6746,410.51,531.69
28.6944,412.61,532.35
28.7144,414.29,532.68
28.7345,415.23,532.54
28.7545,415.78,532.83
28.7746,416.63,533.47
28.7944,417.3,534.57
28.8143,426.44,535.46
28.8347,443.95,535.57
28.8544,465.56,536.85
28.8744,491.85,539.48
28.8944,519.08,543.99
28.9144,545.06,547.99
28.9344,563.65,552.19
28.9545,572.32,555.15
28.9745,572.06,556.32
28.9944,566.65,556.06
29.0144,558.52,553.45
29.0344,548.01,551.96
29.0546,536.61,549.97
29.0744,524.69,549.97
29.0946,515.15,551.78
29.1143,506.92,553.02
29.1345,498.14,552.82
29.1545,489.11,552.45
29.1744,481.09,550.96
29.1946,474.07,549.77
29.2144,466.46,549.02
29.2354,461.96,548.61
29.2556,456.77,547.49
29.2754,452.22,546.19
29.2964,447.97,546.15
29.3163,444.58,546.92
29.3363,441.06,546.94
29.3565,437.45,545.95
29.3774,435.16,545.16
29.3983,432.33,544.53
29.4184,430.66,543.42
29.4384,428.13,542.54
29.4583,425.9,541.63
29.4783,424.32,540.9
29.4984,424.06,540.52
29.5185,423.25,540.02
29.5387,423.8,539.82
29.5584,422.84,538.05
29.5785,420.47,537.44
29.5983,420.58,536.95
29.6187,419.26,537.56
29.6385,419.81,536.85
29.6586,419.85,536.28
29.6783,419.48,535.62
29.6984,418.58,534.9
29.7185,418.27,534.52
29.7383,417.41,534.22
29.7585,417.53,534.37
29.7785,417.62,534.9
29.7985,416.9,535.12
29.8193,416.12,535.09
29.8393,415.7,534.88
29.8594,415.96,535.5
29.8793,415.57,536.2
29.8994,415.25,536.76
29.9196,413.8,536.81
29.9395,413.64,536.85
29.9595,413.31,536.48
29.9806,413.45,535.58
30.0014,413.36,535.07
30.0224,411.89,534.65
30.0434,409.31,535.12
30.0634,407.05,535.7
30.0843,405.24,535.76
30.1043,404.39,535.61
30.1243,403.71,536.49
30.1445,402.17,536.79
30.1643,401.54,537.03
30.1845,401.63,537.22
30.2046,400.9,536.98
30.2245,401.32,536.58
30.2445,401.26,536.27
30.2644,400.61,536.41
30.2844,400.29,536.13
30.3046,398.83,535.5
30.3245,399.26,535.8
30.3446,399.01,535.44
30.3643,399.01,535.35
30.3846,399.01,535.08
30.4045,398.81,534.87
30.4245,398.84,534.69
30.4445,399.28,534.75
30.4643,400.22,535.4
30.4845,400.38,535.32
30.5045,400.7,535.66
30.5247,400.36,535.33
30.5446,400.09,535.26
30.5643,400.67,535.61
30.5846,400.74,535.29
30.6045,400.59,535.03
30.6246,400.27,534.82
30.6446,399.82,534.26
30.6643,399.45,534.01
30.6846,398.96,534.01
30.7043,398.77,534
30.7245,399.42,535
30.7453,400.13,535.6
30.7654,400.31,535.88
30.7853,400.45,535.71
30.8053,399.76,535.96
30.8254,400.2,536.17
30.8453,400.36,535.94
30.8653,399.89,535.95
30.8864,399.51,535.76
30.9074,401.21,535.41
30.9273,402.57,534.73
30.9473,401.45,533.58
30.9673,401.36,534.26
30.9873,400.89,534.01
31.0073,401.71,534.01
31.0273,401.57,534.61
31.0473,401.46,536.09
31.0674,401.56,536.87
31.0886,401.05,538.1
31.1085,401.44,538.68
31.1282,401.75,538.74
31.1482,402.4,538.79
31.1683,403.32,538.63
31.1883,403.66,537.71
31.2083,404.53,536.77
31.2285,405.02,536.01
31.2483,406.02,535.61
31.2684,406.01,535.49
31.2885,406.01,535.79
31.3085,406.81,535.83
31.3285,407.45,535.47
31.3483,407.16,534.97
31.3685,407.13,533.98
31.3886,407.1,533.38
31.4083,407.48,533.51
31.4286,407.78,533.4
31.4483,406.43,533.92
31.4685,405.54,533.54
31.4883,405.43,533.63
31.5083,405.75,533.51
31.5285,406,532.6
31.5484,406.2,531.28
31.5684,405.96,531.63
31.5884,405.37,531.7
31.6085,405.89,531.56
31.6285,406.11,532.05
31.6484,406.09,532.04
31.6695,405.07,532.23
31.6895,405.86,531.98
31.7092,406.09,531.79
31.7295,406.07,531.63
31.7496,406.06,531.3
31.7695,405.84,531.04
31.7895,406.68,531.63
31.8096,399.94,532.31
31.8295,386.35,531.85
31.8492,367.88,529.68
31.8693,346.91,527.34
31.8893,326.32,523.07
31.9093,310.06,516.86
31.9293,297.05,513.09
31.9494,288.44,509.27
31.9703,284.55,506.82
31.9903,283.04,506.05
32.0104,285.43,506.24
32.0303,290.15,506.19
32.0503,295.72,506.75
32.0705,301.97,507.6
32.0905,309.78,508.08
32.1105,319.22,510.27
32.1307,328.98,512.61
32.1506,336.58,514.69
32.1715,345.07,517.55
32.1915,353.45,520.04
32.2113,359.16,522.23
32.2312,365.33,523.59
32.2513,370.86,525.67
32.2714,375.49,527.54
32.2914,379.99,528.83
32.3114,383.79,529.66
32.3314,387.84,530.33
32.3513,391.27,531.06
32.3725,393.81,531.25
32.3925,397.65,531.4
32.4125,400.92,531.12
32.4324,402.94,531.3
32.4525,404.75,531.84
32.4723,406.4,531.27
32.4924,407.32,531.62
32.5135,409.26,532.49
32.5335,410.4,532.59
32.5532,410.72,533.88
32.5735,420.18,535.5
32.5933,437.74,537.8
32.6135,462.39,539.64
32.6336,490.52,540.91
32.6533,519.41,543.73
32.6733,543.93,549.18
32.6932,557.94,552.55
32.7133,562.36,553.84
32.7332,560.08,553.67
32.7535,554.07,552.94
32.7733,545.25,551.55
32.7933,535.2,549.84
32.8135,524.76,548.47
32.8332,516.41,550.58
32.8535,509.53,553.66
32.8734,501.82,554.53
32.8935,493.86,554.42
32.9135,485.49,552.74
32.9336,477.79,551.19
32.9535,469.83,548.75
32.9735,463.07,547.2
32.9935,456.65,545.56
33.0135,451.12,544.25
33.0332,446.1,543.2
33.0536,441.48,542.76
33.0737,437.78,541.61
33.0935,435.23,541.29
33.1135,432.38,540.43
33.1334,430.9,538.94
33.1535,428.72,538.75
33.1735,426.98,538.8
33.1935,425.38,538.64
33.2135,423.51,538.31
33.2334,421.21,537.85
33.2535,419.36,537.48
33.2735,418.89,537.18
33.2934,417.91,536.55
33.3134,417.13,536.64
33.3332,416.5,536.11
33.3534,416.2,535.09
33.3735,414.96,534.67
33.3933,414.17,534.34
33.4135,413.34,534.47
33.4334,414.47,534.38
33.4535,414.98,535.1
33.4736,416.18,535.48
33.4935,416.54,536.18
33.5136,416.84,536.55
33.5335,417.27,536.84
33.5535,416.81,537.07
33.5735,416.45,537.06
33.5935,415.36,537.05
33.6134,416.09,536.64
33.6333,415.07,536.11
33.6535,416.06,536.29
33.6734,416.85,535.63
33.6934,417.28,535.3
33.7134,417.42,535.64
33.7332,417.54,535.71
33.7534,416.63,535.57
33.7735,415.7,535.46
33.7935,415.36,534.97
33.8135,414.89,534.77
33.8333,415.51,535.42
33.8535,416.21,535.33
33.8735,415.97,535.47
33.8935,415.97,535.37
33.9134,416.18,534.7
33.9333,415.54,534.56
33.9534,415.43,534.05
33.9733,414.55,534.24
33.9935,415.24,533.39
34.0135,414.99,533.51
34.0333,414.59,533.41
34.0535,414.47,533.93
34.0733,414.58,533.94
34.0935,414.46,533.35
34.1134,415.37,533.48
34.1335,415.3,533.19
34.1535,416.04,533.15
34.1734,416.63,533.32
34.1934,416.1,533.66
34.2134,415.88,534.12
34.2333,416.31,534.3
34.2533,416.85,534.24
34.2734,416.48,534.59
34.2934,416.18,534.47
34.3132,416.54,534.78
34.3334,416.64,534.82
34.3534,415.91,535.46
34.3732,414.93,535.97
34.3932,414.14,535.37
34.4134,413.91,534.7
34.4335,413.53,534.36
34.4534,414.22,533.49
34.4734,414.38,533.19
34.4934,414.5,533.35
34.5134,414.8,533.48
34.5335,415.24,533.79
34.5534,415.79,534.23
34.5733,414.44,533.58
34.5933,414.15,533.47
34.6132,413.92,533.37
34.6332,413.73,532.7
34.6535,414.39,532.96
34.6734,415.11,533.57
34.6935,415.09,533.65
34.7132,415.07,533.72
34.7335,415.06,534.18
34.7534,415.65,534.54
34.7734,415.52,535.03
34.7935,416.01,534.63
34.8135,416.81,534.1
34.8333,415.65,533.48
34.8535,414.72,533.59
34.8735,413.77,533.27
34.8934,413.02,533.01
34.9135,412.22,532.61
34.9336,412.57,532.69
34.9534,412.26,533.55
34.9732,412.01,534.24
34.9934,411.81,534.79
35.0135,412.44,534.63
35.0333,412.56,534.51
35.0534,412.24,535.01
35.0735,412.2,535.6
35.0934,411.76,536.08
35.1135,412.81,536.07
35.1333,413.04,536.45
35.1535,414.04,536.56
35.1735,414.23,536.85
35.1934,414.78,536.28
35.2134,415.43,535.62
35.2336,415.74,535.5
35.2534,415.39,535.2
35.2735,414.51,535.16
35.2935,413.61,534.33
35.3134,413.69,534.26
35.3335,414.55,534.21
35.3534,414.04,534.17
35.3734,414.03,533.93
35.3935,413.43,534.15
35.4134,414.94,533.92
35.4333,415.55,533.73
35.4532,416.04,533.19
35.4733,415.43,532.35
35.4935,415.95,532.48
35.5132,416.36,531.78
35.5343,416.69,532.23
35.5545,413.55,534.18
35.5745,404.24,539.15
35.5944,388.19,544.52
35.6144,368.35,547.61
35.6343,348.28,545.49
35.6544,330.63,539.99
35.6744,315.5,532.59
35.6945,305.4,522.88
35.7142,298.12,513.1
35.7341,294.3,504.48
35.7544,294.64,498.18
35.7742,296.91,492.95
35.7945,299.93,490.16
35.8142,304.94,489.33
35.8345,312.35,488.46
35.8546,320.08,489.37
35.8746,327.67,491.1
35.8944,335.33,493.08
35.9142,343.47,495.86
35.9345,350.57,498.49
35.9545,358.26,500.79
35.9744,366.01,504.23
35.9945,371.81,507.19
36.0143,378.64,510.35
36.0344,383.72,512.08
36.0544,388.37,514.26
36.0745,392.7,517.21
36.0945,396.36,519.57
36.1143,398.89,521.85
36.1343,401.51,523.28
36.1545,403.41,524.83
36.1745,404.93,525.86
36.1944,407.94,527.69
36.2142,408.95,528.55
36.2344,409.96,529.44
36.2544,411.77,530.35
36.2746,413.62,531.08
36.2945,414.69,532.27
36.3143,415.15,533.21
36.3344,414.92,533.37
36.3545,415.34,533.9
36.3745,416.07,534.12
36.3943,415.66,534.09
36.4142,415.93,533.87
36.4345,416.34,533.5
36.4545,417.07,533.2
36.4743,417.86,533.36
36.4945,418.09,533.49
36.5142,425.07,535.19
36.5342,438.66,535.15
36.5544,457.52,532.52
36.5743,477.42,531.22
36.5943,498.34,534.77
36.6142,519.67,541.22
36.6344,539.13,550.38
36.6542,555.71,558.3
36.6744,565.17,563.64
36.6943,566.33,565.71
36.7142,561.27,565.17
36.7342,552.61,563.54
36.7554,542.49,561.03
36.7753,530.59,558.22
36.7955,517.07,556.18
36.8153,505.26,552.94
36.8352,495.41,550.15
36.8554,486.13,547.92
36.8755,477.5,546.54
36.8953,468,547.03
36.9152,460.4,547.02
36.9354,454.32,546.02
36.9552,448.46,545.42
36.9754,443.17,543.93
36.9954,438.73,543.55
37.0153,436.79,543.24
37.0352,435.23,542.79
37.0552,433.58,542.23
37.0754,432.47,541.39
37.0953,430.37,541.31
37.1153,428.7,541.05
37.1353,426.76,540.64
37.1553,426.61,540.91
37.1752,425.29,539.73
37.1953,423.03,539.18
37.2154,422.62,538.75
37.2352,422.1,538.2
37.2553,422.08,537.36
37.2753,421.26,536.89
37.2954,419.81,536.91
37.3154,419.45,536.33
37.3353,419.96,535.46
37.3552,420.57,534.97
37.3753,421.05,534.18
37.3953,420.44,533.94
37.4153,419.95,533.55
37.4352,419.56,533.44
37.4551,419.05,533.75
37.4753,419.44,534.4
37.4954,418.55,534.52
37.5152,418.64,535.82
37.5354,417.91,536.65
37.5553,418.33,537.72
37.5753,417.26,538.58
37.5953,416.41,538.46
37.6152,415.33,538.37
37.6352,414.66,537.9
37.6565,415.13,537.72
37.6763,416.3,537.57
37.6964,417.64,537.66
37.7161,418.32,537.73
37.7363,418.25,537.98
37.7563,418.4,537.59
37.7764,418.52,536.27
37.7964,417.82,535.21
37.8164,417.05,535.57
37.8363,415.84,534.66
37.8564,415.47,533.93
37.8763,416.78,534.34
37.8964,417.62,534.07
37.9162,418.5,534.46
37.9362,419.2,534.57
37.9564,420.16,534.25
37.9764,420.73,534.4
37.9963,420.38,534.32
38.0164,419.71,534.06
38.0363,418.76,534.65
38.0564,418.01,534.92
38.0763,417.81,535.33
38.0963,416.85,536.07
38.1164,415.28,535.65
38.1362,415.82,535.12
38.1563,416.26,534.5
38.1763,417.01,533.8
38.1964,418.01,533.84
38.2164,418.2,534.67
38.2363,416.76,534.74
38.2563,417.41,535.59
38.2761,418.13,535.07
38.2963,419.1,535.46
38.3165,420.08,535.17
38.3363,420.07,535.13
38.3564,420.25,534.91
38.3763,420.8,534.72
38.3965,420.44,534.78
38.4163,419.75,534.82
38.4365,419.8,535.06
38.4564,420.44,534.65
38.4764,420.15,534.92
38.4964,420.12,534.93
38.5162,420.5,535.35
38.5364,420.8,534.28
38.5564,422.04,533.42
38.5765,421.83,533.34
38.5964,421.86,533.47
38.6163,421.29,533.98
38.6363,421.03,533.78
38.6564,421.23,533.82
38.6761,420.98,533.46
38.6963,420.79,535.17
38.7164,420.43,536.53
38.7362,421.54,537.03
38.7564,421.83,537.42
38.7761,421.27,537.74
38.7961,419.81,537.99
38.8165,420.45,537.79
38.8363,420.76,538.03
38.8563,422.01,537.43
38.8764,421.21,536.74
38.8962,421.17,536.39
38.9164,421.33,536.51
38.9363,420.67,535.81
38.9564,420.73,535.85
38.9764,420.59,534.68
38.9965,420.67,534.54
39.0164,420.94,534.43
39.0363,421.35,534.55
39.0564,422.08,534.44
39.0762,421.46,534.55
39.0964,420.97,533.64
39.1164,420.98,533.11
39.1364,421.38,533.69
39.1566,421.1,533.75
39.1765,420.28,534.4
39.1967,419.03,534.92
39.2162,418.22,534.94
39.2364,418.18,535.55
39.2562,417.94,535.24
39.2761,418.15,534.79
39.2961,415.12,533.63
39.3163,404.5,531.51
39.3363,385.6,529.01
39.3564,363.68,527
39.3763,341.14,527.4
39.3963,321.51,528.72
39.4164,305.81,528.98
39.4363,294.65,527.78
39.4563,288.12,524.03
39.4764,286.3,519.82
39.4964,287.64,514.86
39.5165,291.91,511.29
39.5363,298.73,507.83
39.5564,306.78,505.86
39.5761,316.03,503.69
39.5964,324.82,503.95
39.6161,334.66,504.96
39.6362,343.53,506.77
39.6574,352.42,509.22
39.6774,360.54,511.17
39.6971,369.23,513.74
39.7174,375.98,516.59
39.7371,381.19,519.47
39.7573,386.15,521.58
39.7773,390.52,523.26
39.7971,394.82,524.01
39.8173,397.85,524.61
39.8374,401.28,525.09
39.8574,404.83,525.47
39.8772,407.46,526.38
39.8973,408.97,527.1
39.9173,410.57,527.88
39.9374,411.46,528.5
39.9573,413.57,529.2
39.9772,415.05,529.36
39.9972,417.44,531.29
40.0174,425.35,533.23
40.0373,437.48,536.19
40.0572,450.99,538.55
40.0773,466.79,541.04
40.0974,487.43,543.63
40.1174,510.35,544.9
40.1373,532.68,546.72
40.1571,551.94,548.18
40.1774,562.35,549.14
40.1972,564.28,548.51
40.2173,560.63,547.41
40.2372,553.5,546.33
40.2574,543.2,545.26
40.2773,533.16,544.41
40.2973,521.73,543.33
40.3173,511.58,542.46
40.3372,500.47,542.17
40.3573,492.57,546.94
40.3772,484.86,550.15
40.3972,476.69,551.12
40.4173,469.55,551.9
40.4373,463.04,551.72
40.4573,458.03,551.17
40.4773,453.63,549.54
40.4972,448.9,547.43
40.5176,444.72,546.14
40.5373,440.98,545.52
40.5574,437.78,545.61
40.5773,436.22,544.09
40.5973,434.98,542.47
40.6174,433.98,540.98
40.6373,432.19,539.58
40.6573,431.15,538.67
40.6772,430.52,537.53
40.6983,430.22,537.23
40.7184,428.77,537.18
40.7383,427.82,537.34
40.7593,426.85,536.48
40.7782,426.48,535.38
40.7982,426.39,534.1
40.8186,426.11,534.28
40.8384,426.09,534.23
40.8582,425.87,533.78
40.8783,425.7,533.63
40.8982,426.16,533.5
40.9183,425.53,533.6
40.9382,426.22,532.88
40.9585,424.98,533.3
40.9783,425.18,533.44
40.9983,425.14,532.75
41.0183,424.52,533
41.0383,423.81,532.4
41.0582,422.65,532.12
41.0781,421.72,532.5
41.0981,421.98,532
41.1182,421.58,533.2
41.1383,421.06,533.56
41.1583,420.25,533.65
41.178,420.4,534.92
41.198,420.12,535.13
41.2182,420.1,535.71
41.2384,419.68,535.77
41.2582,419.34,535.41
41.2783,419.27,535.13
41.2982,419.22,534.3
41.3185,419.18,533.44
41.3383,419.94,532.95
41.3583,420.95,532.36
41.3783,422.16,533.29
41.398,422.33,534.03
41.4184,421.86,533.43
41.4384,423.09,533.34
41.4583,423.87,532.47
41.4781,423.1,532.18
41.4982,423.08,531.54
41.5182,422.66,531.43
41.5383,422.53,531.95
41.5582,422.22,531.76
41.5792,420.58,531.61
41.5991,420.06,531.89
41.6192,420.25,531.71
41.6392,420.8,531.97
41.6592,422.04,532.57
41.6793,422.83,533.06
41.6993,424.27,533.45
41.7191,425.01,533.96
41.739,425.01,534.77
41.7592,424.41,535.21
41.7793,424.53,535.17
41.7993,424.82,534.94
41.8192,425.06,534.15
41.8392,425.05,534.12
41.8592,423.84,534.5
41.8791,422.67,534.6
41.899,421.74,534.28
41.9191,422.39,533.42
41.9401,422.11,533.74
41.9602,421.09,534.39
41.9802,420.47,534.71
42.0002,420.78,534.57
42.0202,421.02,534.66
42.0402,422.02,534.92
42.0601,422.21,535.34
42.0803,422.57,535.07
42.1002,422.66,534.66
42.1203,423.13,535.53
42.1403,423.5,536.02
42.1602,423.8,536.22
42.1803,423.44,535.97
42.2003,423.35,535.58
42.2202,423.88,535.46
42.2402,424.31,535.37
42.2603,424.04,536.5
42.2803,424.04,537
42.3002,423.63,537
42.32,423.3,536.8
42.3402,423.84,537.04
42.3602,423.47,536.83
42.3804,423.78,536.46
42.4,423.62,535.57
42.4202,423.7,535.06
42.4402,422.76,534.85
42.4602,423.41,534.08
42.4802,423.93,533.46
42.5002,422.74,533.57
42.5202,423.19,534.46
42.5402,422.75,534.76
42.5602,422.8,533.81
42.5803,422.64,533.85
42.6002,422.71,533.88
42.6201,422.37,534.1
42.6402,422.5,534.08
42.6602,422.4,534.87
42.6801,422.92,535.29
42.7002,421.93,535.83
42.7202,422.15,536.47
42.7401,421.92,536.17
42.7602,421.13,536.14
42.7803,421.51,535.71
42.8002,422.01,536.17
42.8202,422.6,535.74
42.8401,422.28,535.39
42.8602,422.03,535.11
42.8802,422.62,534.89
42.9002,423.7,534.71
42.9203,423.96,534.97
42.9402,423.57,534.97
42.9602,423.05,534.58
42.9803,423.04,534.46
43.0001,422.43,534.37
43.0202,422.35,534.3
43.0402,422.08,534.24
43.0602,421.66,534.19
43.0803,421.93,534.15
43.1003,422.74,534.72
43.1202,422.8,536.18
43.1402,423.24,536.74
43.1602,423.19,536.99
43.1803,423.75,537.19
43.2002,423.8,537.36
43.22,424.04,537.28
43.2401,423.83,537.03
43.2602,424.07,537.02
43.2801,424.45,536.42
43.3001,424.56,536.13
43.32,424.45,536.11
43.34,423.36,535.89
43.3601,421.29,535.51
43.3801,421.23,535.81
43.3999,420.78,534.45
43.4202,420.43,534.56
43.4401,421.14,534.25
43.4602,421.31,534.4
43.4802,421.45,534.32
43.5,421.36,534.25
43.52,422.49,534
43.5402,422.19,533.8
43.5601,422.35,533.04
43.5803,422.28,532.43
43.6002,423.23,531.95
43.6201,424.78,531.56
43.6402,417.62,530.45
43.6602,403.3,529.36
43.68,383.64,528.69
43.7,362.31,527.35
43.7213,342.05,524.48
43.7412,326.84,520.38
43.7612,315.67,515.91
43.7811,307.94,512.73
43.8011,304.95,509.98
43.8212,303.76,507.78
43.8412,306.01,507.03
43.8612,309.41,506.82
43.8812,313.53,507.26
43.9011,320.22,508.81
43.921,327.18,510.84
43.941,335.74,513.28
43.961,343.59,515.22
43.9812,351.07,517.38
44.0012,359.06,519.3
44.0211,366.45,522.24
44.0411,372.76,524.59
44.061,379.41,525.47
44.0811,384.73,526.78
44.1013,388.78,527.62
44.1211,392.62,529.1
44.1411,396.3,530.68
44.161,399.84,531.74
44.181,402.47,531.99
44.2011,405.98,532.4
44.221,409.18,532.92
44.2412,411.15,534.13
44.2611,412.92,535.11
44.281,413.93,536.49
44.3011,415.75,536.99
44.321,416.8,536.99
44.3412,418.24,536.59
44.3611,418.59,536.47
44.3812,418.67,537.38
44.4011,419.34,537.7
44.4211,420.47,536.96
44.4412,420.98,536.57
44.461,421.18,535.86
44.481,420.54,536.88
44.5012,430.84,539.71
44.521,452.27,543.37
44.5411,481.61,547.09
44.5612,512.89,550.07
44.581,542.31,553.26
44.6011,562.45,554.81
44.6211,570.36,554.45
44.641,570.09,554.16
44.6613,563.87,552.53
44.681,554.9,551.42
44.701,545.32,550.14
44.7211,535.25,548.31
44.741,527,553.25
44.761,518.6,555.8
44.781,509.48,557.24
44.8011,500.79,557.39
44.8211,491.43,556.51
44.8411,483.74,554.61
44.8612,476.19,552.89
44.881,468.76,551.31
44.9011,462,550.05
44.9212,457.4,549.64
44.9413,453.52,548.91
44.9611,448.22,548.53
44.981,443.77,547.22
45.0012,440.62,545.78
45.0212,437.7,544.22
45.0413,435.36,543.18
45.0611,432.49,542.14
45.0813,431.79,541.11
45.1021,430.03,541.09
45.122,428.02,540.67
45.1422,427.42,539.94
45.162,427.14,539.15
45.1822,425.51,538.72
45.2023,425.61,538.78
45.2222,424.29,539.02
45.2422,424.03,539.02
45.2622,424.02,538.41
45.282,423.42,538.13
45.3032,422.53,538.3
45.3232,421.63,538.44
45.3431,422.3,538.35
45.363,421.64,538.48
45.3832,421.51,538.59
45.4032,422.21,539.27
45.423,422.37,539.42
45.4431,422.49,539.13
45.4632,421.8,539.11
45.483,421.44,539.08
45.5031,420.75,538.87
45.5232,421.4,539.09
45.5432,421.32,539.28
45.563,421.66,539.22
45.583,421.32,539.18
45.6031,421.26,539.54
45.623,420.61,539.23
45.6431,420.49,538.19
45.6631,420.99,537.75
45.6831,421.19,538
45.7031,421.55,537.8
45.7232,422.24,537.64
45.7432,422.39,537.51
45.7631,422.52,537.61
45.7833,422.41,537.29
45.8032,422.93,537.23
45.8231,423.14,537.18
45.8432,421.91,537.55
45.8631,421.53,537.84
45.8832,421.83,537.87
45.9032,421.66,538.3
45.9231,421.13,538.24
45.9442,420.9,537.79
45.964,421.12,538.03
45.9841,421.1,537.23
46.0041,421.48,537.18
46.0241,421.78,537.14
46.0441,421.03,537.32
46.064,420.62,537.25
46.084,421.1,537.6
46.1041,421.08,537.08
46.124,420.86,537.47
46.1441,420.09,537.37
46.1641,418.87,538.1
46.1841,418.5,538.88
46.204,419.4,539.7
46.2239,420.52,539.96
46.2442,420.81,539.97
46.2641,420.25,540.18
46.2841,421.2,540.14
46.3041,421.36,540.31
46.3241,421.69,539.85
46.3441,421.55,539.28
46.364,421.64,539.42
46.3844,421.71,539.74
46.4041,421.77,539.99
46.424,422.02,539.39
46.4441,421.41,539.71
46.4641,422.33,539.77
46.4841,422.06,539.22
46.5041,421.25,539.77
46.5241,420.8,539.82
46.5441,421.24,540.26
46.564,420.79,540.2
46.5842,420.83,540.36
46.604,421.07,539.69
46.6241,421.45,539.55
46.644,420.96,538.44
46.664,421.37,539.15
46.684,421.5,538.92
46.7042,421.8,538.94
46.724,422.04,538.35
46.7442,421.83,538.08
46.764,421.06,537.66
46.7841,421.25,537.13
46.804,421.8,537.91
46.8241,422.24,537.92
46.8442,422.19,537.34
46.864,420.75,537.27
46.8843,421,537.42
46.9042,421.4,537.33
46.924,421.32,536.87
46.9442,421.66,536.89
46.9642,421.73,536.51
46.9842,421.18,536.21
47.0041,420.74,536.37
47.0241,420.2,536.9
47.0441,420.16,536.92
47.064,421.13,536.53
47.0841,421.9,536.23
47.1041,420.92,535.98
47.1241,421.34,535.98
47.1452,421.67,535.59
47.165,421.14,536.07
47.1852,421.11,536.26
47.2052,420.49,536.01
47.2251,419.99,535.8
47.2451,419.99,536.44
47.265,420.19,536.75
47.2851,418.95,536.6
47.3051,418.96,536.68
47.3249,418.77,536.95
47.3451,418.62,536.76
47.3649,418.69,535.81
47.3851,419.35,535.44
47.4053,419.08,535.36
47.4252,418.87,534.68
47.4451,418.69,534.15
47.465,418.55,533.32
47.485,419.44,532.65
47.505,420.16,533.12
47.5252,421.12,533.9
47.5452,414.1,534.12
47.565,397.28,532.1
47.5852,374.42,529.28
47.6051,351.54,527.82
47.6251,331.23,525.66
47.645,314.38,523.73
47.665,303.11,519.38
47.6851,296.29,514.3
47.7052,291.63,510.84
47.7252,290.1,507.67
47.7453,291.88,505.94
47.765,295.51,505.15
47.7851,301.4,504.52
47.805,309.12,503.42
47.8249,317.5,504.93
47.845,325.4,505.95
47.8649,334.52,507.76
47.8851,343.02,510.01
47.9052,351.41,513.2
47.9249,359.73,515.76
47.9451,366.78,517.81
47.9653,372.43,520.05
47.985,378.34,522.64
48.0051,384.07,524.71
48.0251,388.66,525.57
48.0449,392.53,527.46
48.0649,396.22,529.56
48.085,399.18,530.85
48.105,401.94,531.88
48.1261,403.75,532.1
48.146,405.2,532.68
48.1663,406.36,533.15
48.1862,408.09,533.52
48.2061,408.67,534.01
48.226,409.34,534.81
48.246,410.07,535.45
48.2671,410.26,535.16
48.2879,409,535.33
48.308,408,535.66
48.328,407.8,536.33
48.348,408.24,537.46
48.3681,413.59,539.77
48.388,429.48,545.42
48.4079,451.98,552.53
48.4281,480.18,557.63
48.4482,509.95,560.3
48.468,538.56,561.44
48.488,559.65,562.35
48.5081,568.92,561.28
48.5281,568.93,558.83
48.5479,562.55,555.66
48.568,553.64,553.93
48.5878,542.31,552.14
48.608,531.05,550.11
48.628,519.44,548.49
48.648,507.35,552.59
48.668,496.68,553.87
48.6881,486.14,554.1
48.708,477.32,552.88
48.7281,468.85,552.1
48.7481,460.68,551.28
48.768,453.55,550.03
