Program Time [s],data 0,data 1
5.80091,409.42,531.21
5.82094,410.54,531.57
5.84093,409.43,530.26
5.86091,412.74,525.6
5.88091,409.79,525.08
5.90094,407.44,526.27
5.921,406.35,527.61
5.94091,406.48,532.09
5.9609,408.58,538.07
5.98089,411.27,537.86
6.00091,411.61,535.69
6.02075,411.89,540.35
6.04079,410.71,536.88
6.06089,411.57,538.7
6.08071,414.46,538.76
6.1009,413.36,539.41
6.12097,413.29,535.93
6.14087,410.43,533.74
6.16092,411.95,539.99
6.1809,412.36,542
6.20086,412.49,541.8
6.22171,414.19,545.24
6.24173,414.35,547.59
6.26169,413.48,548.07
6.28193,414.18,548.66
6.30179,411.95,554.33
6.32192,408.36,551.26
6.34184,404.29,552.41
6.36189,402.83,555.73
6.38191,405.06,564.18
6.40179,409.25,592.75
6.4227,419.2,645.4
6.44268,433.56,691.72
6.46278,444.25,739.17
6.48375,451.2,763.74
6.50371,455.96,776.79
6.52378,456.17,777.23
6.54403,457.53,769.19
6.56385,456.83,751.15
6.58371,453.66,728.12
6.60371,450.33,701.7
6.62394,445.26,675.36
6.64368,441.41,657.69
6.66387,436.73,648.35
6.68374,435.58,641.48
6.70394,428.87,632.18
6.7239,428.29,623.75
6.74388,427.03,614.8
6.76381,420.63,598.44
6.78482,413.5,572.95
6.80494,404.4,539.16
6.82471,392.72,504.73
6.84475,379.58,470.58
6.86477,365.66,436.67
6.88479,354.53,413.73
6.9047,349.22,389.99
6.92485,345.98,375.79
6.94475,347.38,365.03
6.96493,350.11,364.62
6.98487,355.29,366.7
7.00469,361.83,368.36
7.02488,365.86,374.09
7.0447,375.29,387.27
7.06486,376.43,399.02
7.08471,382.15,416.01
7.10486,383.52,430.01
7.12487,388.01,442.21
7.14483,390.01,452.77
7.1648,392.21,463.41
7.18497,394.97,474.33
7.20482,397.17,487.06
7.22485,398.94,498.65
7.24476,402.55,507.52
7.26479,401.84,510.62
7.28489,402.67,512.69
7.3049,406.14,518.55
7.32471,409.31,521.64
7.34471,410.45,521.92
7.36485,408.96,526.13
7.38505,408.97,530.51
7.40484,408.17,530.6
7.42488,408.14,530.68
7.44485,409.31,531.95
7.46482,408.85,534.16
7.48499,408.88,533.93
7.50488,408.3,533.94
7.52472,408.84,533.35
7.54473,407.47,534.28
7.56481,408.58,534.23
7.58476,410.66,536.78
7.60484,409.93,535.82
7.62474,407.54,536.86
7.6447,406.44,535.29
7.66467,406.95,533.63
7.68486,406.16,533.3
7.70492,405.93,530.24
7.72491,406.74,529.39
7.74477,406.99,528.72
7.76483,408.39,528.37
7.78489,407.52,527.1
7.80585,409.61,526.88
7.82581,409.89,527.3
7.84594,411.31,526.44
7.86585,413.45,526.55
7.88583,415.16,525.84
7.90581,415.13,526.67
7.92585,417.1,527.14
7.94596,418.08,529.51
7.96589,418.67,532.61
7.98581,419.13,534.09
8.00584,420.91,535.67
8.02574,419.72,535.74
8.04586,418.38,537.79
8.06589,418.5,537.03
8.08585,418.6,537.22
8.10585,417.68,536.98
8.12579,417.95,535.78
8.1458,417.96,534.63
8.16586,416.77,532.3
8.18587,417.81,530.44
8.20596,417.25,528.15
8.22586,416.6,526.32
8.24595,416.08,525.26
8.2659,416.66,524.01
8.28586,417.13,523.61
8.30595,417.7,523.48
8.32587,417.76,524.79
8.34579,418.41,525.83
8.36574,419.73,527.46
8.38585,420.18,528.37
8.40587,420.75,530.5
8.42601,420.2,531.4
8.44593,420.56,532.72
8.46598,420.25,533.57
8.48585,420.4,535.26
8.50582,421.72,535.61
8.52594,421.37,535.89
8.54588,421.5,537.31
8.56583,421.2,537.25
8.5858,420.96,538
8.60588,420.57,536.8
8.62588,420.25,536.84
8.64585,419.8,535.67
8.66671,420.04,533.94
8.68677,420.63,533.35
8.70661,420.31,532.08
8.72665,420.65,532.06
8.74685,420.12,532.05
8.76677,420.49,534.84
8.78679,418.19,537.07
8.80665,405.76,538.06
8.82659,389,534.85
8.84661,368.4,526.28
8.86673,347.12,513.62
8.8867,329.3,499.3
8.90678,313.84,484.64
8.92681,303.27,472.31
8.94682,296.22,462.85
8.96689,293.97,457.68
8.98682,293.78,454.94
9.00683,297.82,454.15
9.02674,302.86,456.72
9.04681,308.89,459.98
9.06678,316.91,466.38
9.0868,325.13,471.11
9.10682,333.1,476.49
9.12681,340.68,482.19
9.14693,348.75,487.55
9.1668,356.4,492.84
9.18702,363.12,498.67
9.20667,370.89,503.34
9.22685,377.31,507.07
9.24682,383.65,510.06
9.26683,389.32,513.04
9.28669,394.06,516.64
9.30687,397.05,519.31
9.32662,401.24,521.45
9.3468,404.79,523.76
9.36691,406.83,525.41
9.38771,408.87,526.32
9.40782,412.29,527.66
9.42768,414.23,529.13
9.44784,416.19,530.1
9.46768,417.35,531.68
9.48771,418.48,532.95
9.50785,418.98,533.76
9.52781,420.39,534.81
9.54781,421.31,535.24
9.56783,422.05,535
9.58764,421.84,534.6
9.60774,422.07,535.88
9.62883,422.66,536.5
9.64885,422.13,537.4
9.66874,422.9,540.12
9.68884,430.32,547.9
9.70883,443.66,566.12
9.72888,460.72,590.89
9.7488,482.38,627.52
9.76867,504.9,664.61
9.78865,527.52,690.69
9.80861,546.42,699.15
9.82861,560.13,692.32
9.84879,570.31,676.86
9.86865,575.85,654.49
9.88883,574.88,631.19
9.9088,570.1,608.75
9.92883,560.68,587.4
9.94879,548.35,568.72
9.96885,536.48,553.98
9.98886,524.78,541.18
10.0088,512.42,531.54
10.0287,499.34,524.04
10.0488,488.67,518.83
10.0687,478.74,515.66
10.0888,470.59,513.33
10.1087,461.67,512.06
10.1287,454.34,511.25
10.1489,448.67,512.4
10.1688,443.54,512.72
10.1887,440.03,514.58
10.2088,436.82,515.86
10.2288,435.46,517.29
10.2488,434.17,518.43
10.2688,431.93,519.75
10.2888,430.35,521.8
10.3088,428.88,523.84
10.3288,427.9,525.47
10.3486,426.12,526.98
10.3688,424.9,527.78
10.3889,424.92,529.62
10.4088,425.33,531.5
10.4289,425.27,532.6
10.4488,424.81,533.48
10.4687,425.05,534.18
10.4888,425.04,534.15
10.5087,424.83,534.52
10.5287,424.07,534.61
10.5488,423.85,534.69
10.5688,424.28,534.55
10.5886,424.03,534.24
10.6088,423.02,534.79
10.6287,423.42,535.24
10.6488,422.33,536.59
10.6687,421.47,536.67
10.6887,421.77,537.34
10.7087,421.62,537.87
10.7288,421.49,537.5
10.7487,421.8,537.8
10.7687,421.84,538.24
10.7888,421.07,538.79
10.8087,421.46,538.83
10.8286,421.36,538.67
10.8488,422.29,538.53
10.8687,422.43,537.83
10.8887,423.35,538.06
10.9087,422.88,538.45
10.9287,423.5,538.56
10.9487,423.8,539.45
10.9686,423.04,538.56
10.9886,422.63,537.85
11.0097,420.91,538.48
11.0298,420.53,537.38
11.0497,420.62,537.31
11.0697,419.5,536.24
11.0897,419.8,536
11.1097,418.84,536.2
11.1295,417.07,536.36
11.1498,418.06,535.49
11.1706,417.04,535.79
11.1906,416.64,535.43
11.2108,415.91,535.74
11.2308,415.13,536
11.2507,414.3,535.6
11.2707,414.24,535.28
11.2907,415.19,535.02
11.3109,414.55,535.22
11.3308,413.84,535.17
11.3506,413.07,534.74
11.371,413.46,535.39
11.3907,413.57,535.31
11.4106,412.85,535.85
11.4307,412.88,536.68
11.4506,412.91,536.34
11.4708,412.13,536.88
11.4908,411.5,537.9
11.5108,411.2,538.12
11.5311,411.16,537.7
11.5506,410.13,538.36
11.5708,410.7,538.49
11.5907,411.96,537.99
11.6107,412.57,537.99
11.6307,413.06,537.19
11.6507,414.44,537.35
11.6706,413.96,537.68
11.6907,413.96,537.95
11.7107,413.17,537.16
11.7307,412.74,537.13
11.7508,412.99,537.5
11.7707,413.39,537.2
11.7908,412.91,536.56
11.8108,413.13,536.45
11.8308,412.7,536.36
11.8507,413.16,536.89
11.8708,412.93,536.91
11.8908,412.94,536.33
11.9108,413.16,536.06
11.9307,413.12,536.25
11.9509,412.3,535.6
11.9708,412.64,535.08
11.9907,412.91,535.46
12.0107,413.73,534.97
12.0307,414.58,535.38
12.0506,413.87,534.9
12.0709,412.69,535.32
12.0908,412.75,534.86
12.1107,412.2,534.89
12.1307,411.36,534.11
12.1509,411.29,533.69
12.1708,412.03,533.95
12.1906,412.23,534.56
12.2107,412.38,535.05
12.2307,411.3,534.04
12.2507,411.44,535.03
12.2708,411.15,535.62
12.2907,412.32,534.5
12.3108,411.86,533.8
12.3306,411.49,533.84
12.3507,411.19,533.67
12.3707,411.75,533.94
12.3907,411.8,533.95
12.4107,411.64,533.16
12.4307,410.11,533.13
12.4507,409.09,532.9
12.4708,409.47,533.52
12.4907,409.38,535.02
12.5107,409.1,535.61
12.5307,408.08,536.09
12.5508,408.47,537.07
12.5707,408.57,537.26
12.5908,408.46,537.81
12.6107,408.57,537.85
12.6307,408.85,537.48
12.6506,408.88,537.78
12.6707,409.91,537.82
12.6907,409.12,536.66
12.7107,408.5,536.93
12.7308,407.8,536.54
12.7506,407.84,536.03
12.7707,407.47,535.63
12.7907,408.18,535.1
12.8107,409.14,534.88
12.8308,409.51,535.51
12.8507,409.81,534.8
12.8709,409.05,534.64
12.8906,409.24,534.51
12.9106,408.39,534.81
12.9306,407.31,534.45
12.9506,408.05,534.36
12.9707,401.84,533.29
12.9907,389.87,528.83
13.0106,373.7,520.66
13.0308,354.16,510.33
13.0505,334.33,500.66
13.0707,317.26,491.53
13.0906,302.01,484.63
13.1108,291.41,479.3
13.1307,283.13,477.24
13.1506,280.1,476.59
13.1706,279.68,477.67
13.1908,282.74,479.54
13.2106,285.8,482.63
13.2316,291.24,485.51
13.2515,297.79,488.8
13.2717,305.23,492.84
13.2916,313.79,497.27
13.3117,323.63,500.62
13.3317,332.1,504.3
13.3518,340.48,508.04
13.3716,347.79,511.63
13.3928,353.63,513.9
13.4128,360.1,515.72
13.4325,365.48,518.38
13.4527,369.99,520.7
13.4727,374.99,522.56
13.4936,378.59,523.85
13.5137,381.27,525.28
13.5337,384.42,526.22
13.5538,387.33,526.98
13.5738,388.27,526.98
13.5937,390.01,528.19
13.6137,391.01,530.15
13.6338,391.81,530.32
13.6537,392.25,530.86
13.6738,393.2,531.08
13.6937,394.16,531.47
13.7137,395.13,532.17
13.7337,395.5,532.34
13.7538,395.8,532.07
13.7737,396.04,532.66
13.7936,397.23,532.13
13.8139,398.19,532.5
13.8339,398.35,532.4
13.8538,398.48,532.72
13.8737,398.98,532.18
13.8938,398.79,531.94
13.9136,398.03,531.55
13.9338,398.02,531.24
13.9537,399.02,531.39
13.9738,398.02,532.72
13.9939,405.21,536.57
14.0137,419.57,543.26
14.0338,440.06,551.81
14.0537,463.64,561.84
14.0738,490.12,571.48
14.0937,515.09,577.78
14.1137,536.47,583.22
14.1337,550.38,584.58
14.1536,554.9,582.46
14.1737,552.12,578.37
14.1936,545.3,572.9
14.2138,534.24,566.12
14.2336,523.19,560.29
14.2538,511.75,555.44
14.2737,500.4,550.95
14.2935,489.52,545.96
14.3137,478.62,541.97
14.3336,469.89,538.77
14.3537,460.32,536.02
14.3738,452.65,533.82
14.3936,445.72,532.85
14.4138,439.98,532.48
14.4339,435.58,531.39
14.4538,431.07,530.31
14.4738,427.25,530.05
14.4936,424.6,529.04
14.5137,420.48,529.63
14.5335,417.99,528.9
14.5539,415.59,528.52
14.5737,414.27,528.22
14.5937,412.42,527.37
14.6137,411.13,527.9
14.6336,410.91,528.12
14.6538,408.33,527.9
14.6737,409.26,528.32
14.6936,408.61,528.65
14.7138,407.89,528.32
14.7336,407.51,529.46
14.7535,407.01,529.77
14.7737,406.01,530.61
14.7936,406,529.69
14.8136,404.6,529.15
14.8335,405.68,528.92
14.8535,404.35,528.34
14.8737,403.88,528.47
14.8936,403.7,529.38
14.9138,403.36,529.3
14.9337,403.69,528.64
14.9535,403.75,528.31
14.9736,403.2,528.85
14.9937,402.36,528.88
15.0137,402.09,529.1
15.0335,402.27,529.88
15.0537,403.62,529.71
15.0737,403.89,529.77
15.0936,404.51,529.21
15.1137,403.81,529.37
15.1336,403.85,529.7
15.1536,403.28,530.36
15.1738,402.02,530.29
15.1937,401.62,529.03
15.2136,401.9,528.82
15.2335,402.52,528.46
15.2536,403.01,527.97
15.2737,403.61,528.17
15.2937,404.09,528.34
15.3137,404.67,528.67
15.3337,403.54,529.14
15.3537,404.23,529.11
15.3737,404.58,529.09
15.3937,404.47,529.07
15.4137,403.37,529.86
15.4335,403.1,530.28
15.4538,402.88,530.63
15.4736,403.3,530.7
15.4937,403.64,530.36
15.5135,402.71,530.89
15.5336,403.17,530.91
15.5535,402.94,530.53
15.5737,402.75,529.42
15.5936,402.4,529.94
15.6136,402.92,530.15
15.6337,403.74,528.72
15.6537,404.39,528.38
15.6737,405.31,528.7
15.6937,405.85,528.76
15.7135,405.08,528.21
15.7337,405.06,527.77
15.7537,404.45,528.21
15.7736,404.56,527.57
15.7936,404.65,527.26
15.8136,404.12,527.61
15.8344,403.49,526.68
15.8546,403.4,526.55
15.8747,404.52,526.64
15.8947,404.41,526.31
15.9147,405.73,527.05
15.9349,405.38,528.24
15.9547,405.91,528.19
15.9747,406.53,528.55
15.9947,406.42,528.84
16.0146,405.94,528.47
16.0346,406.15,527.98
16.0546,406.52,528.18
16.0747,406.22,528.55
16.0945,405.77,528.24
16.1187,406.02,527.99
16.1346,405.81,527.59
16.1544,406.05,527.87
16.1748,407.04,527.7
16.1947,406.83,527.36
16.2146,407.47,527.69
16.2345,408.57,528.15
16.2545,409.86,528.32
16.2746,409.69,527.86
16.2947,410.35,527.48
16.3146,411.68,527.79
16.3346,412.14,527.63
16.3547,413.11,527.7
16.3747,413.29,527.96
16.3947,414.03,528.37
16.4147,412.23,528.7
16.4348,412.58,528.96
16.4546,411.67,529.37
16.4746,410.53,529.89
16.4947,409.63,530.71
16.5147,409.5,529.97
16.5345,410,529.38
16.5547,409.8,529.3
16.5747,410.44,529.44
16.5948,409.35,529.75
16.6147,408.28,529.6
16.6346,407.63,528.48
16.6546,407.1,528.59
16.6747,406.68,528.67
16.6947,407.34,528.33
16.7147,407.68,528.47
16.7347,408.74,528.77
16.7544,409.19,528.82
16.7747,408.95,528.46
16.7948,408.96,528.56
16.8147,409.37,528.65
16.8344,409.3,528.32
16.8547,409.44,528.66
16.8747,409.55,529.33
16.8947,408.64,529.66
16.9147,409.31,530.53
16.9347,410.25,531.02
16.9549,410.6,531.42
16.9748,411.08,531.73
16.9947,410.66,531.19
17.0147,410.13,530.95
17.0347,410.3,530.56
17.0548,410.24,529.85
17.0748,411,529.08
17.0947,410.6,527.66
17.1147,410.08,526.53
17.1345,410.66,525.22
17.1548,405.93,523.18
17.1747,393.14,518.94
17.1948,374.31,513.95
17.2147,354.05,510.76
17.2344,333.44,508.21
17.2544,315.15,505.17
17.2747,301.32,499.94
17.2947,291.46,495.35
17.3147,285.77,491.08
17.3347,284.21,486.66
17.3546,285.17,484.13
17.3747,288.54,482.9
17.3948,292.83,482.12
17.4144,299.46,482.1
17.4348,306.97,483.48
17.4547,315.58,486.38
17.4747,324.66,490.11
17.4944,333.93,493.49
17.5148,342.94,496.79
17.5346,352.15,500.83
17.5548,360.12,504.86
17.5747,366.1,508.29
17.5947,371.28,510.83
17.6145,376.02,513.67
17.6347,381.22,516.33
17.6547,385.57,518.07
17.6748,389.06,519.65
17.6947,391.85,520.72
17.7146,394.08,522.38
17.7344,396.06,522.7
17.7547,398.25,523.36
17.7747,400.8,523.49
17.7947,402.04,523.59
17.8147,402.83,524.27
17.8345,404.27,525.22
17.8544,405.41,525.97
17.8747,406.33,525.98
17.8947,407.26,526.78
17.9144,407.81,526.83
17.9344,407.45,527.26
17.9547,407.76,527.01
17.9747,408.41,526.61
17.9947,412.73,529.69
18.0144,421.98,539.15
18.0345,437.78,555.92
18.0549,452.83,571.14
18.0745,470.06,582.91
18.0947,489.05,589.13
18.1147,509.24,591.7
18.1344,529.59,589.96
18.1545,548.27,586.17
18.1744,559.02,580.34
18.1947,561.82,573.27
18.2147,558.05,565.61
18.2344,549.24,557.89
18.2547,538.79,550.91
18.2745,527.43,544.73
18.2957,516.95,539.78
18.3156,507.36,536.43
18.3356,497.69,533.34
18.3556,489.15,530.87
18.3755,481.32,529.3
18.3953,474.06,528.24
18.4155,466.24,527.59
18.4358,459,527.27
18.4557,454.6,527.22
18.4753,449.08,525.57
18.4956,444.06,525.26
18.5154,440.85,526.01
18.5357,438.48,525.81
18.5555,435.38,526.85
18.5754,433.51,525.88
18.5956,432.01,525.9
18.6156,430.6,526.52
18.6353,429.68,527.82
18.6557,427.95,529.25
18.6756,427.76,530.6
18.6956,426.81,531.08
18.7156,425.84,531.27
18.7357,424.88,531.01
18.7557,423.7,531.01
18.7756,423.16,531.61
18.7956,422.93,531.09
18.8157,421.94,531.87
18.8357,421.35,532.1
18.8558,421.88,532.88
18.8756,422.71,532.3
18.8956,422.57,532.44
18.9157,421.65,531.35
18.9355,421.12,531.88
18.9555,420.9,531.51
18.9757,421.32,531.2
18.9955,422.45,531.56
19.0156,422.56,531.85
19.0356,421.45,532.68
19.0556,420.96,532.94
19.0757,420.77,533.96
19.0957,420.61,533.96
19.1158,420.29,533.97
19.1354,420.03,533.58
19.1557,419.63,533.66
19.1756,419.9,534.13
19.1956,420.32,534.5
19.2154,420.86,534.6
19.2357,421.69,534.88
19.2557,422.35,534.71
19.2757,422.48,534.76
19.2956,422.78,533.81
19.3155,423.43,533.85
19.3357,423.14,534.08
19.3554,422.91,533.06
19.3756,422.93,532.45
19.3956,422.74,531.16
19.4155,422.8,531.13
19.4356,422.84,531.1
19.4554,422.47,531.68
19.4757,421.98,531.75
19.4957,421.78,532.2
19.5156,421.82,532.36
19.5356,422.46,531.09
19.5556,422.17,531.07
19.5757,421.93,531.25
19.5956,422.35,530.8
19.6157,421.68,531.44
19.6356,420.34,531.75
19.6556,420.07,531.6
19.6756,420.46,531.48
19.6956,421.77,532.39
19.7156,424.01,533.51
19.7356,424.21,533.61
19.7558,425.17,533.69
19.7756,424.74,533.55
19.7955,425.19,533.44
19.8154,424.75,532.95
19.8355,423.4,532.56
19.8557,423.92,532.45
19.8756,423.54,531.96
19.8957,422.23,531.97
19.9156,421.18,532.57
19.9359,421.35,532.66
19.9554,421.08,533.13
19.9757,421.26,533.3
19.9958,422.01,533.44
20.0156,424.21,534.35
20.0356,424.37,534.88
20.0555,424.69,535.11
20.0755,425.35,535.48
20.0957,421.68,538.19
20.1155,417.95,540.55
20.1371,415.16,541.04
20.1556,414.13,541.23
20.1756,413.5,540.79
20.1955,413.2,540.63
20.2155,413.36,540.7
20.2355,413.29,540.16
20.2555,414.23,539.73
20.2756,415.58,538.38
20.2956,417.07,538.11
20.3156,417.25,537.29
20.3356,418.2,536.23
20.3556,417.56,535.18
20.3757,418.25,534.15
20.3956,417.8,533.52
20.4156,417.84,533.61
20.4356,418.47,532.69
20.4554,419.18,532.15
20.4754,419.54,531.72
20.4955,419.63,531.58
20.5155,419.31,530.66
20.5355,420.05,530.33
20.5556,420.84,530.26
20.5755,421.67,530.01
20.5954,421.74,529.21
20.6155,421.39,529.17
20.6355,421.51,528.73
20.6554,421.61,529.39
20.6755,421.69,529.71
20.6955,420.95,530.37
20.7155,421.96,530.69
20.7354,422.17,530.76
20.7555,422.33,531.6
20.7755,422.07,532.28
20.7956,422.65,532.03
20.8155,423.92,531.82
20.8353,423.74,531.86
20.8556,423.39,531.89
20.8755,422.31,531.91
20.8955,422.25,532.33
20.9154,422.2,532.26
20.9356,422.16,532.61
20.9556,422.33,532.69
20.9755,423.06,532.75
20.9955,422.85,533.2
21.0156,423.28,533.56
21.0355,423.22,533.65
21.0555,424.58,534.12
21.0755,424.86,533.69
21.0954,424.69,533.36
21.1156,424.55,533.68
21.1356,424.24,534.35
21.1556,424.79,534.48
21.1756,424.23,535.38
21.1955,423.99,535.51
21.2156,423.39,535.2
21.2355,423.31,534.36
21.2565,422.45,533.49
21.2765,422.56,534.99
21.2966,423.65,536.59
21.3165,423.12,536.88
21.3366,422.89,536.5
21.3564,423.72,536.2
21.3765,423.17,534.96
21.3965,423.14,534.17
21.4166,422.11,533.53
21.4368,413.89,531.03
21.4568,397.31,522.22
21.4766,375.05,510.38
21.4965,352.64,498.7
21.5163,334.11,487.76
21.5365,319.29,480.21
21.5565,309.43,475.57
21.5765,303.14,473.65
21.5964,300.92,473.52
21.6163,301.73,475.22
21.6365,306.79,478.37
21.6563,314.63,481.7
21.6765,322.9,486.16
21.6965,332.12,490.13
21.7163,340.5,495.7
21.7365,348.8,500.16
21.7565,356.84,504.73
21.7763,364.27,508.78
21.7965,372.22,512.03
21.8165,378.37,514.82
21.8366,383.3,517.06
21.8565,388.84,519.25
21.8765,394.07,523
21.8965,398.66,526
21.9166,400.93,528.8
21.9366,404.14,531.24
21.9565,405.11,532.19
21.9763,407.49,532.75
21.9965,409.79,534
22.0163,410.43,534.6
22.0365,411.95,534.88
22.0565,412.56,534.9
22.0766,412.65,534.52
22.0965,413.52,535.82
22.1163,414.61,535.46
22.1365,414.09,535.76
22.1566,415.67,535.21
22.1766,416.94,534.77
22.1965,417.95,534.42
22.2164,419.36,534.93
22.2365,420.29,534.55
22.2565,420.43,534.04
22.2765,420.94,533.83
22.2965,421.36,534.06
22.3165,421.68,534.25
22.3367,422.95,534.2
22.3565,422.16,534.36
22.3765,421.73,534.89
22.3966,421.78,534.91
22.4165,422.02,534.53
22.4365,423.62,536.62
22.4566,431.5,544.3
22.4765,446.8,556.64
22.4963,470.64,570.91
22.5163,496.31,583.93
22.5364,521.65,593.34
22.5565,542.72,597.67
22.5765,551.97,597.54
22.5963,553.78,594.43
22.6164,550.62,590.15
22.6364,544.3,584.72
22.6565,535.04,578.77
22.6765,524.83,573.22
22.6965,514.47,567.17
22.7166,502.77,561.94
22.7366,497.02,558.75
22.7566,490.61,555.2
22.7764,484.09,551.76
22.7963,477.47,549.41
22.8164,472.38,546.93
22.8364,465.9,543.74
22.8564,460.92,541.59
22.8764,455.34,540.27
22.8965,450.27,539.22
22.9165,445.42,537.98
22.9367,441.53,537.18
22.9565,438.23,536.74
22.9765,436.38,536.4
22.9963,433.9,536.12
23.0163,431.72,535.89
23.0364,430.38,535.31
23.0565,428.9,535.25
23.0763,427.92,535.2
23.0965,426.54,534.96
23.1165,425.43,534.57
23.1366,424.54,535.06
23.1565,424.04,535.44
23.1764,422.83,534.96
23.1965,422.46,534.76
23.2163,422.37,535.21
23.2363,421.9,534.17
23.2565,421.12,534.34
23.2765,421.09,534.27
23.2965,421.27,533.41
23.3163,420.62,532.73
23.3365,420.1,532.99
23.3566,419.68,533.79
23.3764,418.74,533.83
23.3965,418.59,533.86
23.4163,419.07,534.49
23.4366,418.26,533.79
23.4563,418.01,533.23
23.4765,418.81,534.39
23.4966,423.64,536.11
23.5165,429.92,537.29
23.5364,434.53,538.23
23.5565,436.23,537.98
23.5765,435.78,536.59
23.5965,435.22,536.07
23.6164,433.98,535.46
23.6365,433.38,534.36
23.6563,432.31,534.29
23.6763,431.45,534.03
23.6965,430.56,533.43
23.7163,429.05,533.34
23.7364,427.64,533.27
23.7565,426.31,533.62
23.7765,424.65,532.89
23.7965,423.32,532.92
23.8165,422.85,532.33
23.8364,421.88,531.87
23.8566,421.91,530.69
23.8763,421.33,530.95
23.8966,421.26,531.36
23.9163,419.61,531.09
23.9363,417.89,531.27
23.9565,417.11,531.02
23.9766,415.89,531.01
23.9965,416.11,530.61
24.0163,415.49,530.89
24.0365,414.59,531.71
24.0564,414.67,531.17
24.0765,415.34,531.54
24.0965,415.07,531.83
24.1165,414.86,531.46
24.1363,414.28,531.97
24.1565,414.23,532.18
24.1766,415.18,531.94
24.1966,415.75,532.15
24.2163,415,532.72
24.2363,418.2,536.18
24.2565,421.96,539.14
24.2765,424.97,540.91
24.2966,426.37,541.13
24.3163,425.5,541.3
24.3364,425.4,541.24
24.3565,424.92,541
24.3766,424.54,541
24.3965,423.83,540.4
24.4163,422.86,539.32
24.4364,422.49,538.05
24.4565,421.59,536.84
24.4765,421.67,536.27
24.4964,420.34,535.42
24.5163,419.27,534.14
24.5366,417.62,532.71
24.5566,417.89,531.97
24.5764,417.91,531.37
24.5964,418.13,530.1
24.6163,417.51,529.68
24.6366,417.6,529.54
24.6565,417.48,529.43
24.6765,416.99,530.15
24.6964,416.39,529.92
24.7165,415.71,529.33
24.7365,415.57,529.27
24.7565,414.86,529.81
24.7766,414.28,529.65
24.7965,413.43,529.92
24.8163,413.34,530.34
24.8365,413.47,530.27
24.8565,414.18,530.42
24.8765,414.94,530.13
24.8965,414.75,530.11
24.9164,414.2,530.08
24.9365,414.96,530.87
24.9564,414.57,529.69
24.9765,413.66,529.76
24.9965,413.52,529.2
25.0164,414.42,529.36
25.0364,413.74,528.89
25.0564,413.19,528.31
25.0765,413.35,528.65
25.0966,413.28,529.32
25.1163,413.22,529.46
25.1363,413.38,528.76
25.1563,413.5,528.41
25.1764,412.4,528.53
25.1963,411.92,528.82
25.2164,411.34,529.26
25.2365,411.87,530.01
25.2563,411.7,530.41
25.2765,411.96,531.12
25.2963,411.77,530.9
25.3162,411.21,531.52
25.3364,410.37,531.42
25.3564,410.3,531.93
25.3764,410.64,531.75
25.3965,410.31,531.2
25.4165,410.45,531.16
25.4364,410.36,529.93
25.4564,410.09,529.94
25.4764,410.27,530.75
25.4964,409.62,531.2
25.5163,408.89,530.96
25.5366,409.11,530.97
25.5565,408.49,530.78
25.5764,408.19,530.62
25.5963,407.75,530.3
25.6164,408.2,530.24
25.6364,407.96,530.39
25.6565,407.97,530.91
25.6764,408.58,530.73
25.6964,408.26,530.38
25.7162,408.61,530.11
25.7365,408.89,529.49
25.7564,409.11,529.99
25.7765,408.49,529.39
25.7965,407.99,528.11
25.8163,407.59,527.49
25.8366,407.07,526.99
25.8565,407.06,527.19
25.8764,406.65,528.15
25.8964,403.92,528.92
25.9163,392.93,529.54
25.9363,374.95,529.83
25.9565,354.76,531.07
25.9764,334.01,528.25
25.9964,315.61,520.6
26.0163,299.28,509.08
26.0364,286.43,496.67
26.0564,278.34,487.33
26.0763,274.47,478.47
26.0964,274.58,471.77
26.1164,279.06,466.62
26.1363,284.25,464.29
26.1565,292.8,464.64
26.1764,302.04,467.31
26.1964,312.43,472.25
26.2165,322.15,478.8
26.2365,330.92,484.84
26.2565,338.93,490.67
26.2765,346.75,495.74
26.2963,353,500.39
26.3163,359.4,504.31
26.3365,364.92,507.65
26.3564,370.93,510.72
26.3765,375.55,513.18
26.3964,379.24,515.54
26.4163,382.99,517.03
26.4364,385.79,519.43
26.4563,388.83,521.54
26.4765,391.87,522.43
26.4965,394.09,522.75
26.5165,395.67,523.4
26.5365,396.94,524.72
26.5564,397.75,525.77
26.5763,398.8,527.22
26.5964,400.24,528.78
26.6163,400.59,530.02
26.6364,401.07,531.02
26.6564,401.06,531.81
26.6764,400.65,532.25
26.6964,400.92,533
26.7163,402.53,533.6
26.7365,403.23,534.48
26.7565,403.58,533.38
26.7764,403.07,531.91
26.7964,402.65,531.33
26.8163,402.72,530.26
26.8365,402.78,529.41
26.8564,402.62,528.73
26.8764,401.3,528.98
26.8964,400.44,531.39
26.9163,408.15,538.11
26.9363,423.12,548.49
26.9565,443.9,559.59
26.9765,468.32,572.27
26.9964,492.85,584.02
27.0162,515.48,590.81
27.0364,531.39,592.85
27.0565,536.71,592.28
27.0765,536.97,588.42
27.0965,531.57,583.34
27.1163,525.06,579.07
27.1364,515.85,573.06
27.1564,505.88,568.25
27.1764,495.3,563.8
27.1964,485.24,559.44
27.2165,475.59,556.15
27.2364,466.67,552.52
27.2562,457.94,549.82
27.2763,450.55,546.45
27.2964,443.24,543.56
27.3163,439.39,545.45
27.3365,440.11,548.96
27.3565,441.09,550.97
27.3764,440.47,551.37
27.3964,438.58,550.5
27.4162,436.46,549
27.4363,433.77,547.8
27.4563,430.42,545.84
27.4764,428.53,544.47
27.4964,425.03,542.98
27.5165,420.82,540.98
27.5362,418.86,539.39
27.5564,416.29,537.91
27.5761,415.23,536.13
27.5965,413.78,534.7
27.6163,413.23,533.16
27.6364,411.38,532.73
27.6564,408.7,532.78
27.6765,408.56,533.63
27.6964,408.25,534.1
27.7162,407.8,534.08
27.7363,407.84,534.06
27.7563,407.27,533.85
27.7764,407.62,533.08
27.7962,407.29,532.47
27.8162,406.04,531.77
27.8365,405.43,532.02
27.8565,404.54,531.81
27.8764,403.43,531.65
27.8964,402.95,530.72
27.9162,402.16,530.58
27.9364,402.33,531.06
27.9564,402.66,531.05
27.9763,402.53,531.64
27.9965,400.82,531.11
28.0164,400.86,531.69
28.0365,400.09,532.15
28.0562,400.67,532.72
28.0764,399.94,532.18
28.0963,400.35,532.54
28.1164,399.68,532.23
28.1363,400.54,530.99
28.1564,401.23,530.79
28.1764,401.39,529.83
28.1963,401.71,529.67
28.2163,401.77,529.73
28.2363,401.61,530.19
28.2562,402.09,530.75
28.2762,401.27,530.4
28.2964,401.22,530.32
28.3164,400.37,530.06
28.3365,400.1,529.44
28.3565,399.88,529.36
28.3764,400.1,530.88
28.3964,399.68,533.31
28.4163,400.15,534.45
28.4364,400.52,534.96
28.4564,400.61,534.97
28.4764,400.69,534.37
28.4964,401.15,534.1
28.5164,400.72,534.08
28.5364,400.78,534.06
28.5564,401.42,533.65
28.5764,402.14,533.32
28.5965,401.31,533.46
28.6163,400.65,532.16
28.6364,399.92,531.73
28.6564,400.33,531.19
28.6763,399.87,530.15
28.6966,399.69,529.92
28.7164,399.56,529.33
28.7364,399.44,528.87
28.7564,399.16,528.89
28.7764,399.52,529.32
28.7963,399.42,528.65
28.8164,399.34,528.12
28.8362,400.07,527.7
28.8565,400.65,527.96
28.8764,401.72,527.77
28.8965,402.18,528.61
28.9163,401.94,528.69
28.9364,402.75,528.75
28.9563,402.4,528.8
28.9765,401.52,528.84
28.9964,401.42,528.27
29.0163,400.93,528.22
29.0365,400.15,528.37
29.0563,400.32,528.5
29.0764,401.25,527.4
29.0963,401.2,527.32
29.1165,401.56,527.66
29.1365,401.25,528.12
29.1563,400.6,527.3
29.1764,400.28,526.84
29.1964,400.62,526.87
29.2163,400.7,527.5
29.2363,400.16,527.8
29.2564,400.33,527.64
29.2765,399.86,527.51
29.2964,399.69,527.01
29.3161,399.95,526.81
29.3365,400.96,526.85
29.3565,400.97,526.28
29.3763,400.58,526.22
29.3965,401.06,526.98
29.4162,401.85,527.78
29.4364,400.88,528.23
29.4565,400.9,529.38
29.4764,400.12,530.1
29.4964,400.3,530.88
29.5162,400.64,531.31
29.5373,401.31,531.25
29.5574,401.05,530.8
29.5773,400.64,530.44
29.5974,400.91,529.75
29.6175,401.53,529.8
29.6374,401.82,529.64
29.6574,401.86,529.31
29.6775,402.49,528.85
29.6972,403.19,529.48
29.7171,403.55,530.18
29.7372,403.04,530.15
29.7573,402.83,529.92
29.7782,403.87,529.73
29.7983,404.09,529.79
29.8184,404.07,529.23
29.8383,403.86,528.78
29.8583,404.09,528.03
29.8784,404.47,527.82
29.8983,403.98,527.06
29.9194,405.18,527.05
29.9394,405.54,527.64
29.9594,406.04,527.51
29.9793,406.03,528.01
29.9993,406.62,527.01
30.0193,406.7,526.4
30.0394,406.56,526.92
30.0593,405.85,526.94
30.0794,406.08,527.35
30.0992,406.66,527.28
30.1193,407.33,527.02
30.1393,407.86,526.82
30.1593,408.29,526.66
30.1795,408.03,526.72
30.1992,407.63,527.18
30.2194,407.9,527.94
30.2393,408.32,528.56
30.2593,408.86,529.64
30.2803,409.89,529.92
30.3002,410.51,530.53
30.3204,411.21,530.83
30.3403,412.37,530.46
30.3603,412.89,530.57
30.3814,413.91,530.45
30.4012,414.13,530.76
30.4212,415.1,531.81
30.4413,415.48,532.45
30.4614,415.99,532.36
30.4814,416.39,532.49
30.5013,416.51,531.79
30.5214,416.61,531.43
30.5411,417.29,531.15
30.5613,418.03,530.92
30.5813,419.02,530.73
30.6013,419.22,530.99
30.6213,418.98,530.79
30.6414,415.38,529.23
30.6614,403.7,525.59
30.6814,384.96,521.87
30.7011,363.57,520.29
30.7215,343.06,520.84
30.7413,324.25,519.87
30.7613,308.6,514.69
30.7814,297.08,505.56
30.8012,290.46,496.64
30.8213,288.17,488.72
30.8414,289.34,482.37
30.8613,292.07,476.9
30.8813,296.45,473.92
30.9014,302.56,471.73
30.9213,309.45,470.59
30.9413,319.16,471.27
30.9612,327.13,473.42
30.9812,336.9,476.53
31.0015,344.92,480.23
31.0213,352.54,484.38
31.0413,359.43,489.1
31.0614,366.54,493.88
31.0814,373.24,498.91
31.1013,379.39,502.93
31.1214,384.71,506.14
31.1414,389.37,509.11
31.1613,393.49,511.49
31.1813,397,513.59
31.2015,400.6,515.47
31.2215,403.08,517.18
31.2413,406.26,518.94
31.2613,408.61,520.15
31.2814,411.49,521.92
31.3013,413.19,523.74
31.3213,415.15,525.59
31.3413,416.12,526.87
31.3614,417.3,527.5
31.3813,417.44,527.8
31.4015,418.55,528.24
31.4213,418.44,528.79
31.4413,420.55,529.43
31.4614,421.44,530.15
31.4813,421.55,530.92
31.5012,421.24,531.53
31.5213,421.19,533.43
31.5413,425.16,539.74
31.5614,432.52,555.79
31.5814,446.02,579.83
31.6015,463.62,609.47
31.6213,485.69,642.17
31.6413,506.55,669.54
31.6613,527.04,682.23
31.6813,544.83,679.79
31.7012,559.87,665.03
31.7219,567.69,644.42
31.7414,570.16,620.74
31.7613,566.92,596.99
31.7814,558.94,574.99
31.8015,548.15,555.79
31.8213,536.72,541.04
31.8413,525.18,527.43
31.8612,513.34,516.94
31.8814,502.67,509.95
31.9011,492.34,504.76
31.9213,483.27,501.61
31.9413,475.62,500.89
31.9611,468.89,500.31
31.9812,463.31,501.25
32.0012,458.85,502.4
32.0212,454.08,505.12
32.0411,449.87,507.5
32.0611,445.69,510.2
32.0821,442.35,512.76
32.1022,439.88,514.81
32.1223,437.71,517.24
32.1423,435.97,519.2
32.1623,433.77,521.36
32.1822,432.82,522.89
32.2023,432.25,523.91
32.2223,431.8,525.13
32.2424,430.64,526.5
32.2623,430.31,527.4
32.2821,429.65,527.92
32.3023,428.92,529.34
32.3221,428.94,530.07
32.3424,427.35,531.26
32.3624,427.08,532
32.3821,426.66,533
32.4033,425.93,534
32.4234,424.74,533.6
32.4433,422.8,533.68
32.4634,422.44,533.55
32.4831,422.35,534.24
32.5033,423.08,534.99
32.5233,422.86,534.99
32.5433,424.09,535.39
32.5632,423.47,535.71
32.5844,423.18,535.37
32.6043,423.34,534.9
32.6243,423.27,534.12
32.6444,423.22,534.89
32.6643,422.38,534.92
32.6845,422.9,535.33
32.7043,423.32,535.67
32.7243,423.66,535.33
32.7443,423.12,534.47
32.7644,423.5,534.57
32.784,423,534.66
32.8043,423.6,534.93
32.8243,423.08,535.54
32.8444,423.46,536.23
32.8644,422.37,535.99
32.8843,423.1,535.79
32.9044,422.68,535.63
32.9244,421.74,536.11
32.9443,421.79,536.68
32.9643,421.83,536.35
32.9843,422.07,535.68
33.0043,421.65,535.74
33.0243,420.32,535.99
33.0443,419.66,535.6
33.0641,419.53,534.88
33.0843,419.22,534.7
33.1042,418.78,534.36
33.1243,418.82,534.29
33.1443,418.86,534.23
33.1643,419.29,534.38
33.1843,419.83,534.51
33.2043,419.46,535.01
33.2243,419.37,535.2
33.2443,420.1,535.16
33.2643,419.88,535.53
33.2842,420.7,535.82
33.3042,420.36,535.66
33.3243,419.89,535.13
33.3443,419.31,534.7
33.3643,419.45,534.56
33.3841,419.36,534.45
33.4043,418.49,534.16
33.4243,418.59,533.53
33.4443,418.27,533.22
33.4643,418.42,533.38
33.4841,417.53,533.9
33.5041,417.63,533.92
33.5243,417.9,533.94
33.5442,418.72,534.35
33.5643,418.58,534.28
33.5842,418.86,534.62
33.604,419.29,534.5
33.6243,419.83,534.2
33.6442,420.87,534.36
33.6642,420.29,534.29
33.6844,420.03,534.43
33.7043,420.43,533.94
33.7241,420.54,533.56
33.7443,420.63,533.84
33.7643,420.51,533.68
33.7843,419.41,533.94
33.8042,419.52,533.55
33.8242,419.42,533.24
33.8442,419.54,532.79
33.8643,419.63,533.43
33.8841,419.9,532.75
33.9042,418.72,532.4
33.9241,418.78,532.32
33.9444,417.22,532.45
33.964,417.38,532.56
33.9844,417.7,532.05
34.0043,416.96,531.84
34.0243,416.97,532.27
34.0443,417.18,532.82
34.0643,418.14,533.25
34.0842,418.31,533.4
34.1054,416.85,532.72
34.1251,415.68,532.38
34.1452,415.94,532.7
34.1653,414.96,532.16
34.1853,414.16,532.53
34.2052,413.93,532.22
34.2251,413.75,532.58
34.245,414.4,532.66
34.2651,414.32,532.73
34.2853,414.05,532.78
34.3052,413.24,532.63
34.3251,413.19,532.5
34.3452,413.36,532
34.3653,412.88,531.8
34.3851,412.91,531.44
34.4062,412.13,531.75
34.4261,410.9,531.8
34.4461,410.52,531.24
34.4662,409.62,530.99
34.4861,409.69,531.19
34.5063,408.75,531.36
34.5262,408.2,531.68
34.546,407.56,531.95
34.5673,406.25,530.96
34.5872,405.4,530.77
34.6072,405.52,532.21
34.6273,405.42,532.97
34.6471,405.53,532.98
34.6672,405.43,532.38
34.6872,405.14,531.9
34.7072,405.11,531.32
34.7273,404.69,531.66
34.7472,403.95,531.33
34.7671,403.36,531.26
34.7872,403.49,531.61
34.8073,403.19,531.49
34.8272,403.75,531.99
34.8472,403,532.39
34.867,403.2,532.31
34.8873,402.96,531.65
34.9074,403.57,531.92
34.9273,403.46,531.94
34.9472,402.96,532.95
34.9671,402.57,533.36
34.9871,402.46,533.09
35.0072,402.77,533.07
35.0272,403.61,534.06
35.0472,403.89,533.84
35.067,404.11,533.48
35.0872,404.29,533.58
35.1072,403.83,532.86
35.1271,404.07,533.09
35.1474,403.65,532.47
35.1671,403.32,532.18
35.187,402.46,531.74
35.2073,402.17,531.59
35.2273,402.13,531.68
35.2472,402.71,531.34
35.267,402.76,531.47
35.2872,402.01,530.58
35.3072,401.41,530.46
35.3273,400.53,531.17
35.3473,400.02,531.54
35.367,399.62,531.43
35.3872,399.49,531.54
35.4072,399.2,531.43
35.427,399.16,531.95
35.4472,398.93,532.36
35.4672,399.34,531.49
35.4872,399.67,530.19
35.5072,400.14,529.35
35.5273,400.71,529.68
35.547,400.97,530.54
35.5671,395.77,530.24
35.5873,382.02,528.39
35.6073,360.42,527.11
35.6273,337.53,526.09
35.6473,317.63,522.87
35.6673,300.9,517.1
35.6871,287.72,508.48
35.7072,279.38,498.98
35.7273,276.7,490.79
35.7472,277.36,484.43
35.767,282.09,479.94
35.7872,287.07,478.55
35.8074,294.06,479.44
35.8272,299.65,481.75
35.8472,307.72,484.2
35.8673,314.57,485.56
35.8872,321.46,487.25
35.9073,329.77,490
35.9272,337.81,493.2
35.9473,345.65,496.56
35.967,351.92,500.05
35.9872,357.94,503.44
36.0074,363.95,506.55
36.0273,368.56,509.44
36.0472,372.85,511.95
36.0672,376.28,514.76
36.0871,380.02,517.21
36.1072,382.42,518.77
36.1272,384.93,520.21
36.1472,387.55,522.17
36.1671,390.24,522.94
36.1872,391.79,524.75
36.2072,393.03,526
36.2273,394.23,527.2
36.2472,394.78,528.36
36.2672,395.42,529.29
36.2869,396.14,530.83
36.3072,397.31,532.26
36.3271,397.45,533.61
36.3472,398.16,535.29
36.3673,398.13,537.43
36.3872,401.1,536.74
36.4072,401.88,535.2
36.4272,402.51,534.36
36.4471,403,534.09
36.4672,404,533.27
36.487,404.8,532.61
36.5071,404.24,532.29
36.5271,404.59,531.83
36.5471,404.08,532.87
36.567,410.86,536.09
36.5874,425.09,545.27
36.6071,445.27,558.42
36.6272,469.42,570.14
36.6472,495.93,581.31
36.6671,520.15,589.25
36.687,537.32,594.6
36.7071,543.85,595.08
36.728,542.08,590.46
36.748,535.67,584.77
36.768,527.33,578.62
36.7881,517.27,571.29
36.8082,505.61,564.83
36.8281,495.29,559.07
36.8483,485.43,555.05
36.8683,475.95,551.84
36.8882,472.76,550.87
36.908,469.01,550.5
36.9281,464,549
36.948,458.2,547.4
36.968,452.76,545.52
36.9882,447.21,544.42
37.0081,441.97,543.53
37.0281,437.77,541.43
37.0483,433.62,540.34
37.0683,430.3,539.27
37.0881,427.24,538.02
37.1081,423.39,537.01
37.1281,420.11,536.61
37.148,417.29,535.69
37.168,415.43,535.35
37.1881,413.35,534.48
37.208,411.68,534.18
37.228,409.74,533.35
37.2482,408.79,532.48
37.2681,408.23,531.38
37.2883,407.59,530.91
37.3081,406.47,531.12
37.3282,406.18,531.5
37.3483,406.14,531.8
37.3681,406.11,530.64
37.3881,407.29,531.11
37.4082,407.63,531.49
37.4281,406.31,531.19
37.4482,404.84,530.75
37.4681,403.28,530.6
37.4882,402.22,530.68
37.5082,401.18,530.75
37.5282,401.54,530.6
37.5479,401.43,531.08
37.5682,401.55,531.66
37.588,400.84,531.33
37.6081,401.47,531.26
37.6281,400.98,532.41
37.6483,401.58,532.73
37.6681,401.66,532.78
37.6881,401.93,532.83
37.7081,401.95,533.06
37.7281,402.56,533.25
37.7484,403.24,533.2
37.768,404.4,533.56
37.7882,405.12,535.45
37.8079,405.49,538.96
37.8281,405.19,540.97
37.848,404.76,542.37
37.8682,404.8,542.3
37.8882,405.24,541.64
37.9082,405.39,540.71
37.9282,405.32,539.77
37.9483,404.45,539.62
37.9681,404.36,538.69
37.9881,403.69,537.75
38.008,403.35,536.8
38.0281,403.68,535.44
38.0482,403.75,534.35
38.0682,403.6,533.28
38.0882,404.28,533.03
38.1079,405.02,532.62
38.1281,405.22,532.7
38.148,405.37,532.36
38.1681,405.7,531.89
38.1881,405.56,531.51
38.2081,405.45,531.61
38.2281,405.76,532.49
38.2481,406.01,532.59
38.268,407.01,532.47
38.288,406.2,531.78
38.3081,405.96,532.22
38.3279,405.37,532.58
38.3482,405.1,532.26
38.3681,404.88,532.21
38.3882,404.7,531.57
38.4082,404.76,531.25
38.4279,404.41,531.8
38.4479,403.93,532.04
38.4683,403.34,531.63
38.4881,403.47,531.51
38.5081,402.58,531.21
38.528,403.06,530.96
38.5481,403.45,530.77
38.5681,403.36,531.42
38.5879,404.09,531.33
38.608,403.87,532.27
38.6282,404.3,532.21
38.6481,404.84,532.17
38.6681,405.87,531.74
38.6881,406.5,531.39
38.7082,407,531.91
38.7281,406.6,532.33
38.7479,406.48,532.26
38.7679,406.98,533.41
38.788,407.59,534.13
38.808,408.07,533.9
38.8282,408.05,533.12
38.8483,407.04,532.3
38.8681,406.84,531.84
38.8881,406.07,531.67
38.9081,406.45,531.34
38.9281,406.76,531.47
38.9481,405.81,531.78
38.9682,406.25,531.42
38.9881,406.2,531.34
39.0081,405.16,532.07
39.0279,405.33,531.86
39.0483,405.26,531.48
39.068,405.81,531.19
39.0881,405.25,530.95
39.1079,405.4,531.16
39.128,405.52,531.33
39.1481,405.21,531.86
39.1681,405.37,532.09
39.1881,406.3,532.27
39.208,406.04,532.42
39.2279,406.43,532.53
39.248,406.54,532.83
39.2683,406.04,533.66
39.2881,406.43,534.73
39.3082,407.34,535.38
39.3281,407.27,535.71
39.3482,407.62,536.17
39.3683,407.9,536.13
39.3882,408.32,535.91
39.408,408.05,535.72
39.4281,407.04,535.38
39.4483,407.43,535.1
39.4681,406.95,534.08
39.4881,407.16,533.47
39.5082,406.53,531.97
39.5281,408.02,531.38
39.5481,408.02,531.5
39.5681,409.21,531.8
39.5881,409.37,531.84
39.6082,409.1,532.07
39.6281,408.48,532.06
39.6484,407.98,531.65
39.6683,407.59,530.12
39.688,407.47,530.69
39.7081,407.97,531.36
39.7281,408.18,531.08
39.7483,409.34,530.27
39.7679,408.68,529.61
39.7879,408.74,529.49
39.8081,408.99,528.79
39.8281,409.39,528.43
39.8482,409.51,528.55
39.8679,409.41,527.84
39.8882,409.53,528.07
39.9081,409.02,527.66
39.9282,406.82,527.93
39.9481,398.46,528.34
39.968,383.76,527.47
39.9882,365.01,528.38
40.0083,343.61,527.5
40.0282,323.89,525
40.0479,307.71,518.2
40.068,293.97,508.56
40.0882,284.97,498.45
40.1083,279.98,488.76
40.1281,278.78,481.61
40.1481,280.03,477.69
40.1682,285.02,476.35
40.1881,290.22,476.48
40.208,297.57,478.18
40.2281,305.46,480.95
40.2481,313.77,484.36
40.2681,323.41,488.09
40.2881,331.73,492.27
40.3081,339.78,496.41
40.3281,347.83,500.73
40.3481,355.46,505.19
40.3681,361.57,508.95
40.3881,368.66,512.36
40.4081,374.12,515.29
40.4281,378.9,518.23
40.4482,383.32,519.98
40.468,387.26,521.19
40.4881,391,522.35
40.5081,394,524.68
40.5281,396.2,526.34
40.5481,398.36,527.87
40.568,400.69,529.1
40.5878,402.75,530.48
40.6081,404,531.78
40.6282,404.8,533.03
40.6481,406.04,533.62
40.6691,407.83,534.1
40.689,408.47,534.68
40.7091,409.97,535.34
40.729,410.98,535.27
40.7489,411.78,535.22
40.7692,412.23,534.78
40.7889,413.18,534.62
40.8091,414.14,534.3
40.8292,415.32,533.44
40.849,415.65,533.15
40.8692,415.52,533.52
40.8891,424.22,540.42
40.9092,440.37,551.53
40.9291,461.7,564.63
40.9493,487.16,576.1
40.9691,513.13,583.48
40.9889,537.9,590.18
41.0091,558.12,593.15
41.029,565.9,592.32
41.0491,565.92,588.65
41.0691,560.53,583.32
41.0889,552.03,577.26
41.1091,539.62,571.81
41.129,528.9,566.65
41.1489,517.32,561.92
41.169,507.45,557.73
41.1891,501.76,555.39
41.2092,496.41,551.91
41.2289,490.33,549.13
41.2489,483.26,546.5
41.2702,476.01,544.6
41.2901,470.01,542.68
41.31,464.61,540.74
41.33,459.49,539.6
41.3499,453.79,538.28
41.3699,449.23,537.22
41.39,446.18,536.58
41.41,442.35,535.86
41.43,439.68,535.29
41.4501,437.74,534.23
41.47,436.39,533.99
41.49,435.32,533.19
41.5098,433.85,532.55
41.5298,432.88,532.64
41.5501,430.71,532.91
41.571,429.96,533.33
41.591,428.57,533.46
41.6112,428.86,533.37
41.6311,427.69,533.1
41.6511,425.95,533.48
41.671,424.96,533.58
41.6911,425.17,534.27
41.7111,424.33,535.21
41.7311,423.47,536.57
41.7509,423.37,536.86
41.771,424.1,537.68
41.7911,425.28,538.15
41.811,424.62,538.92
41.831,424.3,539.33
41.8511,424.04,539.67
41.871,424.23,540.13
41.8911,424.58,541.11
41.911,425.67,542.09
41.931,426.33,541.87
41.9512,426.27,541.69
41.971,426.21,540.76
41.9911,425.37,540.4
42.0109,424.7,539.32
42.0311,424.96,538.26
42.0511,424.97,537.21
42.0711,424.57,536.57
42.091,424.46,535.85
42.1111,424.57,536.28
42.1311,424.05,535.63
42.1511,424.44,535.1
42.171,423.75,534.68
42.191,424.2,534.74
42.211,423.96,534.6
42.2309,424.37,533.68
42.251,424.1,533.14
42.2711,424.08,533.11
42.291,423.66,533.09
42.311,422.93,532.87
42.3311,422.74,532.9
42.3511,422.39,532.92
42.3711,422.32,533.13
42.3911,423.05,533.91
42.4111,423.44,533.93
42.431,423.15,535.34
42.4511,422.32,535.47
42.471,422.26,535.38
42.491,423.01,535.3
42.511,425.01,534.84
42.531,425.6,535.47
42.5512,425.68,535.58
42.5709,424.75,535.26
42.591,423.6,535.61
42.6111,423.48,535.09
42.6311,423.18,534.47
42.651,423.15,533.98
42.671,422.32,533.98
42.691,423.05,533.99
42.7111,423.44,533.79
42.731,423.95,533.23
42.7509,424.36,532.18
42.771,425.29,531.95
42.7911,424.83,531.96
42.8111,424.07,532.57
42.8311,423.65,533.45
42.8511,424.12,534.56
42.8711,424.3,538.05
42.8911,425.24,547.44
42.9111,427.99,566.55
42.931,431.79,591.24
42.9511,433.63,605.99
42.971,434.91,609.39
42.9908,433.73,606.32
43.011,432.18,604.05
43.031,431.54,605.24
43.0508,430.64,610.99
43.0712,430.71,618.19
43.0911,429.37,625.96
43.1111,430.09,626.56
43.1308,429.87,621.65
43.1512,430.1,610.52
43.171,429.08,593.02
43.1911,428.26,573.41
43.211,426.21,554.93
43.2311,424.37,538.54
43.2511,422.1,523.04
43.271,419.68,510.63
43.291,417.54,501.5
43.3109,415.83,494.8
43.3311,415.47,491.44
43.3509,415.97,489.55
43.3708,416.38,487.44
43.391,415.1,487.75
43.4109,415.48,489.6
43.4311,418.19,491.88
43.451,425.35,503.71
43.4711,439.68,517.96
43.491,457.14,531.17
43.5111,472.71,538.74
43.5309,478.57,540.99
43.5509,479.46,542.79
43.571,477.57,543.23
43.591,474.65,540.59
43.6111,470.32,539.47
43.631,466.26,537.78
43.6508,461.21,538.02
43.671,459.96,537.82
43.6908,462.57,538.45
43.7109,462.26,538.56
43.7309,460.01,536.65
