Program Time [s],data 0,data 1
118.614,408.46,527.03
118.633,408.97,527.82
118.653,410.57,528.26
118.673,410.46,529.4
118.693,411.77,530.52
118.713,413.61,531.62
118.733,411.09,529.7
118.753,410.27,530.36
118.773,412.42,533.48
118.793,414.93,540.59
118.813,415.55,548.27
118.833,416.84,552.22
118.853,416.27,553.37
118.873,416.02,551.7
118.893,419.61,550.56
118.913,420.09,545.05
118.933,422.27,541.44
118.953,419.42,533.55
118.973,422.93,531.64
118.993,419.55,530.11
119.013,417.64,522.49
119.033,411.31,521.39
119.053,418.45,520.71
119.073,421.56,520.37
119.093,426.05,521.1
119.113,426.04,523.08
119.133,425.03,524.86
119.153,431.02,528.29
119.173,430.62,530.83
119.193,429.5,533.27
119.213,430.2,537.21
119.233,426.16,538.97
119.253,426.33,540.38
119.273,425.66,541.7
119.293,424.53,541.96
119.313,427.02,537.17
119.334,425.82,538.93
119.354,426.45,543.55
119.374,415.96,536.24
119.394,400.17,525.19
119.414,381.54,512.75
119.434,363.03,499.2
119.454,342.42,485.36
119.474,324.94,475.09
119.494,310.55,467.07
119.514,300.24,460.46
119.535,294.19,457.57
119.554,292.55,455.25
119.574,292.64,456.2
119.594,294.31,460.36
119.614,298.25,465.69
119.634,306,471.35
119.654,314.8,475.08
119.674,322.64,479.66
119.694,330.71,482.73
119.714,339.37,490.59
119.734,345.7,496.47
119.754,354.76,500.57
119.774,360.81,504.06
119.794,367.24,509.65
119.814,374.6,512.32
119.834,379.28,516.05
119.854,386.02,518.24
119.874,390.02,520.59
119.894,396.61,522.88
119.914,397.29,524.5
119.934,399.43,525.8
119.954,401.55,525.64
119.974,404.84,526.31
119.994,406.07,526.85
120.014,407.46,528.48
120.034,407.96,529.78
120.054,409.17,530.63
120.074,409.54,532.9
120.094,410.63,533.32
120.114,410.3,534.86
120.134,412.24,536.29
120.154,412.39,534.43
120.174,412.92,534.54
120.194,415.73,538.43
120.214,421.79,548.75
120.234,434.23,562
120.254,453.98,582
120.274,474.79,602.6
120.294,501.03,621.68
120.314,530.02,632.34
120.334,554.22,635.27
120.354,573.97,633.42
120.374,578.98,626.54
120.394,576.98,616.03
120.414,569.39,604.62
120.434,558.31,595.7
120.454,545.65,584.16
120.474,533.92,575.93
120.494,518.53,563.74
120.514,509.63,554.59
120.534,497.1,548.87
120.554,490.08,543.3
120.574,482.47,538.84
120.594,473.97,535.47
120.614,468.98,533.78
120.634,462.38,531.82
120.654,454.51,529.66
120.674,449,529.13
120.694,444.2,528.7
120.714,439.56,529.16
120.734,436.25,529.53
120.754,432,527.62
120.774,427.8,528.1
120.794,424.44,529.88
120.814,422.15,530.9
120.834,420.72,536.12
120.854,420.38,538.5
120.874,420.9,544.2
120.894,425.12,554.96
120.914,424.1,560.77
120.934,421.88,553.41
120.954,426.1,554.33
120.974,428.28,555.86
120.994,423.63,539.29
121.014,429.7,544.83
121.034,438.56,545.67
121.054,448.05,549.73
121.074,447.84,542.59
121.094,452.47,536.07
121.114,452.58,529.06
121.135,454.46,529.44
121.154,460.57,522.36
121.174,466.26,515.48
121.194,458,505.59
121.214,458.4,506.07
121.234,444.52,501.46
121.254,428.62,505.16
121.274,438.69,517.93
121.294,432.96,524.95
121.314,427.36,524.36
121.334,424.89,530.69
121.354,417.71,529.75
121.374,413.97,532
121.394,409.78,532
121.414,409.42,531
121.434,407.14,531.4
121.454,403.11,531.12
121.474,398.89,528.5
121.494,397.91,529.6
121.514,397.13,529.48
121.534,398.1,533.78
121.554,401.08,536.63
121.574,402.07,540.3
121.594,401.85,540.24
121.614,401.88,541.59
121.634,402.71,540.07
121.654,403.76,540.26
121.674,405.61,541.41
121.694,404.29,540.13
121.714,405.43,539.5
121.734,406.55,537.8
121.754,408.24,537.64
121.774,409.99,535.91
121.794,411.39,536.53
121.814,411.51,537.02
121.834,410.01,538.02
121.854,410.21,538.02
121.874,410.77,537.21
121.894,410.61,537.37
121.914,410.49,536.1
121.934,410.39,533.08
121.954,410.51,531.46
121.974,410.01,530.17
121.994,409.41,528.34
122.014,408.93,527.87
122.034,408.34,527.49
122.054,407.87,526.6
122.074,407.3,527.28
122.094,408.04,528.42
122.114,408.03,530.34
122.134,407.62,531.07
122.154,406.9,530.86
122.174,407.32,530.88
122.194,406.86,530.71
122.214,406.68,530.57
122.234,407.15,531.05
122.254,406.12,529.44
122.274,406.89,529.55
122.294,407.32,530.44
122.314,406.45,530.35
122.334,406.36,530.88
122.354,406.49,530.91
122.374,406.59,531.13
122.394,407.87,532.3
122.414,406.7,531.84
122.434,406.96,532.07
122.454,406.97,531.86
122.474,406.37,531.69
122.494,404.9,531.15
122.514,404.32,531.72
122.534,405.26,531.38
122.554,404,531.1
122.574,404,531.48
122.594,403.8,531.38
122.614,404.24,531.31
122.634,403.19,530.85
122.654,404.36,531.28
122.674,403.88,531.02
122.694,402.91,530.62
122.714,402.73,531.09
122.734,403.18,532.27
122.754,403.34,532.62
122.774,403.68,534.5
122.794,398.74,535.6
122.814,386.39,535.08
122.834,367.11,531.66
122.854,346.49,525.73
122.874,325.39,514.58
122.895,305.91,500.47
122.915,289.13,483.77
122.935,275.91,468.62
122.955,266.52,456.1
122.975,262.42,447.68
122.995,261.34,443.54
123.015,262.47,442.43
123.035,265.77,445.75
123.055,271.62,450
123.075,278.7,455.4
123.095,286.56,460.72
123.115,295.05,466.77
123.135,304.04,473.42
123.155,312.63,480.54
123.175,321.5,487.43
123.195,330,493.14
123.215,338,498.91
123.235,345.2,504.13
123.255,352.16,509.31
123.275,358.33,514.44
123.295,363.06,518.36
123.315,367.45,521.48
123.335,371.96,525.39
123.355,373.97,527.31
123.375,377.37,529.65
123.395,380.9,531.52
123.415,383.32,532.81
123.435,386.06,533.65
123.455,388.04,534.32
123.475,390.24,534.06
123.495,391.19,534.05
123.515,392.35,534.64
123.535,392.08,536.11
123.555,399.26,543.69
123.575,412.61,559.95
123.595,432.09,585.76
123.615,454.67,612.21
123.635,480.14,632.77
123.655,508.51,648.81
123.675,534.21,667.65
123.695,557.57,689.72
123.715,574.25,716.38
123.735,582.4,733.7
123.755,580.92,735.96
123.775,574.14,721.17
123.795,562.71,694.13
123.815,548.77,661.31
123.835,532.21,628.05
123.855,516.57,597.24
123.875,501.06,569.19
123.895,485.65,543.55
123.915,473.12,521.84
123.935,461.89,504.47
123.955,451.71,491.18
123.975,443.57,482.34
123.995,436.66,475.67
124.015,431.13,473.54
124.035,426.1,472.83
124.055,421.28,473.87
124.075,419.42,476.89
124.095,417.34,480.31
124.115,414.87,482.65
124.136,413.3,487.52
124.156,411.64,492.22
124.176,410.11,495.97
124.196,408.49,499.78
124.216,407.39,503.02
124.236,406.91,505.42
124.256,405.33,508.73
124.276,405.06,512.39
124.296,405.25,515.11
124.316,404.8,517.29
124.336,404.24,519.83
124.356,403.79,521.86
124.376,403.43,523.89
124.396,403.55,525.71
124.416,403.84,528.17
124.436,403.67,530.14
124.457,404.34,531.71
124.477,403.87,533.17
124.497,404.3,534.13
124.517,404.24,535.71
124.537,403.79,536.57
124.557,403.23,536.85
124.577,404.38,536.88
124.597,403.91,537.51
124.617,404.73,538
124.637,405.78,537.8
124.657,405.62,537.04
124.677,404.9,536.23
124.697,404.12,534.99
124.717,404.5,533.99
124.737,405.6,533.19
124.757,404.88,532.35
124.777,404.3,533.28
124.797,405.04,533.43
124.817,404.63,533.54
124.837,404.91,534.23
124.857,404.53,533.79
124.877,405.82,534.23
124.897,405.26,533.38
124.917,405.8,533.71
124.937,405.24,533.97
124.957,406.4,533.37
124.977,406.52,533.3
124.997,406.41,533.04
125.017,406.33,533.63
125.037,405.86,533.7
125.057,405.89,533.96
125.077,405.11,533.57
125.097,406.09,533.46
125.117,406.07,532.57
125.137,407.06,531.25
125.157,407.65,530.8
125.177,407.12,530.44
125.197,406.69,529.75
125.217,406.35,529.2
125.237,406.28,529.16
125.257,407.03,529.73
125.277,407.02,529.38
125.297,408.02,529.71
125.317,408.21,529.77
125.337,407.17,530.21
125.357,407.14,530.17
125.377,407.71,530.34
125.397,408.37,529.87
125.417,408.09,530.3
125.437,409.28,529.44
125.457,409.02,528.95
125.477,410.02,528.76
125.497,409.61,528.21
125.517,409.69,527.97
125.537,409.55,528.37
125.557,409.04,526.9
125.577,410.03,526.72
125.597,409.03,526.17
125.617,408.02,526.94
125.637,408.42,527.75
125.657,409.33,528
125.677,410.47,528.8
125.697,410.77,528.24
125.717,409.82,527.59
125.737,409.86,527.67
125.757,409.28,528.14
125.777,408.23,528.11
125.797,408.38,528.89
125.817,408.51,529.11
125.837,408.6,528.09
125.857,407.88,527.87
125.877,407.11,527.7
125.897,406.89,526.76
125.917,407.51,526.61
125.937,407.81,527.48
125.957,407.25,528.19
125.977,407.2,529.35
125.997,407.56,529.48
126.017,408.05,530.38
126.037,407.64,531.11
126.057,408.31,531.89
126.077,407.85,532.71
126.097,408.28,531.37
126.117,408.82,531.69
126.137,409.66,531.75
126.157,409.93,531.6
126.177,410.94,530.88
126.197,410.95,529.91
126.217,410.96,529.73
126.237,412.37,530.18
126.257,411.9,529.94
126.277,412.32,529.36
126.297,411.45,528.88
126.317,411.56,530.11
126.337,410.65,529.89
126.357,411.32,530.51
126.377,411.66,530.61
126.397,410.92,531.69
126.417,409.94,531.35
126.437,408.95,531.68
126.457,408.36,529.94
126.477,408.49,529.75
126.497,409.39,528.2
126.517,409.31,527.16
126.537,410.25,526.33
126.557,411,525.46
126.577,411.6,524.97
126.597,411.48,524.58
126.617,411.98,524.86
126.637,412.39,524.49
126.657,412.71,524.39
126.677,414.57,524.71
126.697,406.85,522.77
126.717,388.88,515.42
126.737,365.11,505.73
126.757,340.69,494.79
126.777,318.75,483.43
126.797,301.8,472.54
126.817,286.44,465.43
126.837,276.55,460.95
126.857,271.44,458.76
126.877,270.15,458.61
126.897,272.32,459.29
126.917,277.06,461.03
126.937,284.25,463.82
126.957,293.4,466.06
126.977,302.12,469.05
126.997,312.49,473.64
127.017,322.2,479.31
127.037,331.16,484.25
127.057,340.52,489.4
127.077,348.62,495.12
127.097,356.7,500.29
127.117,364.56,504.24
127.137,371.45,508.39
127.157,377.76,511.91
127.177,382.61,514.73
127.197,387.68,516.98
127.217,392.55,519.59
127.237,395.84,521.87
127.257,398.87,523.7
127.277,401.7,525.36
127.297,403.76,526.09
127.317,405.81,527.47
127.337,408.64,527.77
127.357,411.12,527.02
127.377,412.09,528.22
127.397,412.27,527.97
127.417,414.22,527.78
127.437,414.78,526.62
127.457,414.62,527.5
127.477,413.9,529
127.497,418.92,536.8
127.517,429.73,550.04
127.537,446.59,565.63
127.557,465.67,581.5
127.577,488.34,597.2
127.597,512.47,610.96
127.617,537.57,618.57
127.637,560.66,619.06
127.657,576.13,614.45
127.677,580.3,606.56
127.697,578.04,599.24
127.717,570.83,591.2
127.737,560.07,583.56
127.757,548.45,576.05
127.777,535.76,570.04
127.797,523.41,564.43
127.817,510.73,561.14
127.837,500.18,556.31
127.857,490.35,552.85
127.877,482.28,549.88
127.897,475.02,546.71
127.917,468.62,544.16
127.937,463.49,542.13
127.957,458.79,539.9
127.977,454.04,538.52
127.997,450.03,536.82
128.017,447.22,534.26
128.037,443.58,532.4
128.057,440.26,531.92
128.077,436.61,530.54
128.097,433.69,530.63
128.117,431.35,530.5
128.137,429.28,530.6
128.157,427.82,530.68
128.177,426.86,530.55
128.197,425.49,529.84
128.217,424.39,529.27
128.237,424.51,529.02
128.257,424.01,528.61
128.277,424.21,528.09
128.297,424.37,528.27
128.317,424.09,527.82
128.337,423.87,528.65
128.357,422.7,528.72
128.377,422.36,528.38
128.397,421.69,527.5
128.417,421.35,526.4
128.437,421.48,525.52
128.457,421.78,525.02
128.477,421.23,525.21
128.497,419.58,525.57
128.517,419.27,526.26
128.537,419.61,526.81
128.557,420.49,527.44
128.577,421.39,528.76
128.597,421.51,528.4
128.617,421.81,529.32
128.637,422.85,530.26
128.657,424.48,530.81
128.677,424.58,530.45
128.697,424.87,530.36
128.717,425.09,530.29
128.737,424.87,530.23
128.757,424.9,529.58
128.777,424.92,528.47
128.797,424.34,527.97
128.817,423.87,528.18
128.837,423.89,528.54
128.857,423.52,527.43
128.877,424.01,527.35
128.897,424.21,527.68
128.917,423.57,526.74
128.937,423.25,526.39
128.957,424.4,526.32
128.977,424.92,526.25
128.997,424.94,526.4
129.017,425.15,526.12
129.037,425.52,526.9
129.057,424.42,527.92
129.077,424.13,527.73
129.097,423.51,528.19
129.117,422.41,529.55
129.137,422.92,529.84
129.157,423.94,529.87
129.177,424.55,529.9
129.197,425.04,529.92
129.217,424.43,530.33
129.237,424.35,530.07
129.257,423.28,529.45
129.277,423.62,528.96
129.297,422.7,528.37
129.317,422.56,528.1
129.337,423.25,527.88
129.357,423.2,528.3
129.377,422.56,528.44
129.397,422.45,528.75
129.417,422.16,528.4
129.437,421.33,528.52
129.457,421.26,528.62
129.477,421.61,529.09
129.497,421.89,529.28
129.517,422.51,529.22
129.537,422.81,528.78
129.557,423.05,528.42
129.577,423.84,527.74
129.597,424.87,527.99
129.617,424.1,527.59
129.637,424.28,527.87
129.657,424.82,527.5
129.677,424.86,526.8
129.697,425.09,526.84
129.717,424.67,526.07
129.737,424.13,526.86
129.757,423.91,527.49
129.777,423.33,527.99
129.797,423.06,528.19
129.817,423.85,527.75
129.837,424.08,528.2
129.857,424.66,528.76
129.877,424.93,529.01
129.897,424.94,529.21
129.917,425.36,529.17
129.937,425.28,529.13
129.957,424.83,529.51
129.977,424.66,529.01
129.997,423.53,528.4
130.017,423.22,527.92
130.037,423.78,527.54
130.057,423.42,528.03
130.077,422.74,528.62
130.097,422.39,528.9
130.117,422.91,529.52
130.137,423.53,529.62
130.157,425.42,529.09
130.177,425.94,529.27
130.197,425.15,529.62
130.217,423.12,529.5
130.237,422.7,529
130.257,422.36,529.4
130.277,422.29,529.52
130.297,422.83,529.81
130.317,423.66,530.45
130.337,423.93,530.56
130.357,424.34,530.85
130.377,424.08,530.68
130.397,423.46,529.74
130.417,423.57,529.19
130.437,423.85,529.16
130.457,423.08,528.52
130.477,422.07,528.02
130.497,421.65,528.82
130.517,421.72,528.45
130.537,421.18,527.16
130.557,421.74,527.53
130.577,421.59,527.62
130.597,422.28,528.1
130.617,417.22,527.88
130.638,402.18,522.5
130.658,380.74,517.8
130.679,356.59,515.64
130.7,333.67,513.11
130.72,313.74,509.09
130.74,298.79,501.67
130.76,289.43,494.74
130.78,284.55,487.39
130.8,283.24,481.11
130.82,286.79,476.69
130.84,291.63,472.55
130.86,298.31,471.04
130.88,307.44,468.63
130.9,316.56,468.31
130.92,325.44,469.65
130.94,334.56,473.12
130.96,344.04,478.09
130.98,353.64,482.87
131,361.71,487.5
131.02,368.77,493.2
131.04,375.81,497.96
131.06,380.45,502.57
131.08,385.76,506.65
131.1,390.61,510.32
131.12,394.29,513.46
131.14,396.83,516.77
131.16,400.26,519.21
131.18,403.21,521.57
131.2,405.37,524.66
131.22,407.69,526.93
131.24,409.76,529.54
131.26,411.2,531.03
131.28,411.16,532.03
131.3,411.13,532.42
131.32,411.9,532.54
131.34,412.52,533.43
131.36,412.42,533.54
131.38,412.94,533.63
131.4,413.75,532.91
131.42,414.4,532.53
131.44,415.72,533.02
131.46,415.98,533.22
131.48,415.18,532.77
131.5,422.34,538.02
131.521,433.48,547.41
131.541,451.18,560.93
131.561,473.54,574.75
131.581,497.44,588.6
131.601,522.35,600.88
131.621,544.48,609.7
131.641,560.98,614.96
131.661,567.79,613.97
131.681,565.83,610.18
131.701,558.06,604.34
131.721,548.65,596.47
131.741,537.52,588.78
131.761,525.82,581.42
131.781,514.45,575.94
131.801,503.36,570.15
131.821,492.09,565.12
131.841,482.67,560.1
131.861,473.74,555.88
131.881,465.59,552.3
131.901,458.27,549.44
131.921,451.22,545.75
131.941,446.17,544.2
131.961,442.14,542.96
131.981,439.11,541.37
132.001,430.69,537.7
132.021,422.55,533.16
132.041,416.64,529.53
132.061,412.71,527.62
132.081,409.17,526.3
132.101,408.74,525.64
132.121,408.99,526.31
132.141,408.79,527.25
132.161,408.63,528
132.181,407.11,529
132.201,407.89,529.8
132.221,407.71,530.44
132.241,407.97,531.95
132.261,408.37,532.56
132.281,408.9,532.85
132.301,412.12,536.08
132.321,422.7,543.66
132.341,432.16,549.13
132.362,435.52,552.1
132.382,437.02,551.88
132.402,436.22,551.11
132.422,434.97,550.09
132.442,432.58,548.67
132.462,431.26,547.13
132.482,428.01,546.91
132.502,426.01,544.93
132.522,423.41,543.94
132.542,420.33,542.75
132.562,419.66,541
132.582,419.73,539.8
132.602,418.18,538.24
132.622,416.55,537.79
132.642,415.24,536.63
132.662,414.79,535.91
132.682,414.63,534.93
132.702,413.71,534.14
132.722,412.96,533.11
132.742,411.37,532.49
132.762,410.9,531.39
132.782,410.12,530.51
132.802,409.89,530.61
132.822,408.92,530.49
132.842,408.13,530.19
132.862,407.51,530.95
132.882,407.2,531.56
132.902,405.96,531.45
132.922,405.37,532.56
132.942,405.5,533.05
132.962,405.6,533.24
132.982,405.08,533.19
133.002,405.26,533.35
133.022,404.81,532.88
133.042,405.25,532.71
133.062,406,532.96
133.082,406.2,533.17
133.102,406.96,533.54
133.122,406.77,534.23
133.142,405.81,534.18
133.162,405.25,533.95
133.182,404.6,533.76
133.202,404.28,533.41
133.222,404.42,533.12
133.242,404.74,533.5
133.262,404.59,533.4
133.282,403.07,533.52
133.302,402.06,533.62
133.322,401.05,533.69
133.342,401.04,533.75
133.362,402.03,534.2
133.382,402.82,534.16
133.402,403.26,533.53
133.422,403.61,532.22
133.442,403.69,531.58
133.462,402.75,530.66
133.482,403.2,530.73
133.502,402.36,531.18
133.522,401.49,530.95
133.542,401.59,530.76
133.562,401.07,530.61
133.582,401.26,530.69
133.602,401.01,530.55
133.622,401.4,530.84
133.642,401.52,530.87
133.662,401.82,531.3
133.682,402.66,531.24
133.702,403.32,531.39
133.722,403.66,530.91
133.742,403.33,530.73
133.762,403.06,530.78
133.782,402.05,531.23
133.802,402.04,531.78
133.822,401.03,531.83
133.842,399.83,531.66
133.862,398.66,531.33
133.882,398.93,531.46
133.902,397.94,529.97
133.922,387.95,525.58
133.942,371.76,517.66
133.962,349.81,512.93
133.982,327.25,513.94
134.002,305.2,517.75
134.022,287.56,515
134.042,274.65,506.4
134.062,266.92,495.52
134.082,262.53,485.02
134.102,262.43,475.41
134.122,264.54,468.53
134.142,269.63,464.63
134.162,276.71,462.1
134.182,285.77,462.28
134.202,295.21,464.22
134.222,305.37,468.38
134.242,315.7,471.7
134.262,325.56,476.36
134.282,333.65,481.49
134.302,342.32,486.39
134.322,349.45,490.51
134.342,355.96,495.01
134.362,361.97,498.81
134.382,367.98,502.65
134.402,372.98,506.72
134.422,376.98,509.97
134.442,380.59,513.18
134.462,383.27,515.14
134.482,386.02,517.91
134.502,389.01,520.33
134.522,390.21,522.87
134.542,391.17,524.29
134.562,393.33,525.63
134.582,393.87,527.11
134.602,394.69,528.49
134.622,395.36,528.79
134.642,395.68,529.03
134.662,397.15,528.62
134.682,397.52,528.3
134.702,397.81,528.04
134.722,397.25,527.63
134.742,397.2,527.11
134.762,396.56,526.08
134.782,396.85,525.87
134.802,397.88,526.49
134.822,397.3,527.2
134.842,398.04,527.76
134.862,398.83,528.4
134.882,398.87,528.72
134.902,402.09,534.78
134.922,412.08,546.82
134.942,424.46,561.66
134.962,442.97,577.93
134.982,465.37,592.94
135.002,491.7,603.95
135.022,518.36,609.56
135.042,542.29,611.25
135.062,554.83,607
135.082,557.66,601.2
135.102,554.33,593.36
135.122,547.07,585.29
135.142,536.05,577.23
135.162,524.04,569.58
135.182,512.63,562.87
135.202,501.71,557.49
135.222,490.57,553.2
135.242,480.05,549.36
135.262,471.24,546.68
135.282,461.99,544.35
135.303,453.99,542.88
135.323,446.6,540.3
135.343,439.28,539.04
135.363,437.62,543.43
135.383,438.3,548.75
135.403,436.84,550.4
135.423,435.27,551.52
135.443,431.62,550.41
135.463,429.49,547.53
135.483,425.99,546.43
135.503,422.8,544.34
135.523,420.04,542.27
135.543,419.03,540.62
135.563,417.02,538.49
135.583,414.82,537.2
135.603,413.25,535.76
135.623,412.4,534.41
135.643,411.12,533.32
135.663,410.3,533.06
135.683,408.64,532.05
135.703,407.91,531.04
135.723,407.33,531.83
135.743,406.66,531.86
135.763,405.13,532.09
135.783,403.7,531.87
135.803,402.76,530.7
135.823,402.41,530.56
135.844,402.33,530.65
135.864,401.66,529.92
135.885,401.13,529.13
135.906,402.1,528.91
135.927,403.88,528.53
135.947,405.71,528.82
135.967,408.37,528.86
135.987,410.49,527.89
136.007,410.39,528.51
136.028,411.92,529.21
136.048,412.93,529.57
136.068,413.35,530.25
136.088,414.28,530.4
136.108,415.22,530.32
136.128,415.58,530.86
136.148,416.66,531.09
136.168,417.33,531.27
136.188,416.66,530.81
136.208,417.53,532.45
136.228,418.02,533.76
136.248,418.22,533.21
136.269,418.58,534.17
136.289,418.66,533.93
136.309,419.13,532.55
136.329,419.7,532.04
136.349,420.76,531.83
136.37,421.21,531.46
136.39,422.57,531.17
136.41,423.25,531.14
136.43,424.8,531.11
136.45,424.44,530.09
136.47,424.35,529.87
136.49,424.48,530.1
136.51,424.59,530.28
136.53,424.27,530.22
136.55,424.42,530.18
136.57,424.73,530.94
136.59,424.19,530.55
136.611,424.35,530.44
136.631,424.48,529.55
136.651,424.78,530.04
136.671,425.03,530.63
136.691,424.22,530.31
136.711,424.38,530.25
136.731,424.1,530.2
136.751,423.88,530.16
136.771,424.11,529.93
136.792,423.88,531.54
136.813,423.91,533.23
136.833,423.13,534.79
136.853,423.5,534.83
136.873,423.4,535.86
136.893,423.32,535.69
136.913,423.26,535.55
136.933,421.41,535.24
136.953,420.72,534.19
136.973,419.58,533.95
136.993,420.26,533.96
137.013,419.61,533.57
137.034,419.49,533.66
137.054,419.39,533.93
137.074,419.51,533.74
137.094,420.21,533.59
137.114,419.77,533.27
137.134,418.61,532.82
137.154,418.49,532.06
137.174,418.39,531.64
137.194,418.31,531.52
137.214,419.05,532.01
137.234,419.24,532.41
137.254,419.99,531.73
137.274,419.79,531.38
137.295,418.64,530.51
137.315,417.91,530.2
137.335,416.93,529.56
137.355,415.74,529.05
137.375,416.79,529.44
137.395,416.43,529.35
137.415,415.35,529.68
137.435,416.08,529.95
137.455,415.46,530.16
137.475,415.17,531.13
137.495,414.74,531.7
137.515,413.99,531.96
137.535,413.79,533.17
137.555,413.43,531.93
137.575,411.55,532.15
137.595,411.04,531.72
137.616,408.63,530.77
137.637,407.5,531.02
137.657,406.2,530.82
137.677,405.36,530.65
137.697,404.69,531.12
137.717,402.95,531.1
137.737,402.56,530.08
137.757,402.25,529.26
137.777,401.6,529.41
137.797,402.28,529.73
137.817,401.42,530.78
137.837,401.94,530.63
137.857,401.95,530.9
137.877,402.16,530.92
137.897,401.93,531.54
137.917,402.54,532.03
137.937,402.43,531.62
137.957,402.35,531.3
137.977,401.68,531.24
137.997,401.94,531.59
138.017,401.15,531.07
138.037,400.52,530.66
138.057,400.02,529.73
138.077,400.81,528.98
138.097,400.85,529.39
138.117,400.48,529.91
138.137,400.79,529.13
138.157,401.03,529.1
138.177,400.42,528.28
138.197,400.14,528.42
138.217,400.51,528.14
138.237,400.21,528.31
138.257,399.97,528.85
138.277,398.97,529.68
138.297,399.38,530.54
138.318,390.3,527.23
138.338,372.84,520.39
138.359,350.47,517.71
138.379,328.18,515.97
138.399,306.34,509.57
138.42,288.67,497.06
138.44,276.74,483.65
138.46,269.19,471.32
138.48,264.35,460.05
138.5,263.88,453.24
138.52,266.91,447.39
138.54,271.92,445.32
138.56,278.94,445.05
138.58,287.95,446.84
138.6,297.36,449.87
138.62,306.49,455.3
138.64,314.99,460.84
138.66,324.39,468.07
138.68,333.51,474.66
138.7,341.01,480.73
138.72,347.81,486.58
138.74,354.25,492.46
138.76,359.8,498.17
138.78,365.44,502.54
138.8,370.35,506.43
138.82,374.48,509.74
138.84,378.38,512.4
138.86,381.31,515.12
138.88,385.85,518.09
138.9,388.48,520.87
138.92,390.98,523.3
138.94,392.39,525.44
138.96,393.71,526.55
138.98,395.37,527.24
139,396.49,527.59
139.02,397.99,527.47
139.04,398.2,527.98
139.06,398.96,528.38
139.08,398.97,528.51
139.1,399.77,528.81
139.12,400.22,529.84
139.14,400.77,529.88
139.16,402.02,530.3
139.18,401.42,530.24
139.2,402.33,530.59
139.22,404.67,532.87
139.24,411.73,538.7
139.26,421.19,544.76
139.28,430.95,550.01
139.3,443.36,556.41
139.32,462.29,565.12
139.34,484.43,574.9
139.36,506.74,584.92
139.38,525.8,594.74
139.4,541.04,602.19
139.42,546.63,603.55
139.44,545.1,600.24
139.46,538.68,594.99
139.48,529.75,587.79
139.5,520.2,580.24
139.52,508.36,573.59
139.54,497.09,567.47
139.56,487.67,561.78
139.58,478.14,557.02
139.6,468.11,552.82
139.62,460.29,549.85
139.64,453.23,547.28
139.66,446.38,544.43
139.68,440.91,542.54
139.7,436.13,540.03
139.72,431.5,538.83
139.74,427.8,537.06
139.76,424.44,535.85
139.78,421.95,534.08
139.8,419.56,533.06
139.82,417.65,533.05
139.84,416.32,531.64
139.86,415.66,531.11
139.88,414.72,531.29
139.901,413.38,531.83
139.921,412.5,532.27
139.941,412.2,533.61
139.961,411.96,533.89
139.981,412.17,533.91
140.002,413.14,533.53
140.022,413.11,533.22
140.042,413.09,532.78
140.062,414.67,531.42
140.082,415.14,531.34
140.102,415.71,530.27
140.122,415.37,530.62
140.142,415.09,531.09
140.162,414.67,531.07
140.182,414.14,531.26
140.202,413.91,530.41
140.222,413.33,530.33
140.242,414.46,529.66
140.262,413.97,529.73
140.282,414.98,529.58
140.302,415.58,529.07
140.322,416.27,529.45
140.342,416.01,529.36
140.362,416.41,529.49
140.382,415.73,529.59
140.402,416.18,529.07
140.422,415.75,529.26
140.442,415.6,529.41
140.462,415.28,529.33
140.482,416.02,528.06
140.503,417.22,527.85
140.523,417.97,528.28
140.543,417.38,528.82
140.563,417.9,529.86
140.583,418.72,530.69
140.603,419.38,530.95
140.623,419.9,531.56
140.643,419.92,532.25
140.663,419.74,532.8
140.683,420.19,533.04
140.703,420.75,531.63
140.723,420.6,531.1
140.743,420.48,530.08
140.763,420.79,530.47
140.783,421.03,529.77
140.803,421.82,529.62
140.823,421.86,529.1
140.843,421.49,528.68
140.863,421.79,528.94
140.883,422.23,529.35
140.903,423.19,529.48
140.923,423.75,529.79
140.943,422.6,530.23
140.964,422.68,530.58
140.985,421.94,530.67
141.005,421.55,530.73
141.025,421.44,530.99
141.045,422.35,531.59
141.065,422.68,531.87
141.085,424.15,531.5
141.105,424.52,531.6
141.125,423.41,530.28
141.145,423.53,530.62
141.165,424.03,530.9
141.185,424.22,531.92
141.205,423.58,532.13
141.225,422.66,532.71
141.245,422.73,533.17
141.266,422.78,533.13
141.286,422.63,533.31
141.306,423.1,533.45
141.326,422.88,533.56
141.347,422.1,533.44
141.367,422.08,533.56
141.387,422.07,533.64
141.407,422.05,533.52
141.427,422.84,533.01
141.447,422.07,533.41
141.467,422.06,533.73
141.487,421.85,534.78
141.508,421.68,536.03
141.528,421.74,536.42
141.548,421.59,536.34
141.568,421.48,536.27
141.588,420.98,536.02
141.608,419.78,536.41
141.628,419.83,535.53
141.648,419.66,535.42
141.668,418.53,534.74
141.688,418.22,534.99
141.708,417.98,534.79
141.728,416.78,534.83
141.748,416.23,534.67
141.768,415.78,534.53
141.788,416.42,534.23
141.808,416.74,534.18
141.828,415.59,532.75
141.848,411.67,532.2
141.868,408.14,531.76
141.888,406.71,531.21
141.908,406.57,530.96
141.928,405.66,530.77
141.948,406.32,530.62
141.968,406.46,530.69
141.988,407.17,531.96
142.008,408.33,532.36
142.028,408.67,532.69
142.048,409.53,532.55
142.068,408.63,532.44
142.088,409.1,533.35
142.108,409.88,532.88
142.128,409.91,532.11
142.148,409.72,532.29
142.168,410.38,531.83
142.189,410.3,532.06
142.209,410.84,532.65
142.23,410.27,532.92
142.251,410.02,532.74
142.272,409.62,531.99
142.292,407.29,530.99
142.313,405.23,529.99
142.333,403.99,529.39
142.353,402.99,528.92
142.373,402.79,529.13
142.393,402.43,529.31
142.413,402.55,529.24
142.433,402.44,529.4
142.453,402.35,529.32
142.473,401.68,528.85
142.493,400.94,528.88
142.513,400.56,529.11
142.533,400.04,527.88
142.553,400.24,526.51
142.573,399.99,525.41
142.593,400.39,524.13
142.613,400.11,523.9
142.633,400.29,523.52
142.653,399.63,522.82
142.673,399.91,522.45
142.693,398.72,522.36
142.713,397.78,523.09
142.733,397.62,524.47
142.753,396.1,524.78
142.773,388.48,521.62
142.793,371.18,512.9
142.813,349.75,502.92
142.833,328.4,493.93
142.853,309.92,484.55
142.873,295.73,475.24
142.893,286.59,467.79
142.913,281.47,462.83
142.934,281.38,457.87
142.954,283.5,456.49
142.974,288.8,457.79
142.994,296.04,460.24
143.014,304.23,464.79
143.034,313.39,469.63
143.054,320.91,475.7
143.074,328.93,481.76
143.094,336.14,488.21
143.114,345.11,493.57
143.134,351.89,498.45
143.154,357.31,503.16
143.175,363.05,507.53
143.196,368.64,511.22
143.216,373.31,513.58
143.237,379.05,516.26
143.258,385.44,518.41
143.278,390.15,520.53
143.298,394.52,522.62
143.318,398.42,524.3
143.338,402.33,525.44
143.358,404.67,527.15
143.378,406.73,527.12
143.398,408.99,527.7
143.418,409.79,527.96
143.438,410.43,528.37
143.457,410.75,529.29
143.478,411.2,529.63
143.499,412.96,529.71
143.518,414.57,530.57
143.539,415.45,531.45
143.56,416.56,532.36
143.581,417.85,533.69
143.602,418.88,533.95
143.623,418.9,534.56
143.643,418.72,534.05
143.664,418.98,533.84
143.684,418.58,533.67
143.704,418.27,533.74
143.723,418.01,533.79
143.744,418.01,533.83
143.764,419.21,533.87
143.785,419.37,533.89
143.805,422.29,538.51
143.826,433.43,549.41
143.846,447.35,563.13
143.866,467.68,580.7
143.887,491.14,598.56
143.908,516.51,613.65
143.929,539.41,623.52
143.949,552.73,624.82
143.969,555.58,620.85
143.989,552.67,614.68
144.009,545.33,607.75
144.029,534.47,599.2
144.049,523.77,591.16
144.069,512.22,583.13
144.089,500.77,575.7
144.109,488.82,568.96
144.129,477.66,563.37
144.149,466.72,558.09
144.169,458.38,554.08
144.189,450.3,550.86
144.209,444.64,548.89
144.229,438.51,547.31
144.249,436.21,547.85
144.269,437.17,551.48
144.289,437.54,552.78
144.309,437.23,552.83
144.329,435.18,551.46
144.348,432.55,550.17
144.369,428.64,547.74
144.389,425.91,545.19
144.409,421.93,542.75
144.428,420.34,540.4
144.449,417.27,539.92
144.469,415.62,538.94
144.489,413.5,537.95
144.509,411.8,536.56
144.529,409.84,534.65
144.549,408.67,534.32
144.569,406.54,533.25
144.589,406.23,533.4
144.609,405.58,532.92
144.629,404.87,532.34
144.648,403.69,532.47
144.669,402.55,531.98
144.689,402.44,531.98
144.709,402.15,531.98
144.729,400.72,532.39
144.749,399.58,533.31
144.769,399.86,533.65
144.789,400.29,534.52
144.809,400.43,535.21
144.829,400.15,535.77
144.849,400.32,536.02
144.868,400.85,535.61
144.889,401.28,534.69
144.909,401.23,534.75
144.928,401.38,535
144.949,400.9,534.8
144.969,400.12,534.64
144.989,400.7,533.91
145.009,401.16,532.93
145.029,401.53,532.34
145.049,402.02,531.68
145.069,402.62,530.74
145.089,401.29,529.59
145.109,400.44,528.87
145.129,400.15,529.5
145.15,400.32,529
145.17,400.45,529
145.19,400.56,529
145.21,400.65,529.2
145.23,401.12,528.76
145.25,401.3,528.01
145.27,400.64,528.21
145.29,400.31,528.76
145.31,401.45,529.41
145.33,400.76,530.33
145.349,400.81,531.06
145.37,400.25,531.25
145.39,400.4,531.6
145.411,401.32,532.08
145.432,402.05,532.66
145.451,402.04,532.93
145.471,402.03,532.95
145.492,402.03,532.76
145.511,402.02,533
145.531,402.02,532.2
145.551,400.61,531.56
145.572,400.49,531.65
145.592,401.39,532.32
145.611,402.11,532.06
145.632,403.69,531.85
145.652,403.95,532.08
145.673,404.56,532.26
145.693,404.25,532.41
145.713,405.2,532.13
145.733,406.16,531.9
145.754,406.73,531.72
145.774,407.98,531.38
145.795,409.99,531.7
145.815,410.79,531.76
145.835,411.63,531.21
145.855,413.1,530.97
145.875,413.88,530.77
145.896,415.51,530.42
145.916,417.61,529.54
145.935,418.68,529.43
145.956,418.95,529.54
145.977,418.16,529.63
145.998,418.13,530.31
146.018,418.3,531.05
146.038,419.24,531.64
146.058,419.99,531.71
146.078,420.19,530.77
146.099,419.96,531.21
146.12,419.76,531.37
146.14,419.61,532.5
146.16,419.29,532.8
146.18,419.03,532.84
146.2,418.63,532.67
146.221,418.3,531.54
146.241,418.04,530.63
146.261,418.83,530.3
146.282,418.07,530.64
146.303,416.25,530.51
146.322,415.6,529.81
146.343,414.68,529.65
146.362,414.35,528.52
146.383,412.28,527.82
146.403,411.02,528.25
146.423,410.02,527.8
146.444,408.61,528.04
146.464,408.49,528.23
146.484,408.39,528.59
146.505,407.71,528.87
146.525,401.17,527.5
146.545,386.74,524
146.565,365.19,520.2
146.585,342.15,517.36
146.605,318.92,514.49
146.625,298.94,510.19
146.644,282.75,503.35
146.664,271.8,495.08
146.685,266.24,486.86
146.705,263.99,479.49
146.725,265.19,472.59
146.746,269.15,467.07
146.767,275.32,461.86
146.786,282.86,458.89
146.806,291.29,457.91
146.827,299.83,457.73
146.847,310.06,459.78
146.867,318.65,463.63
146.887,327.52,468.1
146.907,336.02,472.88
146.927,344.61,478.1
146.946,351.29,483.68
146.967,358.03,490.15
146.987,363.63,494.72
147.007,368.5,499.57
147.027,372.6,503.86
147.047,375.68,507.89
147.066,378.54,510.91
147.088,382.24,512.73
147.108,384.59,515.18
147.128,386.67,517.55
147.148,389.14,519.44
147.168,390.31,520.95
147.188,391.65,521.76
147.208,392.32,522.81
147.228,393.65,523.65
147.248,394.52,523.72
147.267,395.82,524.17
147.287,396.46,524.54
147.307,396.76,524.83
147.327,397.21,525.26
147.347,396.77,526.01
147.367,396.82,527.41
147.387,397.65,527.33
147.407,398.12,527.26
147.427,402.3,531.01
147.447,413.64,540.81
147.467,429.91,556.05
147.488,448.33,574.24
147.508,467.86,589.79
147.528,488.89,603.43
147.548,507.71,612.95
147.568,525.17,618.56
147.588,540.74,620.85
147.608,552.19,618.68
147.628,555.35,611.54
147.648,552.08,601.43
147.668,544.46,591.75
147.688,535.17,581.4
147.707,523.74,571.52
147.727,512.39,563.41
147.747,500.91,556.53
147.767,489.93,550.62
147.787,479.74,545.7
147.808,469.79,542.96
147.83,461.64,540.77
147.85,455.11,539.21
147.872,451.49,537.17
147.892,447.39,536.14
147.912,442.51,535.11
147.932,439.41,533.49
147.951,437.13,532.79
147.972,434.5,531.63
147.992,430.6,530.71
148.012,428.08,530.56
148.031,426.87,529.25
148.051,426.09,528.8
148.071,424.47,529.04
148.092,424.18,529.43
148.114,424.54,529.35
148.134,425.43,530.08
148.154,425.55,531.26
148.174,425.84,532.01
148.194,425.67,532.21
148.214,425.94,533.37
148.235,424.75,534.09
148.255,424,533.67
148.274,423.8,533.14
148.294,423.24,532.31
148.315,423.39,532.25
148.336,422.31,532.6
148.357,421.65,533.08
148.379,420.32,533.66
148.4,418.26,533.13
148.42,415.01,532.7
148.442,411.8,532.76
148.462,410.44,532.41
148.481,409.95,532.53
148.502,409.36,532.62
148.522,408.89,532.5
148.542,408.31,532.2
148.561,407.85,531.56
148.581,406.88,530.45
148.602,406.5,530.16
148.621,405,530.73
148.642,403.4,530.98
148.662,402.12,530.78
148.683,400.9,531.43
148.703,400.92,531.14
148.723,400.53,530.71
148.743,400.63,529.57
148.763,400.1,529.46
148.783,400.28,528.97
148.803,400.03,527.77
148.824,401.02,527.22
148.844,401.02,527.17
148.864,402.01,524.54
148.886,401.21,517.83
148.906,401.37,513.27
148.926,401.49,511.21
148.946,401.6,510.37
148.966,400.68,509.5
148.986,400.74,509.8
149.006,401.59,511.04
149.026,402.67,512.23
149.047,402.34,513.38
149.066,401.47,514.91
149.087,402.38,516.13
149.107,402.7,516.7
149.127,402.76,517.56
149.147,404.01,517.85
149.169,405.81,518.48
149.189,406.85,519.38
149.209,407.88,520.71
149.229,408.9,521.97
149.248,409.32,522.37
149.268,410.26,523.3
149.288,410.41,524.64
149.308,411.12,525.31
149.328,411.3,525.45
149.349,411.84,526.56
149.368,412.27,527.45
149.389,412.02,527.76
149.408,412.61,528.61
149.428,412.69,528.28
149.449,412.55,527.83
149.468,411.84,526.86
149.488,413.07,527.29
149.508,414.26,527.23
149.528,413.81,526.39
149.548,413.25,526.11
149.568,413.6,528.09
149.588,415.48,529.27
149.608,415.98,525.42
149.629,412.99,513.73
149.649,407.39,499.99
149.669,398.91,486.19
149.689,391.93,477.35
149.709,387.94,472.88
149.729,386.55,471.3
149.749,387.04,472.44
149.769,388.63,475.35
149.789,391.31,480.28
149.809,394.45,486.03
149.828,397.76,491.82
149.848,400.01,497.06
149.868,402.2,503.05
149.888,405.36,508.64
149.908,406.49,512.91
149.928,407.99,517.73
149.948,411.39,521.58
149.968,413.12,524.47
149.988,415.09,527.37
150.008,415.07,529.5
150.029,415.86,531.8
150.049,416.09,533.84
150.069,415.67,536.27
150.089,415.94,538.62
150.109,416.75,540.09
150.129,416.8,541.07
150.149,416.84,542.06
150.169,416.27,543.45
150.189,416.02,544.56
150.21,416.61,545.65
150.23,417.69,547.12
150.249,417.95,549.89
150.269,418.96,557.32
150.289,420.37,572.65
150.309,422.9,592.92
150.329,424.32,616.14
150.351,427.05,637.11
150.372,427.04,644.69
150.392,426.83,635.55
150.412,426.87,616.04
150.434,425.29,592.63
150.454,423.04,568.31
150.474,422.23,548.04
150.494,420.78,530.24
150.514,420.83,514.59
150.534,420.86,503.67
150.554,417.89,495.34
150.573,418.51,489.47
150.593,418.21,485.98
150.613,417.37,484.58
150.634,414.49,484.86
150.655,414.59,485.89
150.676,415.68,488.71
150.696,416.14,492.17
150.716,416.31,495.14
150.736,414.85,499.91
150.757,414.08,503.93
150.778,413.86,507.34
150.799,413.29,511.07
150.82,412.23,513.46
150.84,413.19,514.97
150.861,411.35,517.37
150.882,413.68,519.3
150.903,414.74,521.84
150.924,413.99,524.07
150.945,412,525.46
150.965,408.8,519.37
150.986,406.44,513.69
151.007,406.15,512.15
151.028,402.72,511.72
151.049,400.58,510.78
151.069,396.06,513.02
151.089,398.85,514.62
151.11,397.88,517.09
151.131,400.5,520.68
151.151,402.2,522.74
151.171,404.76,525.99
151.191,407.41,529.19
151.211,410.53,530.76
151.231,410.22,533.8
151.253,412.78,534.84
151.272,415.62,534.47
151.292,417.7,535.98
151.312,416.36,536.98
151.333,417.09,536.59
151.353,416.27,536.67
151.374,417.02,536.54
151.394,417.61,536.83
151.414,416.69,536.66
151.434,416.95,536.93
151.455,414.36,537.34
151.475,412.89,538.08
151.495,411.71,538.46
151.515,412.17,538.37
151.535,413.94,538.29
151.555,413.35,538.44
151.576,413.48,539.75
151.595,412.78,539.4
151.615,413.23,538.92
151.637,412.38,538.94
151.656,410.9,538.15
151.676,412.12,537.12
151.697,411.1,536.29
151.717,410.88,535.44
151.736,411.5,535.15
151.757,411.8,534.72
151.777,411.44,535.38
151.797,410.95,535.1
151.816,411.36,535.08
151.836,413.89,545.66
151.856,417.91,556.53
151.877,420.33,562.22
151.897,421.66,563.98
151.918,421.73,564.18
151.938,419.98,562.55
151.958,418.19,559.84
151.979,416.35,555.87
151.999,415.08,552.9
152.018,413.86,549.32
152.038,412.29,547.85
152.059,411.43,545.48
152.078,409.55,543.19
152.099,409.64,540.55
152.12,409.11,539.64
152.139,408.49,538.51
152.16,407.59,537.81
152.179,407.47,537.25
152.199,407.18,536.4
152.219,407.54,535.92
152.239,407.43,535.53
152.26,406.95,535.03
152.282,408.36,535.42
152.302,407.09,526.54
152.322,400.07,507.23
152.342,395.86,489.98
152.362,393.08,480.39
152.382,391.87,476.31
152.402,391.69,475.85
152.422,392.96,477.88
152.442,396.36,481.9
152.463,399.09,486.92
152.484,397.87,492.54
152.505,397.9,497.03
152.525,399.52,501.22
152.545,402.21,504.78
152.565,402.77,507.42
152.585,407.22,519.94
152.605,415.17,543.55
152.625,424.74,564.64
152.645,430.59,574.31
152.665,433.67,576.85
152.685,435.74,575.28
152.706,437.79,571.02
152.726,438.83,566.22
152.747,438.67,562.18
152.767,437.93,558.94
152.787,437.15,554.75
152.808,434.72,550.4
152.828,434.37,547.32
152.848,431.7,544.66
152.868,429.36,542.33
152.888,427.89,541.86
152.908,426.71,540.89
152.928,424.97,539.71
152.948,423.37,539.17
152.968,422.1,538.73
152.988,422.68,538.39
153.008,418.74,534.31
153.028,414.39,530.05
153.048,411.92,527.04
153.068,408.93,525.23
153.088,406.75,522.98
153.109,404.4,521.79
153.129,403.12,520.63
153.149,401.89,520.7
153.169,402.52,521.16
153.189,403.81,521.33
153.209,402.65,522.86
153.229,400.92,523.69
153.249,401.94,524.75
153.27,403.55,525.6
153.29,404.24,526.88
153.311,402.79,527.71
153.332,404.43,528.96
153.352,404.95,530.37
153.373,404.56,532.7
153.393,405.85,534.76
153.413,406.88,536.81
153.433,406.5,537.24
153.453,405.4,537
153.473,405.72,535.6
153.493,407.98,535.88
153.513,408.18,535.5
153.534,407.55,535.4
153.554,407.84,533.52
153.574,407.27,532.02
153.594,409.82,532.81
153.614,408.45,532.05
153.634,408.96,532.04
153.654,411.57,532.83
153.674,411.46,533.07
153.694,413.16,536.25
153.714,415.13,545.6
153.734,418.31,553.88
153.754,420.04,557.71
153.774,420.04,559.76
153.794,418.63,560.21
153.814,417.7,558.57
153.835,415.36,555.26
153.855,414.09,553.4
153.875,414.87,550.92
153.895,415.5,548.54
153.916,418,550.23
153.936,417.2,546.58
153.956,415.96,545.47
153.976,414.17,544.37
153.996,413.13,543.3
154.016,411.91,542.44
154.036,410.53,542.95
154.057,409.62,542.16
154.076,409.1,541.53
154.097,404.48,541.02
154.116,399.18,539.62
154.136,395.75,537.09
154.156,395,537.28
154.176,395.6,535.82
154.196,394.68,536.26
154.216,394.74,536.61
154.236,396.39,537.88
154.257,397.71,538.31
154.276,397.17,538.85
154.296,398.34,538.28
154.316,397.47,538.62
154.337,398.38,541.1
154.357,400.3,542.48
154.376,401.44,544.78
154.396,403.35,548.63
154.416,400.88,544.7
154.436,400.11,541.76
154.456,402.88,539.21
154.476,412.91,539.77
154.496,423.33,540.41
154.516,434.26,540.93
154.536,448.21,545.74
154.557,448.57,538.4
154.577,445.85,536.92
154.596,448.28,536.93
154.616,443.03,534.95
154.636,441.82,534.16
154.656,441.66,530.93
154.676,437.13,530.14
154.696,434.9,531.71
154.716,432.12,529.77
154.736,431.1,525.82
154.756,431.08,525.65
154.776,426.06,525.32
154.796,419.85,523.46
154.816,418.68,522.37
154.836,416.14,522.49
154.856,414.31,523.99
154.877,413.45,529
154.896,412.16,530.6
154.916,412.53,531.68
154.936,410.42,532.54
154.956,410.54,530.43
154.976,412.03,530.75
154.996,412.62,532
155.016,411.3,530.2
155.036,410.64,529.56
155.056,406.91,528.65
155.077,406.73,530.32
155.096,409.98,534.05
155.116,407.39,535.64
155.137,407.71,536.31
155.156,407.17,536.65
155.176,409.53,539.32
155.196,409.03,539.86
155.216,408.62,540.09
155.236,408.3,537.27
155.256,407.04,537.61
155.276,406.23,540.49
155.297,406.38,540.59
155.317,405.31,539.47
155.336,403.05,540.18
155.356,403.44,540.34
155.376,404.75,538.28
155.396,404.4,537.82
155.417,405.12,535.46
155.437,406.7,535.16
155.456,407.16,534.13
155.476,407.73,533.11
155.496,407.18,530.08
155.516,406.14,529.87
155.536,405.52,529.69
155.556,405.21,529.76
155.576,405.97,530.8
155.596,405.58,531.44
155.616,405.66,530.35
155.636,406.13,528.68
155.657,407.5,527.95
155.677,408,527.56
155.697,408.2,527.25
155.717,407.76,526.6
155.737,408.01,528.28
155.757,407.61,527.42
155.777,407.09,527.94
155.797,407.67,527.55
155.817,407.33,527.84
155.838,407.27,528.47
155.857,406.81,530.18
155.877,407.85,530.14
155.897,408.08,531.11
155.918,410.86,530.69
155.938,412.09,529.95
155.958,413.07,529.36
155.979,413.26,528.49
155.999,413.21,528.79
156.019,413.37,528.23
