Program Time [s],data 0,data 1
19.70712,463.63,592.00
19.72603,462.60,595.62
19.74794,462.31,591.95
19.76617,461.12,592.32
19.78753,459.48,593.15
19.80677,459.32,591.37
19.82788,460.90,591.16
19.84707,458.64,592.45
19.86592,458.97,595.15
19.88763,461.64,591.89
19.90596,462.06,593.49
19.92638,465.11,592.77
19.94609,466.59,592.14
19.96684,464.21,593.85
19.98735,466.12,594.28
20.00728,467.92,592.67
20.02715,465.55,595.06
20.04692,465.82,594.52
20.06751,468.75,595.21
20.08723,467.63,593.78
20.10730,467.64,597.13
20.12748,465.07,593.98
20.14638,465.13,595.77
20.16769,467.20,597.55
20.18603,468.57,597.40
20.20664,468.42,597.58
20.22710,469.41,597.14
20.24603,465.47,596.36
20.26764,466.24,598.20
20.28631,468.41,598.55
20.30690,467.05,600.01
20.32688,466.59,599.62
20.34779,466.03,600.40
20.36635,465.47,599.52
20.38661,464.93,595.91
20.40639,467.19,595.29
20.42738,463.06,594.70
20.44666,464.26,594.66
20.46781,466.85,594.84
20.48677,464.02,591.82
20.50782,464.86,590.96
20.52694,464.94,591.20
20.54682,465.13,590.30
20.56610,466.25,591.60
20.58645,466.81,590.12
20.60705,467.79,590.63
20.62700,466.83,591.89
20.64712,465.86,592.40
20.66648,466.01,590.45
20.68608,463.99,593.48
20.70672,461.29,593.00
20.72627,462.17,592.01
20.74655,462.91,590.25
20.76705,467.60,589.96
20.78744,482.97,594.76
20.80682,505.30,595.82
20.82776,532.00,598.29
20.84852,554.62,604.20
20.86934,575.56,605.12
20.89026,590.67,607.71
20.91007,602.39,606.79
20.92975,609.32,605.70
20.94997,610.45,604.81
20.97057,610.28,600.89
20.99121,603.80,597.97
21.01174,598.75,595.29
21.03231,591.75,594.63
21.05211,582.52,595.62
21.07242,572.38,594.75
21.09397,562.38,596.43
21.11307,556.84,596.53
21.13469,545.79,597.16
21.15341,536.19,598.82
21.17393,532.74,599.15
21.19369,523.88,599.66
21.21372,516.90,601.70
21.23422,513.68,601.50
21.25323,506.13,600.74
21.27319,503.00,604.81
21.29445,497.31,603.61
21.31408,495.69,604.48
21.33470,495.23,603.58
21.35317,493.31,602.55
21.37463,492.43,604.50
21.39449,490.12,605.18
21.41481,492.84,603.58
21.43344,488.20,602.99
21.45419,485.45,604.06
21.47361,484.37,602.70
21.49318,484.39,604.37
21.51408,485.50,601.43
21.53356,484.95,603.11
21.55447,482.58,601.40
21.57490,482.66,602.02
21.59320,485.28,603.88
21.61311,484.60,603.10
21.63482,483.77,599.31
21.65420,479.43,600.30
21.67500,480.93,601.82
21.69561,479.04,601.01
21.71613,479.05,603.25
21.73578,478.51,602.69
21.75541,477.55,600.45
21.77563,472.46,601.13
21.79648,464.23,604.83
21.81533,448.37,603.47
21.83486,424.42,606.23
21.85666,396.28,601.38
21.87520,370.98,598.07
21.89667,343.78,589.41
21.91706,322.43,576.39
21.93721,305.66,568.46
21.95775,301.16,562.38
21.97985,302.39,559.15
21.99970,308.10,558.52
22.01803,318.69,556.92
22.03826,326.81,559.98
22.05851,340.69,562.46
22.07785,352.92,566.07
22.09812,367.46,569.24
22.11771,376.83,570.89
22.13784,387.61,575.91
22.15791,398.11,578.49
22.17870,407.67,582.21
22.19898,413.09,584.49
22.22055,419.16,584.05
22.23967,424.33,587.28
22.25896,430.75,587.22
22.28063,437.15,587.85
22.30053,439.36,591.45
22.31995,445.78,589.48
22.33973,448.92,592.81
22.35944,453.84,591.29
22.38043,452.77,592.98
22.39931,455.93,592.59
22.42042,454.45,592.83
22.43998,457.86,595.83
22.46045,458.88,594.53
22.48008,460.58,597.39
22.50087,460.39,599.07
22.51940,462.91,599.16
22.54086,463.58,599.37
22.56035,464.93,596.89
22.57965,465.15,597.33
22.60058,463.31,599.44
22.61922,463.36,596.74
22.64085,464.12,594.74
22.65901,462.64,596.97
22.67953,464.32,596.87
22.69960,462.39,596.97
22.72071,461.15,595.76
22.73980,461.59,595.51
22.76074,461.21,595.19
22.78085,462.48,593.94
22.79928,461.50,595.39
22.82036,460.59,597.10
22.83996,462.80,596.37
22.85902,460.88,597.51
22.87920,460.51,594.92
22.90070,461.75,597.97
22.92002,460.51,596.28
22.93919,461.76,594.32
22.95961,459.70,595.14
22.98009,460.70,594.14
23.00128,458.92,593.88
23.02240,460.91,594.88
23.04228,461.33,595.62
23.06176,460.83,594.65
23.08209,463.77,592.90
23.10293,464.63,592.26
23.12359,465.32,593.33
23.14419,462.87,591.03
23.16401,462.81,591.09
23.18452,464.30,592.94
23.20451,463.08,592.43
23.22427,461.69,590.00
23.24390,462.80,589.63
23.26427,462.76,592.35
23.28375,464.27,589.10
23.30319,462.85,588.02
23.32489,462.86,588.84
23.34366,462.34,587.39
23.36296,464.44,589.24
23.38407,465.21,585.99
23.40467,464.70,588.63
23.42364,463.63,587.92
23.44434,463.49,588.80
23.46384,459.67,587.07
23.48437,462.28,585.83
23.50465,459.08,589.31
23.52333,459.08,589.31
23.54386,463.10,586.91
23.56373,461.41,589.78
23.58456,462.10,589.57
23.60373,461.12,589.39
23.62355,463.52,590.71
23.64336,462.14,593.16
23.66471,460.91,592.49
23.68298,464.83,594.84
23.70480,464.40,592.03
23.72430,463.09,593.19
23.74316,465.93,594.28
23.76396,465.13,593.92
23.78360,466.16,590.28
23.80413,462.46,592.13
23.82397,462.84,591.99
23.84306,465.13,591.96
23.86401,466.12,591.37
23.88351,462.83,590.22
23.90294,465.96,591.34
23.92391,465.64,591.98
23.94475,462.09,588.71
23.96310,464.21,589.51
23.98324,460.66,590.32
24.00315,461.47,590.85
24.02539,462.31,591.72
24.04444,464.36,591.03
24.06464,466.24,591.05
24.08478,466.08,591.00
24.10453,465.72,591.92
24.12519,468.14,590.17
24.14629,468.51,588.65
24.16488,465.71,587.60
24.18586,469.86,589.14
24.20533,466.84,591.09
24.22562,468.75,590.35
24.24503,468.63,591.39
24.26603,468.61,591.63
24.28538,470.16,592.44
24.30676,468.67,589.29
24.32575,466.81,590.28
24.34587,468.87,591.20
24.36513,468.95,592.18
24.38562,467.89,591.27
24.40705,471.20,591.12
24.42698,473.23,592.83
24.44730,471.18,592.71
24.46810,474.38,591.91
24.48867,475.24,595.69
24.50747,483.68,598.33
24.52681,501.57,606.29
24.54756,526.40,617.82
24.56730,555.84,630.52
24.58870,586.62,638.91
24.60689,611.82,644.86
24.62715,627.98,641.21
24.64691,640.64,637.36
24.66833,647.35,630.27
24.68831,644.63,622.39
24.70853,637.30,610.32
24.72705,625.30,602.38
24.74848,619.57,591.36
24.76866,604.04,584.75
24.78752,593.90,582.75
24.80816,582.33,575.24
24.82724,573.05,575.98
24.84849,563.41,574.56
24.86836,552.85,572.59
24.88777,541.19,574.83
24.90712,534.37,574.75
24.92825,524.76,578.58
24.94686,520.74,582.70
24.96851,515.28,585.16
24.98751,507.81,584.04
25.00792,499.86,586.33
25.02721,496.49,589.38
25.04819,494.47,589.15
25.06874,493.70,590.53
25.08775,489.22,591.45
25.10707,488.15,593.49
25.12828,488.84,591.36
25.14667,483.25,594.36
25.16708,481.92,597.03
25.18772,479.54,594.72
25.20714,480.10,597.39
25.22862,480.25,596.27
25.24833,478.66,597.98
25.26695,482.21,600.09
25.28817,479.84,596.46
25.30756,481.40,599.63
25.32821,479.58,599.43
25.34850,480.07,600.13
25.36693,477.49,600.46
25.38759,469.78,600.37
25.40876,454.91,594.57
25.42776,434.86,591.15
25.44699,412.28,585.62
25.46793,382.65,580.31
25.48686,359.61,578.99
25.50828,339.49,578.09
25.52757,324.09,577.04
25.54679,312.89,578.22
25.56827,308.88,577.29
25.58770,309.21,579.43
25.60763,318.18,577.01
25.62861,331.26,580.05
25.64949,341.39,578.70
25.66874,356.36,578.18
25.68951,369.27,580.78
25.70826,379.26,581.70
25.72920,393.86,580.60
25.74912,403.90,582.39
25.76926,412.99,582.36
25.78974,421.80,586.49
25.80865,426.63,588.35
25.82954,432.07,587.93
25.84914,438.79,592.56
25.86963,444.50,591.61
25.88833,451.22,593.59
25.90988,453.14,595.71
25.92964,458.29,595.38
25.94961,459.69,595.80
25.96781,466.01,594.65
25.98927,466.90,595.07
26.00859,468.67,596.96
26.02826,469.98,596.08
26.04773,471.35,596.10
26.06827,472.98,596.73
26.08789,473.80,595.57
26.10945,473.20,597.49
26.12770,473.09,595.86
26.14857,475.04,598.19
26.16878,474.45,598.13
26.18957,474.18,600.00
26.20774,476.84,597.81
26.22812,475.99,599.40
26.24958,476.85,602.96
26.26947,476.95,602.81
26.28848,475.98,602.62
26.30826,476.25,601.38
26.32855,474.20,599.08
26.34986,477.57,598.91
26.36815,475.41,600.51
26.38889,479.22,603.46
26.40946,481.01,602.91
26.42959,479.96,602.58
26.44828,481.08,602.53
26.46809,478.00,601.35
26.48817,478.82,602.42
26.50955,479.80,603.95
26.52948,477.84,602.45
26.54937,477.16,600.92
26.56815,475.57,601.17
26.58808,476.91,604.41
26.60766,475.84,600.79
26.62967,475.22,601.03
26.64794,479.31,601.08
26.66858,476.99,602.12
26.68948,476.34,599.77
26.70783,478.72,601.71
26.72854,476.16,598.70
26.74969,476.72,601.64
26.76835,476.72,600.25
26.78885,479.75,599.53
26.80923,478.03,600.16
26.82943,479.86,598.92
26.84898,480.52,597.84
26.86832,479.73,597.44
26.88944,475.86,600.68
26.90916,476.38,600.91
26.92899,476.65,596.60
26.94915,479.83,599.77
26.96930,476.48,597.04
26.98966,479.65,599.01
27.00912,477.59,598.95
27.02767,479.42,600.26
27.04880,477.19,600.33
27.06849,477.32,598.58
27.08948,480.16,596.22
27.10919,476.17,596.82
27.12907,475.43,596.15
27.14803,476.97,597.14
27.16862,478.60,597.09
27.18808,479.07,598.39
27.20918,480.00,596.37
27.22903,478.29,600.47
27.25059,477.43,601.49
27.27057,477.91,597.71
27.29062,476.85,599.43
27.30986,477.88,600.86
27.32957,477.85,598.38
27.34888,474.72,601.58
27.37004,474.17,601.35
27.38961,473.76,599.91
27.40883,473.13,600.00
27.43012,474.12,600.30
27.44927,474.71,598.38
27.47004,475.09,597.52
27.48964,477.80,598.43
27.51066,476.46,599.19
27.52962,477.63,599.85
27.55045,475.88,597.81
27.56889,476.55,599.96
27.59042,473.37,598.87
27.60920,474.20,601.15
27.62944,476.94,597.31
27.64921,476.85,598.66
27.67006,473.24,598.52
27.69064,475.90,602.22
27.71034,473.78,601.73
27.72881,475.85,600.77
27.74897,474.89,603.44
27.76967,475.56,603.06
27.78981,475.55,601.38
27.81041,473.96,601.20
27.83078,475.77,602.52
27.84936,476.93,601.96
27.86893,478.30,599.00
27.88993,475.17,598.51
27.90892,476.23,600.35
27.93017,476.87,598.43
27.94926,476.84,600.20
27.96929,476.01,600.77
27.99004,476.72,597.76
28.01113,478.26,598.87
28.02966,478.27,598.40
28.05088,473.63,597.07
28.07080,470.71,599.96
28.08992,469.72,595.75
28.11080,471.66,595.40
28.13037,469.93,596.06
28.15091,469.09,597.02
28.17017,469.87,597.15
28.19024,470.63,596.38
28.21110,469.87,596.10
28.23097,468.28,597.08
28.25141,468.30,597.71
28.27046,471.44,597.67
28.28973,472.67,594.52
28.31123,470.89,594.34
28.33100,470.39,590.92
28.35105,472.31,594.10
28.37085,470.28,592.44
28.39103,472.80,590.89
28.41154,470.39,594.23
28.43102,473.58,593.22
28.45138,474.69,594.61
28.47033,472.33,593.47
28.49054,481.18,598.01
28.51089,502.00,609.16
28.53071,529.75,622.69
28.55167,558.96,633.53
28.56977,587.93,643.49
28.59006,609.50,641.59
28.61017,623.97,639.92
28.63013,632.60,636.95
28.65091,639.21,630.79
28.67049,637.16,620.92
28.69138,634.03,613.67
28.71055,625.32,608.28
28.73067,613.99,602.48
28.75111,604.10,599.96
28.77072,593.63,597.55
28.79129,579.66,592.71
28.81130,570.12,594.32
28.82973,558.72,591.83
28.84992,546.39,591.33
28.87164,537.53,593.31
28.89097,525.38,595.02
28.90952,521.28,596.79
28.93022,511.89,599.69
28.95097,505.69,598.55
28.96996,499.69,597.96
28.99081,496.09,601.13
29.01070,491.57,598.07
29.03157,489.49,600.14
29.05007,488.31,598.92
29.07073,484.82,600.11
29.09027,481.59,598.66
29.11233,480.30,598.81
29.13180,475.66,599.69
29.15239,475.86,601.21
29.17151,473.87,603.02
29.19070,474.88,602.23
29.21170,472.74,602.94
29.23267,471.69,601.09
29.25197,472.84,602.59
29.27079,470.58,601.54
29.29227,472.78,601.17
29.31121,470.65,601.83
29.33164,465.26,600.84
29.35147,455.58,600.78
29.37130,436.57,600.24
29.39089,411.44,600.58
29.41083,385.72,597.40
29.43081,360.97,590.37
29.45129,337.40,582.12
29.47082,318.79,572.78
29.49122,306.92,569.70
29.51137,303.46,563.12
29.53221,305.75,563.98
29.55168,313.99,564.18
29.57119,327.37,565.63
29.59267,337.34,566.87
29.61106,350.09,567.40
29.63216,359.90,570.67
29.65228,375.04,574.87
29.67088,384.46,577.89
29.69152,396.16,579.91
29.71093,405.78,582.11
29.73113,414.20,586.07
29.75225,422.78,586.35
29.77228,425.85,586.84
29.79179,429.51,589.15
29.81170,436.45,592.54
29.83304,436.60,592.40
29.85206,438.45,591.80
29.87264,443.46,591.70
29.89307,446.64,591.52
29.91310,447.04,591.49
29.93247,452.95,590.45
29.95237,453.14,593.67
29.97236,456.56,593.36
29.99154,453.60,592.36
30.01231,456.09,592.78
30.03179,454.45,594.71
30.05172,455.86,595.01
30.07341,460.10,594.46
30.09282,461.27,593.83
30.11235,459.72,597.36
30.13250,462.02,597.50
30.15349,464.07,598.28
30.17274,464.64,597.57
30.19259,462.71,598.33
30.21225,461.05,598.50
30.23355,465.00,597.01
30.25335,463.92,594.69
30.27220,463.85,593.98
30.29184,463.86,596.73
30.31248,461.57,596.65
30.33281,462.37,594.62
30.35179,461.43,596.25
30.37307,463.80,595.19
30.39195,460.72,593.52
30.41335,461.24,593.53
30.43182,461.31,593.93
30.45217,463.43,595.62
30.47250,460.46,594.99
30.49291,461.99,595.06
30.51314,463.13,596.01
30.53274,462.47,594.94
30.55324,460.62,594.47
30.57326,459.14,596.45
30.59219,460.75,596.28
30.61301,463.07,597.33
30.63257,462.35,596.89
30.65199,462.86,594.32
30.67225,461.99,592.37
30.69200,460.77,593.78
30.71309,461.02,593.43
30.73350,464.69,596.16
30.75323,462.71,596.62
30.77314,460.86,596.67
30.79211,459.47,597.57
30.81325,461.24,596.62
30.83306,459.94,594.42
30.85343,461.38,596.11
30.87266,462.50,596.49
30.89210,461.81,595.67
30.91352,460.44,596.15
30.93250,461.05,594.45
30.95366,460.51,593.82
30.97256,462.52,592.90
30.99217,462.54,595.84
31.01177,461.14,594.17
31.03296,462.08,593.70
31.05291,462.48,594.16
31.07262,461.12,596.59
31.09188,460.56,593.85
31.11222,462.27,595.94
31.13219,460.42,598.34
31.15228,464.88,599.38
31.17192,465.66,596.42
31.19205,465.07,595.94
31.21310,462.74,595.29
31.23358,463.20,593.49
31.25294,464.66,592.64
31.27317,463.66,592.42
31.29193,462.10,596.01
31.31196,463.32,592.47
31.33326,460.69,593.47
31.35202,463.79,594.77
31.37229,465.00,592.22
31.39338,465.51,592.91
31.41173,465.24,593.22
31.43342,463.63,596.16
31.45363,462.41,596.83
31.47333,463.15,593.83
31.49424,462.92,594.23
31.51376,461.46,593.13
31.53328,460.79,595.05
31.55294,460.26,593.44
31.57437,462.85,595.11
31.59354,460.45,593.81
31.61430,461.55,593.08
31.63400,462.42,592.37
31.65289,459.36,594.66
31.67331,460.72,594.54
31.69320,460.10,594.64
31.71290,460.77,591.25
31.73345,460.51,594.85
31.75385,460.88,595.21
31.77324,461.57,593.07
31.79302,461.65,592.52
31.81432,461.45,595.41
31.83291,463.02,593.98
31.85329,461.81,591.96
31.87425,460.09,590.85
31.89310,458.14,591.43
31.91369,461.43,592.21
31.93384,459.28,590.35
31.95272,462.27,592.84
31.97363,461.51,592.85
31.99420,459.09,592.27
32.01335,459.08,594.32
32.03385,460.79,592.72
32.05395,462.87,593.42
32.07393,462.98,593.57
32.09288,460.47,592.60
32.11335,462.28,591.09
32.13322,461.54,595.28
32.15264,459.86,592.32
32.17372,460.10,594.87
32.19380,457.92,593.05
32.21400,460.56,593.78
32.23414,473.87,598.52
32.25311,500.38,607.35
32.27416,527.12,618.33
32.29285,556.42,628.11
32.31411,581.00,635.82
32.33423,599.86,635.32
32.35348,613.16,634.35
32.37407,619.60,632.63
32.39331,617.60,627.76
32.41348,615.01,618.13
32.43446,608.91,610.58
32.45413,602.98,606.77
32.47301,592.65,598.97
32.49273,579.98,591.69
32.51316,570.15,589.53
32.53335,557.03,586.34
32.55329,547.55,585.86
32.57374,536.25,582.76
32.59353,528.68,582.59
32.61414,517.02,583.97
32.63402,509.22,586.82
32.65446,501.69,587.49
32.67445,496.18,587.31
32.69305,491.28,588.00
32.71288,488.07,592.08
32.73265,487.43,590.97
32.75285,484.28,593.27
32.77365,478.32,590.12
32.79252,479.07,592.11
32.81286,475.54,590.62
32.83367,473.98,593.66
32.85459,471.51,591.19
32.87457,471.47,592.45
32.89264,471.28,591.13
32.91327,468.17,592.20
32.93328,468.28,592.53
32.95284,466.05,590.65
32.97319,466.55,593.31
32.99470,461.99,592.28
33.01386,456.61,595.40
33.03462,440.81,599.05
33.05342,419.32,601.27
33.07272,398.49,602.74
33.09440,369.43,601.94
33.11268,346.72,596.10
33.13439,322.19,590.75
33.15283,309.94,582.61
33.17460,305.17,577.93
33.19427,308.19,576.23
33.21375,315.28,574.79
33.23366,327.40,572.38
33.25405,338.19,574.75
33.27405,347.78,572.64
33.29462,360.06,576.40
33.31479,372.74,575.08
33.33361,378.88,577.06
33.35374,390.52,581.29
33.37529,399.39,583.63
33.39408,408.31,584.41
33.41363,413.12,584.74
33.43446,422.91,588.03
33.45434,426.98,585.76
33.47420,434.78,589.07
33.49550,438.75,588.90
33.51511,440.24,588.19
33.53492,442.26,587.67
33.55423,446.36,589.42
33.57438,451.52,589.78
33.59427,451.61,591.06
33.61473,453.68,591.69
33.63378,458.53,593.15
33.65398,457.54,592.52
33.67356,461.73,592.72
33.69476,462.32,592.18
33.71361,461.59,595.14
33.73432,462.07,593.80
33.75544,461.21,594.63
33.77381,463.27,592.79
33.79491,463.45,592.32
33.81450,465.18,594.32
33.83516,468.45,593.58
33.85487,466.88,595.26
33.87619,466.34,593.44
33.89584,466.94,595.60
33.91482,468.14,595.20
33.93512,466.57,595.48
33.95560,465.52,594.58
33.97632,469.65,596.82
33.99467,469.51,594.39
34.01571,469.76,596.16
34.03626,469.93,597.31
34.05475,466.42,598.01
34.07455,465.63,596.95
34.09488,469.62,596.34
34.11503,467.03,596.19
34.13669,466.68,595.05
34.15624,467.60,597.22
34.17623,471.41,595.34
34.19613,469.37,596.52
34.21543,472.67,596.21
34.23585,472.24,597.23
34.25552,471.39,598.38
34.27595,469.51,596.44
34.29483,470.94,597.81
34.31631,473.04,596.88
34.33576,471.83,593.03
34.35660,469.64,597.50
34.37546,472.53,596.27
34.39617,472.37,594.19
34.41554,473.23,595.14
34.43567,473.11,595.57
34.45489,470.67,597.11
34.47462,468.27,595.17
34.49475,470.54,597.56
34.51497,467.52,594.38
34.53639,470.30,597.47
34.55551,467.93,597.88
34.57616,469.68,596.90
34.59512,471.93,597.37
34.61536,471.41,597.77
34.63480,468.78,595.44
34.65667,471.15,595.97
34.67612,468.99,597.80
34.69490,468.87,596.66
34.71642,467.44,599.07
34.73510,468.10,596.30
34.75495,468.65,597.45
34.77613,469.60,594.59
34.79626,472.47,594.89
34.81588,472.50,594.60
34.83549,473.91,596.95
34.85636,473.09,593.83
34.87605,472.32,595.46
34.89581,473.90,593.66
34.91647,473.51,596.05
34.93480,473.89,596.59
34.95509,470.98,593.69
34.97600,470.77,596.74
34.99514,472.30,594.61
35.01535,470.96,597.76
35.03600,470.49,595.68
35.05513,468.41,598.95
35.07591,472.40,595.33
35.09540,471.17,597.99
35.11512,473.19,598.93
35.13545,475.05,597.48
35.15543,471.78,597.01
35.17487,472.29,595.00
35.19620,470.02,595.51
35.21511,472.11,594.45
35.23527,470.42,596.85
35.25545,471.69,594.71
35.27633,471.74,596.36
35.29551,472.62,597.71
35.31585,470.39,597.11
35.33647,470.74,596.55
35.35563,473.00,594.32
35.37601,472.62,598.07
35.39535,472.26,596.42
35.41602,471.54,597.80
35.43486,470.06,596.21
35.45469,471.48,595.60
35.47507,475.76,595.97
35.49649,472.30,593.99
35.51598,472.35,594.01
35.53643,472.40,596.31
35.55611,472.32,596.02
35.57533,474.04,594.92
35.59538,475.23,593.56
35.61458,473.67,596.54
35.63505,472.75,596.47
35.65650,474.51,595.48
35.67619,472.57,593.94
35.69499,476.49,595.48
35.71484,474.28,597.16
35.73449,475.60,596.72
35.75547,476.05,598.45
35.77615,476.35,597.66
35.79588,472.71,598.04
35.81511,474.06,596.67
35.83613,472.46,594.61
35.85618,473.67,595.90
35.87617,472.32,594.60
35.89605,474.18,595.92
35.91493,473.88,594.73
35.93577,473.44,595.25
35.95553,474.49,596.23
35.97610,472.67,592.51
35.99530,473.52,592.65
36.01613,476.13,592.20
36.03495,475.62,592.87
36.05573,472.53,591.97
36.07645,474.29,592.46
36.09644,472.33,593.14
36.11454,470.46,589.41
36.13646,472.58,592.14
36.15486,473.58,590.24
36.17668,473.66,590.83
36.19646,476.40,590.48
36.21727,478.91,591.01
36.23726,492.82,601.13
36.25711,515.31,613.54
36.27537,545.83,631.76
36.29610,571.90,644.85
36.31541,601.50,654.60
36.33577,619.24,656.27
36.35564,627.70,649.32
36.37595,633.19,641.09
36.39670,631.99,629.92
36.41588,626.89,617.34
36.43654,619.53,608.95
36.45740,609.02,598.42
36.47563,595.35,594.31
36.49701,582.84,588.12
36.51809,575.30,586.11
36.53828,560.13,583.45
36.55766,550.56,581.17
36.57729,539.99,582.55
36.59813,534.47,582.62
36.61782,526.09,583.91
36.63798,520.46,585.74
36.65855,515.12,585.70
36.67694,509.24,588.56
36.69736,502.48,588.54
36.71717,500.28,592.75
36.73783,495.25,589.87
36.75752,494.28,592.29
36.77636,492.60,591.93
36.79752,487.08,592.99
36.81832,485.39,593.02
36.83690,484.21,595.79
36.85705,484.20,595.22
36.87795,483.55,595.75
36.89690,483.63,594.11
36.91666,481.24,598.35
36.93723,481.26,597.10
36.95690,482.13,598.84
36.97824,481.82,598.70
36.99787,482.76,599.07
37.01762,481.71,595.92
37.03769,482.39,598.66
37.05709,478.43,595.76
37.07853,479.47,597.32
37.09819,474.50,598.78
37.11779,464.57,599.07
37.13689,446.46,599.93
37.15738,422.80,598.96
37.17722,395.72,594.67
37.19809,368.70,589.80
37.21706,345.60,581.12
37.23806,329.63,571.77
37.25833,319.89,566.50
37.27708,320.46,563.95
37.29730,327.18,564.54
37.31730,336.98,564.79
37.33725,348.24,567.31
37.35695,360.32,568.38
37.37757,368.68,568.32
37.39660,380.34,573.37
37.41753,392.97,575.00
37.43804,403.58,578.73
37.45705,413.48,579.54
37.47849,419.36,584.65
37.49654,428.91,586.83
37.51788,432.74,588.12
37.53746,439.88,589.93
37.55810,443.79,591.36
37.57712,449.26,592.70
37.59826,454.27,594.32
37.61728,459.37,593.98
37.63743,461.44,593.94
37.65667,467.09,595.75
37.67819,469.41,595.06
37.69731,467.24,595.23
37.71715,468.64,597.66
37.73741,472.29,597.05
37.75781,471.88,593.04
37.77692,471.13,593.00
37.79684,474.98,595.59
37.81644,475.12,593.46
37.83840,477.07,594.31
37.85764,475.55,592.23
37.87745,476.09,591.64
37.89661,476.58,593.90
37.91729,477.08,590.90
37.93834,477.42,594.01
37.95679,479.74,592.00
37.97823,475.46,593.00
37.99683,477.13,595.36
38.01765,479.47,594.36
38.03664,478.90,594.22
38.05680,478.61,592.13
38.07759,478.46,593.17
38.09782,474.35,594.14
38.11696,477.85,595.70
38.13754,476.03,592.70
38.15751,476.19,596.01
38.17760,478.91,595.84
38.19750,478.79,595.13
38.21838,479.21,595.99
38.23782,478.41,596.25
38.25744,476.08,594.24
38.27690,478.99,593.58
38.29767,476.92,594.97
38.31830,475.81,594.16
38.33754,475.47,595.17
38.35776,476.07,597.92
38.37821,477.72,597.49
38.39703,477.22,596.34
38.41757,476.34,599.62
38.43724,477.84,598.69
38.45825,476.95,597.54
38.47823,479.03,595.96
38.49694,476.17,597.03
38.51793,477.07,596.70
38.53810,479.28,595.69
38.55754,479.57,595.33
38.57714,477.48,594.30
38.59715,479.24,594.01
38.61728,477.81,596.48
38.63664,476.41,595.92
38.65715,479.06,595.87
38.67641,477.03,598.71
38.69830,477.87,598.71
38.71789,475.49,598.20
38.73829,476.41,596.97
38.75749,478.36,599.43
38.77660,475.30,600.50
38.79785,476.52,598.21
38.81757,478.33,601.74
38.83811,478.98,600.23
38.85788,477.21,599.17
38.87727,478.35,600.21
38.89737,477.40,599.61
38.91789,475.42,598.90
38.93678,476.84,601.27
38.95717,476.14,596.91
38.97821,476.32,598.10
38.99804,478.58,599.00
39.01754,480.04,597.54
39.03629,478.65,600.40
39.05735,476.02,601.67
39.07657,479.12,598.99
39.09785,478.45,601.34
39.11788,477.23,599.80
39.13687,479.53,598.88
39.15705,476.22,600.18
39.17819,476.74,598.25
39.19830,475.48,598.13
39.21656,476.78,599.85
39.23649,474.93,599.39
39.25773,477.32,599.41
39.27733,476.44,595.43
39.29675,477.09,597.46
39.31686,476.58,596.12
39.33769,474.36,598.60
39.35724,478.20,596.57
39.37817,477.63,598.97
39.39732,475.86,598.18
39.41712,473.92,599.43
39.43766,475.10,597.80
39.45803,475.86,597.62
39.47698,477.79,596.39
39.49771,475.48,595.22
39.51766,478.10,595.73
39.53671,477.38,596.31
39.55712,475.98,595.69
39.57678,476.47,598.08
39.59827,476.27,597.45
39.61666,477.31,596.77
39.63731,474.16,599.92
39.65729,474.62,599.86
39.67764,475.91,599.61
39.69822,473.80,598.67
39.71828,473.27,599.96
39.73740,475.24,597.01
39.75723,473.34,598.84
39.77843,473.39,597.98
39.79775,475.70,596.60
39.81844,476.09,595.83
39.83781,475.73,596.62
39.85664,477.45,597.03
39.87746,475.35,597.93
39.89806,477.06,598.15
39.91756,477.06,596.97
39.93728,474.22,594.94
39.95723,476.55,597.36
39.97828,475.87,594.96
39.99788,474.79,595.92
40.01809,476.94,596.00
40.03668,476.68,593.71
40.05706,476.48,594.95
40.07813,476.51,594.44
40.09728,476.91,593.61
40.11683,476.93,593.43
40.13643,475.04,594.77
40.15701,474.60,594.21
40.17771,476.47,596.54
40.19665,477.32,596.74
40.21710,476.79,596.10
40.23826,474.05,598.15
40.25646,475.84,600.07
40.27727,477.55,597.18
40.29703,474.46,598.60
40.31813,478.49,598.42
40.33720,477.59,600.63
40.35820,477.31,597.84
40.37790,477.14,598.44
40.39767,478.66,597.61
40.41777,477.27,596.73
40.43749,480.13,598.55
40.45635,478.79,596.39
40.47800,476.04,598.09
40.49760,476.36,595.34
40.51727,476.53,598.23
40.53690,477.91,596.91
40.55715,475.95,594.67
40.57709,477.91,596.92
40.59661,476.17,594.15
40.61709,476.11,594.18
40.63822,476.67,595.93
40.65823,473.62,594.44
40.67762,474.56,596.12
40.69674,474.15,594.00
40.71783,474.13,596.46
40.73749,473.24,592.47
40.75795,478.08,594.93
40.77744,499.77,605.36
40.79787,527.82,618.38
40.81814,557.72,627.64
40.83774,589.10,633.96
40.85776,607.67,636.67
40.87756,619.42,630.93
40.89802,628.17,626.66
40.91659,628.58,621.47
40.93766,623.82,616.72
40.95760,616.98,609.20
40.97669,607.46,604.88
40.99740,598.55,600.07
41.01730,585.29,595.98
41.03743,576.70,594.11
41.05779,567.66,591.48
41.07688,556.44,590.09
41.09775,546.82,591.15
41.11664,540.00,589.94
41.13689,529.85,593.41
41.15708,520.53,591.97
41.17755,514.11,594.96
41.19773,510.98,596.73
41.21767,503.77,595.98
41.23789,500.07,595.39
41.25820,497.22,596.18
41.27713,495.76,598.70
41.29750,491.84,599.05
41.31834,489.99,598.08
41.33750,485.43,598.91
41.35829,484.60,600.12
41.37640,486.15,600.70
41.39690,481.91,600.06
41.41819,483.22,600.46
41.43789,483.51,600.24
41.45806,479.92,598.06
41.47811,481.08,598.15
41.49832,478.66,599.19
41.51741,477.48,596.26
41.53837,475.68,595.85
41.55661,476.41,598.91
41.57681,473.52,595.84
41.59693,473.77,596.97
41.61664,476.27,597.56
41.63767,474.97,599.10
41.65671,474.86,599.43
41.67778,469.21,600.42
41.69651,453.29,601.53
41.71632,433.59,596.66
41.73837,407.04,591.91
41.75733,380.18,587.21
41.77691,353.68,578.96
41.79779,330.34,574.94
41.81780,313.62,570.07
41.83661,310.23,569.20
41.85782,309.14,566.68
41.87794,318.26,566.41
41.89807,327.35,565.08
41.91793,337.55,566.01
41.93640,350.80,567.98
41.95800,361.25,572.80
41.97698,375.92,574.40
41.99654,385.88,576.11
42.01765,396.93,576.42
42.03807,407.13,582.85
42.05631,414.14,585.82
42.07685,422.86,587.75
42.09707,429.73,588.48
42.11827,432.87,592.26
42.13820,437.39,591.52
42.15665,441.59,593.29
42.17843,447.08,594.66
42.19647,451.16,593.11
42.21731,451.99,592.61
42.23711,455.41,593.19
42.25733,456.27,594.09
42.27635,460.24,593.72
42.29661,460.62,593.02
42.31678,462.40,592.97
42.33637,465.36,592.31
42.35714,464.09,592.07
42.37649,466.34,591.66
42.39731,466.45,594.24
42.41815,466.14,595.50
42.43783,465.52,595.19
42.45631,464.88,595.78
42.47690,469.30,596.37
42.49770,469.14,596.95
42.51711,467.41,599.29
42.53836,469.78,599.45
42.55790,471.32,596.46
42.57623,469.07,598.28
42.59766,470.22,597.21
42.61718,467.54,597.20
42.63778,468.70,596.64
42.65808,465.71,599.06
42.67711,465.16,599.36
42.69661,466.90,596.95
42.71677,468.19,598.51
42.73777,469.50,600.18
42.75748,467.01,600.52
42.77800,469.93,598.42
42.79742,470.34,600.21
42.81773,471.63,598.37
42.83802,469.50,600.33
42.85652,469.48,599.12
42.87738,467.74,599.22
42.89761,468.20,599.79
42.91800,467.69,597.07
42.93699,465.23,599.69
42.95808,469.34,596.91
42.97752,466.15,600.99
42.99726,466.17,599.54
43.01719,470.52,598.27
43.03823,468.59,599.09
43.05756,466.43,597.60
43.07722,467.78,599.99
43.09706,467.98,596.91
43.11693,469.13,598.49
43.13677,469.57,601.06
43.15773,467.47,601.35
43.17692,467.46,601.30
43.19765,467.44,600.89
43.21789,465.12,600.60
43.23773,465.36,600.29
43.25674,467.27,598.70
43.27710,465.62,597.62
43.29637,465.21,595.49
43.31630,466.27,596.09
43.33729,465.23,593.35
43.35745,467.12,597.37
43.37756,463.76,596.34
43.39680,464.02,597.59
43.41735,462.27,594.11
43.43803,461.88,596.78
43.45668,463.52,595.29
43.47792,462.31,599.02
43.49661,462.41,594.82
43.51797,462.74,598.14
43.53627,463.14,597.22
43.55760,463.55,597.44
43.57815,466.01,598.00
43.59716,463.91,598.22
43.61771,465.95,599.04
43.63697,466.67,597.81
43.65745,465.90,594.79
43.67772,464.51,594.76
43.69737,465.34,598.01
43.71782,464.85,598.84
43.73690,468.09,596.96
43.75756,463.08,598.75
43.77712,462.89,595.18
43.79733,462.43,595.29
43.81700,463.45,596.02
43.83651,462.74,597.76
43.85676,462.09,596.89
43.87829,462.17,599.18
43.89678,461.10,596.93
43.91832,462.00,595.64
43.93829,461.38,594.43
43.95704,463.03,595.65
43.97658,461.87,594.09
43.99756,464.53,595.59
44.01751,460.93,595.19
44.03750,462.78,594.05
44.05778,461.78,594.13
44.07645,460.96,593.74
44.09688,464.77,593.20
44.11742,460.99,593.70
44.13729,462.68,595.85
44.15675,463.80,596.10
44.17701,462.11,596.19
44.19720,462.14,594.37
44.21724,461.89,595.54
44.23707,463.48,594.35
44.25785,461.93,596.40
44.27643,464.85,595.06
44.29837,463.37,593.02
44.31753,463.92,592.61
44.33680,464.36,590.65
44.35791,462.51,593.06
44.37646,462.88,593.56
44.39825,465.09,593.01
44.41765,464.21,595.43
44.43649,461.73,595.15
44.45683,462.72,595.14
44.47756,464.27,596.92
44.49838,464.81,596.23
44.51804,462.10,596.86
44.53729,462.48,598.12
44.55688,463.13,597.73
44.57707,463.11,598.07
44.59814,463.48,596.23
44.61718,464.14,595.00
44.63659,462.59,596.11
44.65708,462.07,596.38
44.67693,462.49,595.61
44.69667,459.77,595.38
44.71725,460.75,594.35
44.73819,460.55,594.56
44.75789,463.25,593.61
44.77665,461.91,594.37
44.79649,463.06,591.95
44.81751,461.89,592.44
44.83702,463.21,590.31
44.85644,463.04,590.73
44.87801,462.29,593.77
44.89835,459.67,590.62
44.91805,461.00,591.62
44.93802,459.99,591.78
44.95751,460.42,594.22
44.97832,460.12,590.67
44.99664,464.05,590.65
45.01812,463.15,591.93
45.03729,460.15,592.99
45.05655,459.75,592.53
45.07827,459.48,594.91
45.09674,460.87,594.63
45.11679,461.61,592.78
45.13743,458.78,593.28
45.15724,459.17,593.67
45.17785,458.40,593.19
45.19717,460.77,594.45
45.21645,460.99,595.27
45.23646,461.27,593.99
45.25720,458.69,594.66
45.27657,460.98,593.10
45.29817,462.56,591.48
45.31667,461.87,592.98
45.33716,460.50,590.87
45.35712,459.54,593.19
45.37678,458.52,590.12
45.39717,461.04,591.56
45.41654,459.04,590.51
45.43735,459.04,591.13
45.45817,461.54,592.22
45.47667,461.27,593.98
45.49705,458.11,590.13
45.51680,458.33,590.68
45.53792,459.76,594.05
45.55616,463.14,593.27
45.57750,462.75,591.09
45.59780,461.18,591.66
45.61636,459.37,595.00
45.63734,461.93,593.42
45.65771,461.91,596.09
45.67675,461.57,593.55
45.69778,460.50,595.08
45.71756,461.45,591.72
45.73634,461.58,593.88
45.75679,475.36,598.57
45.77657,496.45,605.20
45.79655,524.64,614.53
45.81751,551.66,621.14
45.83800,574.23,620.89
45.85665,589.68,620.71
45.87828,600.29,618.81
45.89687,607.18,612.83
45.91680,607.31,610.09
45.93766,605.75,604.49
45.95674,602.38,600.33
45.97802,590.01,594.67
45.99683,581.00,593.85
46.01790,571.33,588.47
46.03694,563.49,586.11
46.05790,553.06,584.48
46.07680,543.16,585.97
46.09679,533.74,584.35
46.11829,525.29,587.10
46.13668,517.57,588.90
46.15796,509.37,589.89
46.17707,501.47,587.47
46.19768,498.39,590.49
46.21821,493.07,588.90
46.23681,488.75,588.99
46.25673,485.72,590.43
46.27698,481.28,588.55
46.29748,479.67,589.43
46.31665,475.06,591.72
46.33799,474.07,591.63
46.35641,473.38,594.11
46.37644,468.54,593.06
46.39713,466.94,595.53
46.41636,465.95,595.72
46.43787,464.48,594.42
46.45740,467.44,594.38
46.47660,464.79,592.85
46.49691,463.56,594.22
46.51688,463.38,596.13
46.53761,464.38,593.90
46.55662,465.92,595.65
46.57678,460.16,595.48
46.59749,450.19,598.58
46.61911,428.40,595.15
46.63753,402.01,589.45
46.65742,372.44,582.26
46.67805,343.03,572.26
46.69742,318.32,565.12
46.71927,301.76,557.19
46.73861,296.31,553.00
46.75803,297.57,554.18
46.77807,307.39,553.31
46.79790,315.02,554.93
46.81768,327.35,561.19
46.83955,339.48,563.97
46.85866,351.79,568.83
46.87935,365.99,570.28
46.89898,374.26,571.37
46.91911,386.04,574.42
46.93951,396.40,579.58
46.95816,402.65,580.00
46.97916,410.88,582.06
46.99868,420.54,587.16
47.01928,422.70,587.08
47.03833,429.66,586.09
47.05972,433.69,589.72
47.07885,439.32,590.58
47.09970,438.55,593.63
47.11854,441.75,589.84
47.13982,447.86,591.63
47.15946,449.71,590.83
47.18026,449.83,591.45
47.20027,454.82,591.72
47.21842,454.43,591.85
47.23841,456.64,590.00
47.25885,458.66,590.94
47.27841,459.49,590.53
47.29983,460.66,591.89
47.31897,458.54,592.02
47.34027,463.73,594.74
47.35974,463.08,592.62
47.37930,461.60,593.01
47.39854,463.17,593.97
47.41861,465.13,595.00
47.43961,465.76,594.84
47.45987,466.92,595.20
47.48008,469.28,594.73
47.50009,466.31,594.80
47.51986,468.13,595.13
47.53838,465.57,596.63
47.55873,467.73,596.11
47.57943,468.29,594.19
47.59827,465.79,596.59
47.61951,466.83,596.70
47.64005,463.70,596.41
47.65870,464.46,594.84
47.67949,464.65,597.21
47.69974,465.25,595.37
47.72003,464.39,596.21
47.73920,464.94,596.92
47.75887,462.30,593.92
47.77861,465.66,597.82
47.79868,465.41,595.73
47.81915,464.16,593.04
47.83853,464.40,594.75
47.85965,465.34,597.44
47.87979,463.92,598.85
47.89895,465.35,596.87
47.91978,463.79,598.62
47.94119,465.47,608.77
47.96061,464.17,619.46
47.98086,468.15,646.84
48.00097,474.00,683.78
48.02079,479.44,712.95
48.04085,480.70,729.22
48.06077,482.55,719.10
48.08065,477.84,694.98
48.10025,475.42,665.83
48.12008,472.56,638.02
48.14064,468.57,608.72
48.16070,469.36,584.24
48.17942,465.13,565.06
48.20018,466.38,550.11
48.22132,462.14,540.52
48.24018,462.14,530.36
48.26118,464.94,528.29
48.27911,465.06,530.75
48.29939,466.27,529.77
48.31953,465.31,534.23
48.33933,466.97,540.46
48.36016,466.60,544.39
48.38097,465.70,548.27
48.40055,468.40,552.69
48.42076,467.53,556.20
48.44022,467.73,563.91
48.46050,466.70,568.31
48.48075,466.75,571.45
48.50008,465.78,573.57
48.52110,466.37,577.68
48.54012,465.61,580.81
48.56064,468.80,581.19
48.58071,469.05,582.88
48.59935,466.92,588.35
48.62081,469.37,587.88
48.64083,469.39,588.69
48.66034,466.96,588.80
48.68104,466.13,591.12
48.70107,468.85,591.25
48.72054,468.57,594.22
48.73971,470.86,591.67
48.76001,470.60,595.35
48.78013,468.67,595.67
48.80040,470.03,593.89
48.82009,470.79,596.86
48.84009,471.57,596.31
48.86007,472.63,596.32
48.88015,471.61,595.24
48.90088,469.07,594.67
48.92084,468.61,596.65
48.94043,469.39,593.07
48.96114,469.23,594.53
48.97971,471.73,592.72
48.99941,471.24,592.80
49.02049,472.61,596.33
49.04093,472.09,594.39
49.06104,472.19,595.91
49.07925,473.02,593.14
49.10051,474.17,595.28
49.12046,471.46,594.11
49.13924,475.30,595.35
49.15985,473.09,593.22
49.18048,471.83,591.93
49.20099,473.05,593.90
49.21958,474.59,590.94
49.23998,473.34,594.27
49.26038,473.50,592.42
49.28062,473.23,590.78
49.30035,472.00,594.87
49.32000,472.67,591.86
49.34102,473.90,593.67
49.36041,470.86,591.59
49.38070,471.93,593.63
49.40064,471.19,592.50
49.42019,471.88,595.09
49.43982,471.45,593.23
49.46081,474.17,594.53
49.48027,472.84,595.61
49.50066,474.20,592.39
49.51976,474.23,594.51
49.54051,476.33,596.53
49.56098,473.49,596.29
49.57967,474.82,594.57
49.60000,473.46,595.81
49.61942,474.25,595.47
49.63954,475.20,597.32
49.66032,471.95,595.73
49.68134,471.19,597.43
49.70082,471.69,595.51
49.72033,471.95,593.80
49.74103,472.75,594.72
49.76194,475.30,596.17
49.78185,475.81,596.51
49.80169,476.65,594.47
49.82062,476.77,594.24
49.84190,477.21,592.81
49.86070,477.49,595.12
49.88142,476.32,595.57
49.90049,477.67,592.46
49.92151,479.06,594.20
49.94032,478.81,593.99
49.96140,475.83,592.13
49.98064,478.32,592.04
50.00077,477.71,592.25
50.02010,475.21,595.71
50.04060,477.48,595.17
50.06091,476.45,593.75
50.08224,479.63,595.37
50.10023,481.14,598.25
50.12167,481.71,596.15
50.14114,479.55,594.40
50.16144,479.78,593.93
50.18022,478.17,594.37
50.20058,479.88,597.70
50.22053,478.52,594.98
50.24114,478.38,594.89
50.26125,478.34,597.61
50.28060,476.68,595.11
50.30005,476.95,594.63
50.32091,476.69,595.02
50.34175,480.35,595.42
50.36154,477.53,592.96
50.38221,481.12,592.36
50.40131,479.88,592.39
50.42048,482.65,594.06
50.44168,499.03,597.93
50.46228,520.71,608.30
50.48132,545.02,616.09
50.50120,569.42,626.97
50.52071,591.30,629.90
50.54011,611.30,634.41
50.56170,623.14,632.42
50.58071,628.90,628.80
50.60119,629.62,625.67
50.62077,627.05,623.69
50.64052,622.84,620.00
50.66177,615.35,613.53
50.68200,605.13,609.61
50.70078,595.82,607.51
50.72036,587.88,604.55
50.74188,575.03,601.67
50.76144,564.96,599.15
50.78024,554.20,599.02
50.80081,546.73,600.89
50.82180,538.30,598.35
50.84013,530.52,598.63
50.86212,522.23,596.56
50.88098,519.11,596.68
50.90220,511.67,598.93
50.92103,509.84,599.00
50.94141,501.32,598.72
50.96193,500.67,598.39
50.98155,496.33,599.50
51.00132,496.74,599.45
51.02051,491.96,599.20
51.04072,491.11,600.43
51.06055,489.31,599.49
51.08196,487.06,601.34
51.10154,483.07,601.81
51.12093,483.55,600.38
51.14149,482.82,599.56
51.16063,483.08,597.37
51.18129,482.08,600.05
51.20193,483.39,600.36
51.22105,479.77,599.41
51.24051,482.56,600.64
51.26194,481.65,597.62
51.28180,479.37,597.03
51.30152,477.18,599.59
51.32113,478.00,598.05
51.34126,478.93,600.49
51.36114,475.45,600.55
51.38123,477.14,597.00
51.40038,478.85,599.28
51.42038,477.71,597.91
51.44023,472.45,599.54
51.46142,459.23,606.36
51.48190,442.30,606.57
51.50060,417.86,609.49
51.52214,394.28,608.70
51.54119,371.49,601.83
51.56201,352.38,594.09
51.58190,335.52,586.31
51.60029,329.84,577.35
51.62030,329.53,572.27
51.64075,336.00,571.05
51.66131,343.72,571.46
51.68146,353.97,572.29
51.70055,367.43,570.25
51.72068,377.28,570.30
51.74198,389.45,573.83
51.76102,399.06,572.59
51.78075,410.90,576.10
51.80167,417.97,578.13
51.82004,426.00,579.17
51.84143,433.33,583.45
51.86093,439.01,583.17
51.88120,444.65,585.74
51.90055,447.48,587.43
51.92027,453.23,585.69
51.94037,458.27,588.55
51.96176,462.33,590.29
51.98019,462.89,590.05
52.00163,464.54,591.37
52.02141,468.43,591.16
52.04106,468.38,590.95
52.06164,468.54,590.24
52.08172,469.24,591.47
52.10222,471.54,593.53
52.12183,472.37,592.20
52.14120,474.39,593.84
52.16148,477.06,596.70
52.18022,476.83,593.82
52.20200,478.92,596.09
52.22166,479.34,593.85
52.24185,477.91,593.48
52.26171,481.18,596.13
52.28141,479.27,593.98
52.30202,482.34,595.96
52.32067,481.96,594.06
52.34070,479.46,595.47
52.36018,482.10,595.48
52.38080,481.80,596.35
52.40190,478.02,594.80
52.42131,480.23,594.51
52.44053,479.89,597.39
52.46078,481.61,594.90
52.48125,480.58,594.65
52.50190,480.49,598.14
52.52197,480.37,599.25
52.54086,476.94,598.08
52.56118,476.26,597.44
52.58157,477.39,597.44
52.60014,475.39,598.17
52.62077,476.34,597.13
52.64176,477.34,597.17
52.66177,476.96,595.02
52.68238,479.09,592.34
52.70107,475.00,593.03
52.72235,478.69,593.75
52.74171,477.78,593.53
52.76292,476.24,591.31
52.78169,478.04,594.94
52.80267,476.33,591.80
52.82111,475.39,593.88
52.84219,477.33,592.27
52.86158,475.56,590.47
52.88259,475.59,591.71
52.90281,476.43,590.80
52.92285,476.52,593.78
52.94205,475.23,601.36
52.96164,474.06,605.55
52.98129,475.04,608.07
53.00220,473.21,610.94
53.02170,474.63,608.52
53.04144,474.94,606.39
53.06237,474.02,604.18
53.08241,475.18,600.85
53.10207,474.19,596.84
53.12168,478.33,595.93
53.14166,474.81,595.11
53.16212,477.14,593.38
53.18287,473.60,591.86
53.20285,474.58,589.22
53.22200,476.64,590.37
53.24102,473.19,589.10
53.26199,472.86,591.25
53.28210,475.68,590.37
53.30143,474.45,590.23
53.32265,474.77,590.02
53.34185,473.70,588.70
53.36182,473.42,591.47
53.38115,476.76,592.36
53.40258,474.38,596.03
53.42157,472.99,609.02
53.44277,474.50,625.53
53.46258,479.85,656.44
53.48291,482.81,692.89
53.50136,485.24,715.73
53.52283,486.96,715.16
53.54140,484.73,701.15
53.56131,481.08,675.66
53.58257,477.38,647.25
53.60170,475.34,621.47
53.62139,473.35,597.40
53.64222,472.69,582.70
53.66226,468.64,565.87
53.68169,468.15,554.39
53.70360,467.96,550.36
53.72310,466.79,543.94
53.74275,468.11,543.57
53.76392,466.52,541.95
53.78393,465.90,544.80
53.80263,468.09,547.61
53.82218,468.46,550.07
53.84226,467.67,552.11
53.86320,465.63,557.96
53.88230,468.06,559.52
53.90321,467.58,563.17
53.92316,468.86,568.77
53.94306,470.70,570.75
53.96246,468.76,575.63
53.98269,470.58,576.80
54.00252,468.49,579.09
54.02313,467.13,581.93
54.04218,468.24,584.11
54.06334,467.55,585.91
54.08332,467.11,585.56
54.10334,469.75,588.78
54.12261,470.86,589.73
54.14360,470.87,590.85
54.16223,470.74,593.37
54.18275,469.46,593.33
54.20290,466.59,595.05
54.22355,467.68,595.48
54.24302,467.62,595.49
54.26408,468.07,593.06
54.28325,467.65,594.13
54.30229,466.23,593.49
54.32233,465.33,593.95
54.34325,467.05,591.45
54.36290,467.85,593.76
54.38282,469.40,594.14
54.40323,467.91,595.62
54.42223,468.27,597.01
54.44318,468.60,596.31
54.46279,466.60,597.89
54.48228,469.39,595.29
54.50287,469.85,596.25
54.52233,467.75,597.59
54.54318,469.05,597.51
54.56219,467.54,596.83
54.58338,466.04,595.85
54.60361,465.43,597.22
54.62270,468.17,599.22
54.64324,466.43,596.34
54.66336,467.68,598.49
54.68306,467.00,599.39
54.70348,464.59,597.28
54.72324,466.69,597.66
54.74296,463.69,597.46
54.76271,465.17,597.68
54.78451,463.24,596.86
54.80429,463.73,595.28
54.82347,463.17,595.76
54.84413,463.77,594.15
54.86351,461.78,593.84
54.88388,460.76,594.46
54.90348,462.13,595.10
54.92533,461.10,595.65
54.94450,462.71,593.26
54.96521,463.25,594.59
54.98402,464.71,594.31
55.00586,482.36,599.95
55.02563,503.73,609.58
55.04409,525.42,622.44
55.06447,551.46,630.26
55.08485,573.74,638.97
55.10468,587.68,642.03
55.12471,599.43,639.39
55.14469,605.75,640.08
55.16381,605.56,635.68
55.18521,605.23,631.61
55.20597,599.48,627.80
55.22421,593.58,620.99
55.24585,586.14,616.91
55.26506,577.39,611.21
55.28475,565.57,607.33
55.30447,557.23,607.13
55.32464,546.02,601.30
55.34457,538.03,601.17
55.36409,528.45,599.45
55.38402,521.18,597.70
55.40424,511.73,599.07
55.42440,505.47,599.99
55.44483,498.14,598.04
55.46558,492.42,597.56
55.48438,489.60,598.68
55.50479,484.72,597.42
55.52529,480.78,596.80
55.54470,477.96,597.02
55.56513,473.92,598.99
55.58441,471.10,596.56
55.60460,472.17,597.28
55.62597,469.70,599.16
55.64413,468.98,597.61
55.66577,469.67,597.11
55.68417,467.11,597.11
55.70489,466.63,595.13
55.72533,464.09,596.56
55.74426,465.16,597.18
55.76631,464.56,594.99
55.78460,464.47,596.22
55.80554,464.48,594.48
55.82472,464.80,593.90
55.84561,463.88,596.70
55.86432,463.82,596.44
55.88535,460.56,593.39
55.90455,463.34,596.35
55.92468,461.90,597.63
55.94522,461.32,600.05
55.96602,456.32,600.63
55.98612,449.89,605.46
56.00488,439.81,605.97
56.02494,422.80,608.87
56.04460,399.47,609.77
56.06438,379.34,604.49
56.08527,354.14,595.27
56.10588,336.32,584.60
56.12573,318.86,573.91
56.14445,316.92,566.00
56.16496,313.11,564.50
56.18506,319.40,562.35
56.20449,328.14,560.42
56.22582,337.74,556.28
56.24414,351.32,559.89
56.26509,362.90,559.71
56.28607,372.84,561.54
56.30501,380.91,565.69
56.32500,390.96,567.65
56.34520,397.49,573.42
56.36414,406.44,573.41
56.38568,413.38,576.94
56.40579,420.15,576.85
56.42437,424.13,579.12
56.44405,430.01,580.62
56.46596,430.62,583.78
56.48479,437.90,583.11
56.50602,440.35,586.54
56.52576,445.37,587.28
56.54491,447.24,584.82
56.56453,447.53,586.17
56.58441,450.95,590.41
56.60510,449.23,589.95
56.62538,451.75,588.23
56.64514,453.76,591.53
56.66435,455.12,592.36
56.68595,455.14,590.47
56.70668,458.01,589.47
56.72712,459.38,592.79
56.74757,461.00,592.54
56.76725,459.05,590.68
56.78719,458.95,590.95
56.80638,462.66,593.30
56.82749,461.69,590.80
56.84791,464.55,591.73
56.86741,464.91,592.18
56.88763,465.28,593.86
56.90736,465.57,592.57
56.92857,466.65,592.62
56.94937,466.53,594.60
56.96895,465.93,594.07
56.98823,465.12,596.38
57.00890,462.97,595.39
57.02902,465.68,595.13
57.05044,464.58,595.60
57.06903,466.05,597.27
57.08990,469.21,595.03
57.10944,469.59,593.45
57.12933,469.27,595.17
57.14917,471.29,594.35
57.17081,474.52,595.43
57.19075,472.23,596.47
57.21054,474.31,593.62
57.23075,473.45,595.38
57.25082,474.45,595.77
57.26928,474.00,594.79
57.29040,472.61,594.34
57.30934,474.45,597.90
57.32983,473.90,598.23
57.35159,472.79,597.47
57.37091,472.79,598.85
57.39127,473.96,597.15
57.41047,475.88,597.11
57.42990,473.19,596.88
57.45174,475.82,596.48
57.47150,476.72,595.85
57.49162,475.26,595.68
57.51138,476.15,596.59
57.53126,478.19,594.55
57.55112,476.19,594.36
57.57038,474.76,595.14
57.59005,475.73,594.69
57.61122,477.11,594.75
57.63088,476.67,593.32
57.65113,478.10,593.25
57.67157,478.23,592.95
57.69080,478.16,594.73
57.71090,477.76,595.95
57.73215,477.57,596.84
57.75140,478.09,596.39
57.77380,480.94,596.68
57.79291,478.45,597.15
57.81247,477.39,596.12
57.83273,479.83,598.24
57.85389,479.33,596.39
57.87211,479.08,595.05
57.89354,478.67,596.88
57.91461,479.53,599.19
57.93409,478.95,599.29
57.95317,477.36,596.29
57.97345,479.43,595.65
57.99477,478.88,598.19
58.01448,475.62,598.61
58.03550,476.94,598.22
58.05488,474.04,600.55
58.07459,480.36,605.99
58.09471,487.76,610.66
58.11515,492.96,610.10
58.13542,497.52,611.16
58.15450,497.86,610.24
58.17712,496.89,609.65
58.19616,492.91,609.07
58.21612,490.70,608.55
58.23675,490.55,605.84
58.25506,487.13,605.24
58.27656,487.75,607.02
58.29574,486.03,605.74
58.31570,482.63,601.14
58.33506,482.44,599.10
58.35631,477.68,596.71
58.37698,477.11,596.65
58.39526,478.74,593.98
58.41651,476.88,593.48
58.43554,473.92,594.79
58.45480,476.06,594.73
58.47530,475.57,591.85
58.49568,474.50,593.46
58.51673,476.52,595.78
58.53624,476.01,595.27
58.55547,472.77,595.43
58.57556,472.17,594.38
58.59609,472.09,594.06
58.61643,473.18,596.42
58.63498,472.42,596.88
58.65650,473.83,594.41
58.67560,470.69,594.46
58.69563,473.21,593.80
58.71504,473.29,592.50
58.73565,471.78,594.52
58.75568,473.30,594.67
58.77523,472.50,593.88
58.79637,474.59,595.65
58.81575,472.51,596.11
58.83635,470.91,595.15
58.85667,471.46,593.19
58.87702,474.05,596.69
58.89625,474.98,596.03
58.91616,473.66,596.05
58.93614,471.94,594.67
58.95699,473.90,596.63
58.97637,471.91,593.63
58.99622,473.14,593.98
59.01553,477.00,596.47
59.03577,472.33,595.74
59.05589,473.08,593.71
59.07563,473.68,592.47
59.09548,474.04,594.38
59.11649,475.19,594.02
59.13669,473.65,593.96
59.15652,473.86,597.55
59.17525,474.21,601.89
59.19618,476.15,615.08
59.21562,481.96,636.17
59.23672,490.23,657.61
59.25633,494.83,685.20
59.27521,499.36,709.30
59.29696,504.56,726.98
59.31615,505.22,738.17
59.33684,510.13,746.71
59.35694,509.55,748.74
59.37644,508.01,747.26
59.39644,508.06,749.56
59.41618,502.49,746.78
59.43671,501.32,739.81
59.45566,498.08,736.58
59.47653,496.19,728.51
59.49586,491.50,726.46
59.51518,490.52,719.46
59.53551,485.66,716.18
59.55577,482.48,709.52
59.57561,481.49,704.36
59.59646,480.01,700.09
59.61626,479.41,693.67
59.63522,476.29,689.25
59.65680,474.78,688.84
59.67598,473.73,684.36
59.69502,473.92,676.88
59.71612,469.85,677.34
59.73684,470.44,671.06
59.75636,466.70,667.92
59.77704,461.74,663.85
59.79502,460.72,662.24
59.81565,455.93,661.95
59.83544,454.61,656.31
59.85531,453.72,653.96
59.87651,456.75,649.39
59.89523,454.78,647.39
59.91613,454.70,641.54
59.93606,455.61,641.58
59.95543,456.55,635.98
59.97630,463.41,629.57
59.99596,467.27,633.05
60.01592,469.46,631.13
60.03608,471.38,628.85
60.05698,469.85,623.49
60.07608,470.69,632.86
60.09614,470.17,632.98
60.11571,463.12,633.35
60.13579,461.87,632.43
60.15685,459.89,629.30
60.17659,455.68,624.87
60.19561,459.64,614.25
60.21689,466.31,613.81
60.23637,465.62,610.97
60.25663,460.54,609.57
60.27570,461.99,607.63
60.29651,469.46,593.39
60.31616,470.65,609.66
60.33625,472.58,619.37
60.35572,476.63,641.28
