Program Time [s],data 0,data 1
34.55981,464.04,434.18
34.58077,455.98,435.41
34.60169,452.30,432.97
34.62234,451.28,427.52
34.64258,452.87,424.68
34.66116,442.56,421.23
34.68170,423.54,414.88
34.70112,403.34,416.94
34.72143,392.73,418.81
34.74129,388.30,418.32
34.76194,384.90,426.19
34.78153,388.84,434.06
34.80225,394.79,442.85
34.82310,394.16,444.44
34.84203,400.21,448.26
34.86174,404.04,450.64
34.88236,407.50,455.85
34.90215,408.69,468.17
34.92171,412.02,477.18
34.94134,419.32,484.88
34.96173,424.65,488.28
34.98238,425.12,487.37
35.00190,423.49,490.49
35.02278,422.75,495.45
35.04350,429.90,502.58
35.06384,428.95,505.35
35.08255,432.15,502.70
35.10313,435.72,495.01
35.12455,435.97,489.97
35.14339,436.34,485.81
35.16455,426.84,478.98
35.18477,427.61,474.83
35.20433,431.83,472.58
35.22408,436.43,470.77
35.24327,437.33,469.61
35.26321,438.30,472.93
35.28350,434.97,474.88
35.30458,429.83,476.41
35.32532,423.48,479.10
35.34481,423.54,483.64
35.36437,422.84,487.43
35.38477,426.21,486.72
35.40533,426.86,491.77
35.42506,425.72,490.64
35.44436,428.18,492.57
35.46567,429.33,487.93
35.48540,427.27,487.84
35.50425,427.92,479.41
35.52416,431.43,473.81
35.54515,430.34,471.30
35.56472,432.87,468.06
35.58436,431.23,465.82
35.60404,433.45,465.26
35.62595,435.37,459.56
35.64438,432.45,459.50
35.66398,433.36,463.26
35.68516,439.13,467.33
35.70513,455.54,480.03
35.72557,478.16,496.73
35.74448,502.41,515.72
35.76537,527.02,526.48
35.78543,549.62,537.16
35.80574,562.77,540.90
35.82605,569.88,541.20
35.84520,569.91,541.11
35.86599,567.43,536.94
35.88533,559.20,532.74
35.90634,556.05,526.69
35.92673,544.93,521.46
35.94680,537.13,515.02
35.96663,525.90,507.77
35.98754,518.88,503.05
36.00624,509.88,499.49
36.02786,500.77,491.72
36.04683,493.49,487.71
36.06676,488.63,486.66
36.08737,479.90,480.87
36.10805,473.10,481.75
36.12783,470.68,477.99
36.14660,464.55,477.50
36.16658,459.02,475.29
36.18794,454.12,478.73
36.20773,452.77,478.09
36.22740,451.04,480.30
36.24772,448.34,481.89
36.26843,445.72,483.88
36.28830,444.48,484.59
36.30765,443.94,484.18
36.32770,443.98,484.05
36.34707,440.50,484.95
36.36861,439.26,487.97
36.38887,440.71,488.01
36.40891,441.94,486.49
36.42750,440.22,484.65
36.44778,440.97,482.48
36.46852,434.35,483.64
36.48728,426.46,482.77
36.50810,409.71,478.12
36.52833,389.31,471.60
36.54777,368.30,472.79
36.56715,347.02,468.86
36.58899,321.99,464.60
36.60926,301.92,455.07
36.62803,293.52,446.97
36.64831,292.20,442.85
36.66914,297.14,440.16
36.69006,300.29,436.57
36.70976,311.78,435.58
36.72901,323.50,437.31
36.74848,331.98,438.22
36.76823,342.69,444.33
36.78833,353.24,448.58
36.80938,366.84,451.14
36.82941,373.35,454.52
36.84939,381.27,457.86
36.86920,392.27,459.19
36.88991,397.83,461.41
36.90950,405.22,465.65
36.92946,408.72,465.38
36.94970,411.01,466.83
36.96809,414.41,466.15
36.98905,418.94,469.21
37.00944,423.64,470.76
37.02795,423.64,473.78
37.05067,429.53,472.70
37.06963,428.92,473.38
37.08928,427.99,474.25
37.11066,431.42,475.08
37.12994,431.25,475.56
37.15070,432.38,471.99
37.17092,432.56,472.77
37.19021,437.09,472.44
37.21087,434.73,472.95
37.23184,435.97,470.88
37.25162,437.49,471.03
37.26995,437.24,472.42
37.29060,438.86,470.85
37.31013,437.84,469.59
37.33125,441.87,469.22
37.35146,440.50,468.88
37.37266,441.37,468.12
37.39204,440.47,467.45
37.41198,437.59,465.07
37.43091,437.52,464.24
37.45201,440.25,464.56
37.47132,438.10,467.09
37.49160,439.71,465.82
37.51270,438.08,468.64
37.53196,438.95,468.92
37.55192,439.04,469.73
37.57263,439.99,471.73
37.59133,436.42,472.09
37.61252,435.67,471.39
37.63181,436.41,472.90
37.65119,439.05,474.98
37.67215,436.67,470.86
37.69216,434.97,472.58
37.71213,436.88,470.15
37.73228,438.91,471.69
37.75331,436.46,471.39
37.77233,436.66,471.18
37.79315,435.05,468.80
37.81269,437.62,470.86
37.83240,434.09,471.40
37.85324,436.18,471.01
37.87408,436.27,467.81
37.89448,437.21,467.91
37.91459,436.11,469.10
37.93433,434.85,466.51
37.95357,434.24,466.11
37.97432,435.34,468.87
37.99396,435.46,469.59
38.01386,433.87,467.13
38.03315,436.80,466.48
38.05421,435.61,469.77
38.07369,433.96,469.51
38.09488,434.44,469.40
38.11325,437.32,467.67
38.13474,436.03,469.21
38.15394,434.27,469.87
38.17357,434.21,466.88
38.19275,436.32,464.78
38.21303,437.94,467.14
38.23313,436.05,466.72
38.25477,438.40,467.46
38.27438,438.12,470.56
38.29443,441.76,478.66
38.31390,453.92,496.71
38.33315,477.29,518.48
38.35410,509.87,547.52
38.37361,538.11,571.89
38.39424,561.49,586.16
38.41386,573.12,593.22
38.43381,583.71,587.03
38.45325,587.92,575.35
38.47290,586.95,558.78
38.49310,579.35,532.65
38.51399,571.01,511.38
38.53312,557.97,488.37
38.55325,544.66,472.31
38.57302,535.25,459.74
38.59393,522.49,454.33
38.61278,514.87,446.25
38.63389,503.69,443.11
38.65459,493.43,443.72
38.67481,486.61,444.23
38.69337,480.07,446.11
38.71344,472.33,444.07
38.73292,467.08,448.04
38.75394,461.28,451.86
38.77328,456.89,451.74
38.79458,450.69,453.54
38.81395,449.65,455.12
38.83376,447.26,456.57
38.85467,443.59,458.23
38.87438,443.48,459.27
38.89414,440.79,461.12
38.91472,440.50,463.00
38.93561,438.02,462.40
38.95393,439.13,463.49
38.97463,437.31,465.55
38.99529,437.51,464.15
39.01561,438.21,467.34
39.03567,435.12,466.36
39.05648,436.23,466.24
39.07661,436.02,468.02
39.09751,437.61,468.12
39.11758,437.25,466.69
39.13720,436.76,466.26
39.15731,436.42,470.24
39.17635,436.44,466.90
39.19583,435.23,467.24
39.21669,435.42,470.69
39.23627,434.18,472.66
39.25685,434.35,472.86
39.27611,435.62,473.67
39.29752,434.16,472.22
39.31770,429.89,475.60
39.33609,417.90,481.79
39.35794,404.59,497.19
39.37653,387.75,511.91
39.39750,369.30,519.21
39.41644,347.21,508.51
39.43632,321.11,490.83
39.45608,297.47,465.89
39.47742,282.88,440.06
39.49712,274.67,424.28
39.51736,278.40,412.65
39.53588,282.68,407.64
39.55582,295.19,404.20
39.57721,306.55,405.18
39.59809,317.33,404.60
39.61761,331.33,408.54
39.63707,339.64,414.60
39.65664,352.34,417.98
39.67664,364.51,423.93
39.69701,371.84,427.94
39.71661,381.29,434.86
39.73722,385.66,438.89
39.75712,394.31,443.90
39.77682,399.83,446.74
39.79714,405.74,450.54
39.81789,409.36,451.73
39.83723,412.57,455.05
39.85651,416.33,457.52
39.87641,419.16,460.53
39.89656,423.14,463.02
39.91756,422.94,463.85
39.93657,424.58,467.22
39.95684,426.71,466.01
39.97763,428.10,467.24
39.99679,426.42,469.52
40.01757,426.74,470.43
40.03708,427.57,470.31
40.05630,429.19,469.72
40.07593,431.05,468.02
40.09715,429.72,468.22
40.11657,429.86,470.34
40.13634,432.29,469.00
40.15668,433.79,469.93
40.17705,432.92,469.96
40.19660,432.77,471.04
40.21713,431.89,472.18
40.23680,431.26,471.01
40.25626,434.99,474.03
40.27606,433.88,474.05
40.29732,432.25,471.14
40.31631,433.40,470.91
40.33619,434.03,472.56
40.35609,434.18,469.24
40.37625,433.95,471.36
40.39784,436.60,470.66
40.41591,434.16,472.02
40.43624,434.36,472.94
40.45729,433.90,472.36
40.47651,436.44,468.99
40.49593,432.68,469.73
40.51740,435.43,469.38
40.53653,433.78,472.74
40.55659,434.56,472.26
40.57734,434.96,472.68
40.59718,433.72,471.55
40.61659,432.89,474.18
40.63739,435.38,472.31
40.65677,434.77,473.39
40.67759,434.18,472.53
40.69769,434.26,473.42
40.71629,434.04,473.76
40.73602,434.32,473.68
40.75665,433.64,473.86
40.77705,434.67,468.59
40.79715,432.22,469.73
40.81735,435.06,469.50
40.83667,432.91,470.61
40.85633,434.16,470.88
40.87630,435.42,470.32
40.89782,432.64,468.27
40.91606,434.29,472.64
40.93725,434.57,471.37
40.95707,431.21,473.24
40.97681,433.36,475.71
40.99713,434.27,475.09
41.01719,433.95,471.93
41.03655,433.09,473.93
41.05652,436.06,474.74
41.07666,435.00,472.15
41.09593,433.69,473.97
41.11742,435.02,470.96
41.13607,431.76,473.67
41.15773,433.67,472.59
41.17595,435.51,473.68
41.19743,433.66,473.84
41.21626,432.50,473.45
41.23782,436.19,473.05
41.25587,434.51,472.68
41.27592,435.71,474.81
41.29737,434.39,476.05
41.31615,434.36,474.76
41.33693,432.86,476.23
41.35695,431.89,475.23
41.37591,436.68,474.31
41.39768,434.92,473.67
41.41643,433.82,472.90
41.43589,435.30,474.04
41.45603,431.93,476.02
41.47781,433.76,477.45
41.49730,434.97,473.66
41.51662,433.96,473.86
41.53765,435.50,471.92
41.55731,434.92,471.88
41.57612,432.70,474.64
41.59759,434.22,474.06
41.61679,433.33,473.96
41.63683,434.54,471.34
41.65707,432.61,474.32
41.67631,432.91,472.95
41.69646,430.46,474.53
41.71755,433.23,471.66
41.73636,433.03,475.99
41.75636,433.75,473.23
41.77780,435.66,475.23
41.79618,434.38,473.48
41.81789,435.97,478.33
41.83607,435.14,473.97
41.85613,435.94,473.27
41.87723,434.27,476.16
41.89718,435.89,472.26
41.91720,433.89,472.14
41.93727,432.32,472.25
41.95675,435.04,474.25
41.97673,433.24,472.17
41.99762,431.78,476.33
42.01666,441.86,478.06
42.03673,459.48,485.30
42.05750,485.55,495.89
42.07693,513.12,504.44
42.09707,536.95,513.30
42.11734,558.94,517.51
42.13646,572.68,517.13
42.15748,581.46,515.71
42.17626,586.83,507.94
42.19732,586.09,502.27
42.21593,578.98,498.11
42.23742,573.67,495.23
42.25641,561.68,489.29
42.27618,550.18,486.79
42.29737,540.31,483.25
42.31775,529.63,481.51
42.33689,521.19,478.64
42.35614,510.14,478.95
42.37612,501.41,474.78
42.39694,494.44,476.17
42.41712,489.32,473.94
42.43684,480.07,476.87
42.45695,475.52,477.43
42.47692,469.95,475.18
42.49597,465.08,476.47
42.51769,460.30,477.37
42.53744,458.50,478.34
42.55612,452.86,479.10
42.57793,453.88,480.45
42.59726,449.87,481.41
42.61773,449.79,481.03
42.63762,446.21,479.72
42.65610,443.24,478.94
42.67755,441.20,477.57
42.69763,440.51,477.47
42.71740,439.93,479.69
42.73681,440.25,477.98
42.75656,439.86,480.30
42.77709,439.42,479.76
42.79612,436.40,479.99
42.81701,435.60,477.71
42.83716,436.02,475.55
42.85613,434.14,476.27
42.87734,434.00,475.86
42.89757,431.81,479.17
42.91740,431.45,480.34
42.93720,432.79,477.65
42.95640,431.82,479.97
42.97676,433.10,479.94
42.99669,432.94,479.50
43.01697,431.45,478.07
43.03671,427.74,481.63
43.05674,424.68,487.98
43.07702,419.79,503.24
43.09741,413.11,520.56
43.11748,405.91,539.62
43.13699,395.17,556.57
43.15624,386.90,563.86
43.17599,374.07,561.81
43.19658,354.44,549.17
43.21690,337.71,521.09
43.23753,314.32,492.26
43.25776,297.09,456.79
43.27726,287.94,426.72
43.29594,283.74,408.17
43.31759,286.70,395.43
43.33747,290.28,388.19
43.35767,299.08,386.10
43.37783,310.79,386.36
43.39608,320.16,387.93
43.41744,330.31,393.12
43.43764,341.70,402.70
43.45630,349.85,407.22
43.47598,359.42,412.04
43.49592,369.09,421.84
43.51728,376.71,427.98
43.53610,385.95,434.03
43.55637,393.28,440.17
43.57639,399.51,446.92
43.59669,403.98,453.44
43.61698,406.63,453.62
43.63683,410.34,457.94
43.65759,415.05,462.95
43.67716,414.00,463.26
43.69659,416.21,467.64
43.71672,420.50,468.43
43.73629,421.03,469.35
43.75705,422.89,471.14
43.77589,424.30,472.24
43.79637,425.23,472.57
43.81673,426.68,475.01
43.83717,428.99,478.23
43.85711,428.64,477.00
43.87702,426.82,476.42
43.89725,428.71,479.18
43.91587,428.62,478.83
43.93648,426.74,479.80
43.95653,427.14,479.60
43.97648,430.46,479.07
43.99716,429.21,477.76
44.01778,430.09,478.39
44.03638,430.17,479.10
44.05608,430.76,479.75
44.07654,430.40,478.15
44.09636,430.31,477.60
44.11695,431.15,477.26
44.13642,432.85,480.82
44.15607,433.24,478.14
44.17765,430.12,476.31
44.19707,434.32,478.35
44.21667,432.36,476.83
44.23757,431.37,477.97
44.25594,430.25,476.68
44.27714,430.81,477.01
44.29620,431.57,477.31
44.31593,429.86,479.85
44.33688,430.97,478.33
44.35701,430.64,478.61
44.37712,430.55,478.38
44.39606,431.40,478.05
44.41719,429.37,475.58
44.43790,431.80,476.70
44.45626,429.57,478.38
44.47635,428.94,476.02
44.49774,431.28,477.39
44.51683,429.48,479.08
44.53659,432.65,478.39
44.55718,429.43,476.34
44.57775,431.68,477.55
44.59746,428.01,479.24
44.61755,429.29,477.11
44.63585,430.24,478.78
44.65623,428.95,479.05
44.67644,430.14,477.34
44.69652,429.16,479.31
44.71569,430.56,477.49
44.73609,427.41,478.44
44.75766,430.95,479.89
44.77716,430.24,477.82
44.79782,428.99,477.31
44.81678,428.08,473.86
44.83712,429.29,475.33
44.85662,430.54,477.51
44.87690,430.34,476.36
44.89627,430.28,474.77
44.91668,429.57,476.45
44.93701,427.65,475.80
44.95651,429.44,478.70
44.97611,429.02,478.04
44.99686,428.60,480.11
45.01666,430.93,479.10
45.03591,431.31,478.13
45.05744,431.08,475.86
45.07588,430.93,478.50
45.09636,429.43,479.31
45.11727,429.26,476.95
45.13750,430.42,477.45
45.15626,429.63,476.61
45.17631,429.40,474.97
45.19673,426.87,476.16
45.21593,429.54,473.81
45.23752,426.33,475.61
45.25632,426.10,472.88
45.27582,428.29,475.39
45.29698,428.53,474.91
45.31751,427.25,476.08
45.33739,428.92,476.00
45.35678,429.82,473.41
45.37768,426.84,477.22
45.39583,431.02,474.36
45.41723,430.26,475.40
45.43646,428.38,477.88
45.45759,429.83,476.07
45.47629,428.54,477.20
45.49593,429.20,478.02
45.51702,431.04,477.92
45.53711,429.30,475.13
45.55604,436.74,476.58
45.57605,450.91,480.64
45.59673,475.15,486.97
45.61645,496.05,488.40
45.63712,514.42,489.86
45.65811,536.22,491.66
45.67734,551.22,493.30
45.69690,558.80,489.20
45.71727,565.15,492.13
45.73858,567.68,489.60
45.75727,564.54,489.34
45.77779,560.11,486.24
45.79793,553.03,489.85
45.81752,547.67,489.16
45.83850,535.98,487.19
45.85762,530.00,486.15
45.87677,519.97,485.10
45.89817,508.22,486.91
45.91674,501.21,489.16
45.93770,493.68,486.62
45.95750,485.23,485.12
45.97845,479.28,484.30
45.99774,472.00,482.81
46.01840,465.45,483.01
46.03738,462.49,484.41
46.05697,459.19,480.93
46.07876,452.69,481.19
46.09813,448.70,484.12
46.11802,446.70,480.73
46.13867,445.75,481.72
46.15858,441.96,483.30
46.17800,441.90,484.94
46.19771,442.34,481.53
46.21909,441.19,484.71
46.23798,442.58,482.68
46.25930,440.40,481.59
46.27779,436.17,483.63
46.29830,436.13,485.53
46.31853,436.78,485.51
46.33820,433.29,485.48
46.35925,432.22,483.60
46.37939,434.50,483.83
46.39775,435.36,483.21
46.41789,433.72,482.22
46.43961,431.19,483.54
46.45934,433.28,482.80
46.47865,430.78,480.64
46.49914,430.09,480.54
46.51913,428.53,480.15
46.53888,431.60,482.49
46.55824,426.62,481.76
46.57970,421.02,483.06
46.59893,410.28,482.27
46.61913,392.38,480.53
46.63871,374.03,475.04
46.65903,350.50,468.58
46.67812,326.36,458.90
46.69889,308.27,449.15
46.71897,286.33,443.00
46.73826,274.74,435.29
46.75816,266.12,429.94
46.77915,270.24,429.52
46.79884,276.37,429.80
46.81815,284.07,433.69
46.83814,297.15,438.85
46.85889,310.67,443.20
46.87925,319.81,448.93
46.89911,336.20,453.79
46.91824,347.67,455.18
46.93924,354.23,456.88
46.95840,365.84,458.69
46.97815,373.57,463.95
46.99823,382.43,461.98
47.01807,387.93,463.32
47.03798,393.71,464.75
47.05912,398.47,466.26
47.07870,403.94,469.82
47.09964,406.51,471.98
47.11945,409.36,469.73
47.13861,411.84,471.32
47.15884,414.72,473.29
47.17903,418.15,473.71
47.19892,420.56,473.06
47.21801,423.92,475.90
47.23839,423.66,479.35
47.25801,423.20,477.52
47.27771,424.06,478.17
47.29945,426.63,477.78
47.31837,430.61,477.55
47.33936,430.99,478.57
47.35813,429.12,479.27
47.37916,431.54,477.96
47.39843,431.33,480.74
47.41795,433.24,479.17
47.43924,432.17,482.09
47.45812,431.77,484.38
47.47801,432.22,483.04
47.49873,431.58,482.20
47.51843,431.61,486.68
47.53924,433.42,485.72
47.55811,433.84,486.11
47.57876,431.65,485.52
47.59834,432.31,482.36
47.61868,431.71,483.73
47.63873,434.32,480.90
47.65868,431.72,479.76
47.67803,431.89,480.60
47.69848,432.56,479.80
47.71925,432.89,479.25
47.73847,432.83,479.11
47.75870,432.46,479.44
47.77950,429.96,478.62
47.79887,431.72,481.58
47.81818,431.13,480.94
47.83959,433.42,477.68
47.85947,430.87,478.36
47.87927,432.90,477.79
47.89914,432.65,481.60
47.91879,434.18,481.73
47.93815,434.91,481.34
47.95845,435.23,480.07
47.97917,433.96,478.88
47.99906,434.23,480.04
48.01911,436.29,481.59
48.03825,434.42,479.88
48.05775,432.12,479.99
48.07855,432.79,479.76
48.09814,432.46,480.85
48.11850,429.50,481.68
48.13781,431.60,480.07
48.15934,432.61,480.95
48.17903,431.74,479.24
48.19830,433.87,481.16
48.21832,433.79,481.31
48.23885,431.28,479.73
48.25838,432.45,481.95
48.27868,433.83,478.55
48.29877,431.55,479.29
48.31931,430.33,480.75
48.33920,433.36,480.21
48.35961,433.59,482.06
48.37800,432.25,483.16
48.39878,434.49,480.24
48.41799,433.38,482.53
48.43928,434.36,478.99
48.45789,431.46,478.24
48.47805,430.92,479.76
48.49837,430.15,477.84
48.51824,431.18,477.42
48.53921,433.79,478.45
48.55928,429.71,478.15
48.57769,429.49,475.73
48.59911,433.46,476.78
48.61817,431.13,478.97
48.63899,431.66,478.93
48.65819,430.84,477.58
48.67846,430.33,478.90
48.69888,430.60,477.25
48.71813,431.33,477.24
48.73913,432.81,476.69
48.75940,430.14,477.01
48.77878,431.14,477.89
48.79892,430.83,475.18
48.81855,431.44,477.95
48.83869,432.35,477.57
48.85826,432.33,479.58
48.87805,434.59,478.14
48.89935,435.31,477.65
48.91891,432.85,478.18
48.93840,432.32,478.19
48.95937,430.80,480.78
48.97821,432.66,480.42
48.99830,430.71,481.27
49.01777,428.61,481.69
49.03931,429.55,479.58
49.05831,429.31,480.60
49.07845,427.76,481.72
49.09779,431.83,478.68
49.11823,429.86,480.65
49.13884,430.55,480.10
49.15782,432.80,477.00
49.17834,432.83,479.41
49.19902,432.76,478.56
49.21907,433.36,478.32
49.23966,433.66,475.81
49.25962,435.04,477.31
49.27783,431.61,477.94
49.29939,434.70,478.20
49.31813,433.36,477.56
49.33817,430.96,475.88
49.35821,434.72,478.51
49.37917,433.87,478.39
49.39801,431.31,479.26
49.41823,434.28,480.86
49.43871,431.12,478.73
49.45829,433.03,477.89
49.47771,431.47,480.32
49.49884,429.55,478.36
49.51933,429.92,481.18
49.53858,432.87,480.66
49.55950,431.12,480.94
49.57783,430.67,482.08
49.59842,434.26,478.63
49.61939,432.96,482.00
49.63851,434.86,480.93
49.65842,431.89,482.34
49.67946,437.24,478.01
49.69780,437.78,470.24
49.71914,441.74,465.93
49.73883,441.79,463.11
49.75883,442.16,464.60
49.77872,443.27,461.86
49.79786,439.82,463.25
49.81872,440.68,466.62
49.83951,437.99,466.02
49.85801,436.91,467.34
49.87817,437.44,469.77
49.89828,438.34,468.60
49.91789,434.58,470.32
49.93899,437.17,469.28
49.95919,434.95,469.43
49.97840,434.87,471.26
49.99931,436.21,471.03
50.01872,434.46,470.72
50.03947,435.32,470.72
50.05975,434.10,474.42
50.07934,434.80,474.48
50.09812,434.03,472.52
50.11791,434.84,472.41
50.13787,433.63,475.76
50.15858,433.40,475.98
50.17770,437.04,477.66
50.19955,453.47,486.98
50.21870,477.17,495.55
50.23944,500.22,507.63
50.25806,524.47,513.94
50.27903,544.84,516.75
50.29893,561.36,519.19
50.31830,572.26,521.66
50.33776,577.58,520.20
50.35913,576.80,519.58
50.37799,573.53,513.78
50.39947,566.22,512.60
50.41878,556.53,508.71
50.43795,547.72,504.97
50.45947,538.96,503.62
50.47835,527.98,498.83
50.49818,520.09,498.07
50.51761,510.27,496.21
50.53782,500.45,494.58
50.55933,494.11,492.59
50.57782,486.74,488.88
50.59927,477.14,488.72
50.61809,475.35,487.39
50.63885,469.80,487.32
50.65823,464.14,483.64
50.67821,459.41,483.00
50.69866,454.60,481.93
50.71870,454.51,480.11
50.73972,449.29,480.10
50.75785,447.11,479.30
50.77888,446.57,480.01
50.79960,443.87,478.88
50.81896,444.61,478.72
50.83925,443.83,479.03
50.85825,440.15,478.17
50.87946,438.74,477.78
50.89843,439.09,476.45
50.91826,438.68,477.79
50.93892,438.79,477.38
50.95883,441.09,475.96
50.97887,439.22,474.48
50.99979,437.55,476.66
51.01941,438.47,477.82
51.03792,438.62,477.05
51.05849,434.63,476.82
51.07804,434.11,480.22
51.09887,435.54,483.09
51.11944,436.09,485.40
51.13879,434.43,490.21
51.15796,432.28,495.90
51.17952,430.00,500.17
51.19955,423.65,502.77
51.21944,411.63,498.36
51.23948,395.83,489.89
51.25862,371.93,475.64
51.27830,345.97,456.00
51.29839,321.78,434.95
51.31928,298.89,414.31
51.33939,282.84,401.27
51.35928,279.64,396.75
51.37880,278.33,392.21
51.39873,286.78,397.73
51.41882,295.55,401.01
51.43917,307.06,408.67
51.45921,316.33,413.55
51.47926,330.68,418.59
51.49956,341.15,429.05
51.51781,350.57,434.56
51.53782,360.25,439.14
51.55806,371.73,445.40
51.57969,379.59,452.49
51.59763,388.33,457.15
51.61792,394.79,460.57
51.63912,399.18,463.00
51.65916,405.43,467.06
51.67848,407.79,468.38
51.69773,414.22,472.20
51.71885,418.10,473.91
51.73783,418.24,472.75
51.75872,420.43,474.13
51.77969,424.90,473.13
51.79907,428.22,473.88
51.81800,428.05,477.29
51.83924,432.86,476.07
51.85795,431.23,477.45
51.87785,433.73,475.46
51.89913,433.97,475.52
51.91904,434.84,477.41
51.93857,437.07,479.66
51.95773,436.22,477.33
51.97903,435.40,477.02
51.99965,435.31,478.55
52.01953,434.78,478.32
52.03853,434.38,477.65
52.05796,437.45,476.39
52.07812,435.12,478.70
52.09799,435.70,476.21
52.11962,434.90,477.15
52.13916,438.10,479.28
52.15943,439.77,478.85
52.17896,436.30,480.07
52.19856,435.18,478.97
52.21908,437.14,476.84
52.23838,437.18,476.37
52.25827,434.91,474.80
52.27882,436.65,473.80
52.29901,434.31,474.76
52.31931,437.52,474.65
52.33785,436.28,475.28
52.35959,434.29,476.57
52.37774,435.30,478.13
52.39858,432.60,477.98
52.41977,432.47,478.34
52.43770,435.39,479.89
52.45915,432.14,478.28
52.47802,436.57,480.81
52.49872,434.73,481.17
52.51818,433.83,481.99
52.53808,436.23,478.80
52.55862,434.75,478.95
52.57822,434.52,481.58
52.59955,434.21,480.90
52.61833,434.77,480.70
52.63870,433.47,480.10
52.65985,435.80,478.27
52.67799,434.47,479.86
52.69772,435.96,476.64
52.71859,436.16,478.04
52.73873,434.00,479.49
52.75924,432.45,477.24
52.77874,434.94,481.51
52.79923,436.77,481.63
52.81925,435.29,482.69
52.83852,436.65,485.00
52.85942,437.33,483.77
52.87791,438.13,482.04
52.89902,438.99,483.66
52.91945,436.28,482.60
52.93833,437.25,482.42
52.95843,436.62,482.46
52.97837,437.83,482.30
52.99914,437.22,481.47
53.01839,437.39,480.90
53.03793,439.72,479.73
53.05951,437.33,481.13
53.07853,438.92,478.38
53.09779,437.05,478.34
53.11809,437.11,479.78
53.13892,439.20,480.89
53.15772,439.30,477.76
53.17922,437.74,479.80
53.19768,440.79,480.89
53.21788,437.68,478.81
53.23955,440.00,478.33
53.25892,438.43,478.27
53.27869,437.86,481.14
53.29788,438.46,480.03
53.31899,435.82,479.27
53.33807,436.83,476.74
53.35896,437.14,479.09
53.37766,436.73,478.58
53.39956,437.27,478.36
53.41794,439.83,479.34
53.43827,437.37,480.33
53.45770,439.51,478.16
53.47775,437.94,478.22
53.49962,439.56,479.96
53.51936,438.10,478.15
53.53871,438.25,477.54
53.55873,439.84,477.38
53.57904,440.24,478.33
53.59826,439.87,477.91
53.61848,437.64,478.88
53.63962,438.95,477.80
53.65972,436.63,479.77
53.67935,435.97,477.79
53.69867,436.33,477.22
53.71824,435.37,478.48
53.73793,434.89,474.14
53.75783,435.23,475.50
53.77875,435.99,476.56
53.79801,435.30,474.17
53.81821,433.54,475.40
53.83908,444.16,479.46
53.85817,458.65,488.24
53.87864,479.20,496.97
53.89772,504.94,509.75
53.91887,532.63,515.25
53.93957,553.21,523.92
53.95928,571.60,523.94
53.97905,582.90,524.30
53.99921,587.57,519.21
54.01775,586.96,515.78
54.03926,584.53,508.77
54.05919,577.20,503.93
54.07768,569.09,497.50
54.09866,556.89,493.98
54.11960,549.63,488.48
54.13923,538.80,485.81
54.15906,527.55,484.88
54.17849,519.05,483.10
54.19836,509.46,481.42
54.21793,502.83,480.59
54.23893,494.68,477.84
54.25808,487.55,477.62
54.27917,480.13,478.30
54.29839,474.24,479.13
54.32018,469.90,477.36
54.33858,464.36,477.23
54.36010,459.61,475.74
54.37904,457.80,474.70
54.40069,457.55,474.62
54.41941,451.58,475.51
54.43926,451.96,474.10
54.46041,448.85,476.34
54.47971,448.17,473.61
54.49862,448.95,475.11
54.51869,447.11,477.08
54.53925,443.75,474.34
54.55937,443.46,473.97
54.58017,445.91,476.67
54.60017,444.29,475.91
54.61966,441.87,472.99
54.63931,440.37,473.63
54.65950,438.24,472.53
54.67895,438.47,475.56
54.69930,439.37,473.61
54.71981,439.57,474.30
54.73876,436.80,474.03
54.75912,438.46,473.96
54.77909,440.52,474.37
54.79942,437.23,472.41
54.81920,439.39,475.36
54.83860,438.08,476.05
54.85931,439.48,473.47
54.87875,438.23,476.00
54.89984,437.56,476.98
54.91972,435.43,475.54
54.93906,434.14,478.00
54.96036,430.93,480.09
54.97930,423.51,478.73
54.99884,412.76,480.29
55.01920,397.10,483.42
55.04036,375.08,477.57
55.05882,356.71,472.67
55.07912,337.30,458.57
55.09966,314.91,449.10
55.11893,297.79,433.35
55.13925,285.24,424.85
55.15906,277.16,419.27
55.18046,280.37,417.47
55.20006,288.25,414.91
55.21993,295.45,420.25
55.23924,310.49,425.05
55.26028,323.09,430.02
55.27984,331.21,436.00
55.30022,345.04,440.32
55.32054,354.49,445.58
55.33884,367.30,452.24
55.35882,373.97,453.43
55.37944,379.70,456.89
55.39866,388.30,457.90
55.41900,397.19,459.95
55.43864,400.70,460.36
55.46013,406.45,462.29
55.47971,411.77,463.70
55.49955,414.08,463.23
55.51923,418.05,465.96
55.54007,422.31,464.77
55.55946,427.61,465.17
55.57918,428.54,466.38
55.59871,429.38,466.57
55.61978,429.23,468.58
55.63892,433.77,469.02
55.65949,435.13,466.83
55.67983,434.42,467.93
55.69978,436.13,466.55
55.72024,436.92,469.40
55.74043,434.07,469.28
55.76033,436.71,466.86
55.77887,436.52,469.72
55.79938,437.99,467.33
55.81914,438.58,470.00
55.83875,438.96,469.23
55.86060,437.61,470.13
55.88049,439.02,470.98
55.90052,436.36,469.89
55.92040,440.03,472.15
55.94044,436.22,473.09
55.95950,437.43,471.99
55.98027,437.20,472.81
56.00032,437.04,470.21
56.01972,438.03,471.56
56.03866,436.34,470.40
56.06001,437.58,469.95
56.07949,434.49,471.27
56.09882,435.30,469.60
56.12046,438.16,469.99
56.14018,435.24,472.52
56.15890,437.42,469.99
56.17873,437.58,470.13
56.19930,436.10,470.74
56.21935,438.53,469.80
56.23938,435.82,469.59
56.25958,435.48,471.55
56.27896,435.10,471.32
56.30036,438.67,471.95
56.31893,437.42,472.10
56.34053,440.04,472.41
56.36016,440.91,472.50
56.37856,437.28,471.43
56.40010,439.91,468.66
56.41954,437.86,471.31
56.44058,439.42,469.36
56.45946,439.56,470.36
56.47854,437.49,468.94
56.49929,440.79,470.48
56.52022,440.30,470.07
56.53856,436.80,467.97
56.55972,437.68,471.52
56.57872,440.09,470.66
56.59944,438.32,471.10
56.61867,440.88,470.66
56.64008,443.20,470.60
56.65985,441.74,470.48
56.67956,441.33,468.12
56.69958,439.92,468.36
56.72052,439.03,469.82
56.73980,440.97,469.39
56.76040,442.19,468.30
56.77994,439.43,469.01
56.80019,439.17,469.87
56.81917,437.96,471.91
56.84029,438.93,473.14
56.86031,442.05,470.58
56.87936,439.95,471.88
56.89921,442.33,470.40
56.91877,440.88,469.13
56.93987,444.44,468.80
56.95953,442.17,468.77
56.97874,441.14,469.45
57.00051,437.81,469.17
57.02007,439.92,471.95
57.04047,439.38,469.70
57.05909,437.19,472.76
57.07923,440.00,469.92
57.10049,440.02,469.66
57.12003,438.50,472.37
57.13981,441.21,473.28
57.15983,440.16,472.76
57.17978,440.01,474.38
57.19936,441.57,471.35
57.22053,442.44,472.65
57.23959,441.38,471.59
57.26029,437.13,473.38
57.27943,440.17,470.73
57.29959,439.09,471.80
57.31931,438.66,471.15
57.33947,438.54,470.94
57.35881,441.37,469.17
57.37928,439.15,470.57
57.40051,438.47,468.57
57.42018,439.92,468.55
57.43928,437.43,467.09
57.45900,438.45,470.46
57.48016,440.35,470.96
57.49892,440.81,471.07
57.51920,442.58,470.71
57.54035,441.41,468.34
57.55887,440.68,468.72
57.57940,440.69,466.84
57.59921,437.92,466.28
57.62043,441.59,466.85
57.64015,440.93,468.04
57.65895,439.62,468.79
57.67928,439.76,466.99
57.69994,439.32,468.79
57.72002,442.80,468.36
57.73866,455.61,475.04
57.75966,472.06,483.22
57.77893,491.17,492.44
57.80015,511.36,496.86
57.82030,530.39,503.52
57.83956,550.19,507.63
57.86009,564.21,506.40
57.87892,575.47,506.54
57.89895,580.00,502.73
57.91980,579.65,499.84
57.94018,579.36,494.31
57.95953,573.22,490.16
57.97941,566.15,484.70
57.99872,555.76,482.28
58.01936,546.96,478.00
58.03906,539.65,475.99
58.05921,530.69,473.88
58.07856,517.71,472.12
58.09882,510.13,472.61
58.11951,503.63,469.97
58.14041,493.27,471.53
58.15856,489.12,469.40
58.17885,481.81,472.19
58.20004,477.08,469.03
58.22045,471.84,471.69
58.24044,468.77,471.95
58.26008,464.42,470.48
58.28019,461.41,470.43
58.29977,459.67,469.93
58.31851,455.02,471.38
58.33990,454.00,471.12
58.35855,451.04,471.21
58.37890,448.95,473.78
58.40056,450.25,472.23
58.41892,446.20,472.57
58.43967,444.18,473.51
58.45913,444.34,473.71
58.48024,442.30,473.17
58.49953,442.94,470.90
58.52052,440.79,471.64
58.53850,441.09,471.86
58.55967,438.20,472.99
58.58007,440.63,472.76
58.59996,437.93,471.80
58.61995,441.05,468.97
58.64043,439.51,470.42
58.65904,437.38,469.92
58.67868,439.15,469.17
58.69866,439.70,470.51
58.72039,436.96,468.92
58.73854,437.73,469.89
58.75995,431.99,471.64
58.77860,424.14,473.85
58.79878,409.90,469.67
58.82011,389.04,470.32
58.84013,366.51,462.47
58.85938,345.45,456.88
58.87998,323.36,449.37
58.89939,306.03,437.11
58.91996,289.25,426.09
58.93936,277.32,422.49
58.95969,276.33,419.18
58.98055,281.67,418.34
58.99934,291.44,419.36
59.02022,302.71,421.02
59.03887,313.23,427.44
59.06042,324.47,429.97
59.07852,337.88,435.99
59.09942,350.06,439.66
59.11971,360.25,445.49
59.13915,371.04,447.24
59.15903,380.36,452.40
59.17990,386.09,457.22
59.19980,391.43,457.54
59.21985,400.83,461.22
59.23992,404.03,463.33
59.25895,407.35,463.75
59.27910,413.68,464.29
59.29987,415.73,465.72
59.31983,420.08,468.88
59.34001,420.37,469.02
59.36048,424.77,468.21
59.37851,427.56,467.58
59.39939,425.75,469.55
59.42027,430.93,469.29
59.43946,429.41,469.74
59.45977,432.65,470.29
59.47847,432.36,471.28
59.49951,432.70,473.62
59.51931,432.59,470.39
59.54000,436.91,471.63
59.55905,433.58,470.61
59.57840,436.46,469.28
59.59877,435.96,472.11
59.61854,439.93,473.23
59.63879,441.19,476.34
59.65918,444.87,478.31
59.67968,447.76,479.48
59.69863,448.66,478.32
59.71918,450.48,480.58
59.74039,448.30,478.07
59.75990,448.38,477.52
59.77881,446.17,475.96
59.79868,447.85,476.19
59.81880,446.53,473.83
59.83888,446.79,475.70
59.85897,445.40,475.29
59.87919,444.52,474.94
59.89934,443.51,471.78
59.92050,443.35,473.31
59.93914,442.86,473.53
59.96006,440.86,473.57
59.97981,441.18,471.52
59.99954,440.38,474.41
60.02038,440.07,474.03
60.03951,438.11,473.28
60.06125,440.05,475.43
60.08089,439.26,471.82
60.09949,438.92,471.76
60.12000,440.17,471.38
60.13974,439.61,471.24
60.16141,435.91,473.09
60.18083,439.27,473.47
60.19971,436.23,470.72
60.22035,439.13,470.41
60.24096,437.78,472.67
60.25956,439.57,471.26
60.28098,438.03,470.74
60.30090,438.52,472.97
60.32034,436.65,469.39
60.34030,439.08,468.99
60.35958,439.31,470.28
60.38012,436.22,470.87
60.40038,436.91,469.99
60.42082,435.09,472.16
60.43965,435.21,470.52
60.45955,435.63,470.74
60.48151,436.08,469.27
60.50112,436.55,469.08
60.52159,436.17,467.99
60.54112,435.62,469.92
60.56013,436.28,465.78
60.58009,437.37,468.43
60.60023,438.42,470.14
60.62121,437.15,468.65
60.63991,435.54,470.61
60.66012,435.96,469.22
60.68012,437.28,469.29
60.69921,434.06,468.68
60.72166,434.49,469.48
60.74051,434.91,472.10
60.76138,437.43,470.87
60.78030,437.15,469.81
60.79984,434.15,469.23
60.81989,436.45,472.23
60.84134,438.38,470.53
60.85990,439.26,470.72
60.87971,439.83,471.57
60.90119,436.03,472.70
60.92022,436.93,472.77
60.94108,437.80,471.42
60.95963,437.57,473.06
60.98041,437.61,470.62
61.00144,436.73,470.77
61.01948,436.27,472.18
61.04115,435.46,469.95
61.05977,434.78,470.73
61.07974,436.68,469.91
61.09939,438.86,471.04
61.11963,447.57,475.86
61.14105,459.41,479.45
61.16062,479.38,485.06
61.18027,500.45,495.56
61.20084,517.74,502.87
61.22107,538.33,505.22
61.23975,551.93,510.12
61.26016,563.25,515.81
61.28062,572.75,515.28
61.29988,575.23,517.38
61.32017,572.71,511.98
61.34072,569.57,506.64
61.36040,563.85,498.19
61.38030,554.67,489.93
61.40077,545.34,485.16
61.42059,532.48,478.35
61.44148,523.80,474.75
61.46130,511.41,469.69
61.48073,504.81,465.30
61.50111,494.47,461.75
61.52138,488.03,464.11
61.54099,483.23,462.00
61.56075,477.17,460.95
61.57988,471.65,463.08
61.59979,466.77,464.64
61.61933,462.66,466.42
61.64004,457.68,466.25
61.66021,454.01,465.73
61.68106,451.43,465.66
61.70028,452.30,465.40
61.72040,446.36,463.06
61.73990,447.98,466.14
61.75990,445.94,465.76
61.77972,446.35,463.23
61.80058,444.56,465.16
61.81973,441.60,463.66
61.84056,442.57,467.11
61.86058,438.75,465.26
61.88100,437.43,467.03
61.90088,437.45,465.34
61.92099,440.83,467.91
61.94112,440.87,468.11
61.95964,437.18,469.09
61.97987,438.90,469.71
62.00026,437.12,470.55
62.02008,440.09,467.09
62.04035,440.42,467.34
62.06097,440.70,469.40
62.08104,438.34,468.87
62.09993,436.93,468.75
62.12111,439.33,471.22
62.14024,439.74,469.02
62.16091,439.07,468.57
62.18011,435.98,468.99
62.20008,437.29,468.53
62.21986,435.54,468.89
62.24073,436.34,468.78
62.25977,437.63,468.69
62.28050,437.57,469.40
62.30099,436.44,470.58
62.31977,435.39,469.52
62.34056,433.80,468.33
62.36009,434.51,469.53
62.38107,433.75,469.74
62.40144,430.83,472.82
62.42177,423.31,472.96
62.44189,411.29,476.90
62.46187,391.98,471.29
62.48201,372.66,471.71
62.50239,351.54,469.22
62.52170,333.11,463.51
62.54182,317.14,455.16
62.56188,303.29,449.78
62.58184,297.01,445.94
62.60194,297.34,440.31
62.62267,299.15,440.64
62.64326,308.67,441.23
62.66326,315.88,443.64
62.68306,326.46,445.89
62.70182,337.35,447.23
62.72153,347.05,449.78
62.74446,353.93,453.73
62.76383,362.81,456.00
62.78411,373.88,455.79
62.80423,378.08,460.31
62.82423,384.55,462.64
62.84241,393.70,461.25
62.86273,398.63,464.91
62.88364,402.92,466.09
62.90446,406.08,468.49
62.92422,407.81,469.61
62.94387,412.56,471.35
62.96315,414.23,471.36
62.98415,415.00,471.02
63.00389,420.59,470.22
63.02343,419.56,470.74
63.04437,423.97,471.07
63.06361,425.79,471.34
63.08298,424.60,471.93
63.10389,426.63,470.94
63.12404,425.65,472.81
63.14322,426.21,473.72
63.16301,427.53,473.74
63.18366,431.65,474.97
63.20245,430.16,476.01
63.22267,427.23,476.42
63.24260,427.04,477.02
63.26366,430.58,478.40
63.28388,429.54,476.27
63.30464,429.08,477.83
63.32367,428.88,475.62
63.34356,427.94,477.07
63.36494,427.25,476.00
63.38411,429.86,474.92
63.40504,427.44,476.36
63.42450,427.19,478.25
63.44388,429.02,476.16
63.46488,428.54,476.91
63.48452,428.46,477.23
63.50431,426.77,479.37
63.52486,430.55,479.32
63.54452,429.27,481.06
63.56392,430.68,478.34
63.58397,430.10,478.38
63.60534,431.82,477.45
63.62470,431.97,480.82
63.64507,433.51,480.49
63.66364,430.32,477.04
63.68351,433.06,476.83
63.70419,432.14,475.38
63.72406,429.22,478.95
63.74452,431.79,478.43
63.76523,429.77,477.73
63.78381,432.31,479.33
63.80377,430.92,477.57
63.82461,431.78,477.29
63.84484,434.15,479.98
63.86448,433.05,478.35
63.88467,431.62,479.65
63.90500,430.80,478.31
63.92504,432.57,479.12
63.94417,429.48,481.16
63.96496,429.09,478.39
63.98489,430.37,478.53
64.00427,430.50,476.31
64.02479,431.18,477.17
64.04359,429.00,475.19
64.06451,432.48,479.01
64.08387,432.90,475.60
64.10469,431.98,478.85
64.12508,430.60,477.29
64.14532,429.89,479.02
64.16531,431.12,478.76
64.18459,431.92,477.15
64.20402,429.35,476.75
64.22461,432.15,476.71
64.24459,431.34,477.91
64.26351,431.53,478.96
64.28403,430.20,477.09
64.30546,430.51,475.63
64.32384,430.21,477.75
64.34393,430.71,475.99
64.36475,430.55,477.25
64.38464,428.17,478.13
64.40515,431.62,475.94
64.42371,429.54,478.32
64.44478,427.80,475.17
64.46450,427.74,475.69
64.48373,429.49,476.85
64.50502,429.45,475.65
64.52404,428.17,478.50
64.54538,429.03,478.78
64.56445,432.30,475.80
64.58357,429.95,479.06
64.60353,431.89,475.72
64.62338,433.22,477.75
64.64439,433.12,479.70
64.66402,430.70,476.85
64.68352,433.10,476.70
64.70393,429.73,478.85
64.72486,428.66,477.32
64.74501,429.09,479.37
64.76481,428.05,479.41
64.78516,428.83,476.48
64.80545,430.31,476.40
64.82572,431.94,479.39
64.84554,431.06,475.14
64.86440,429.93,479.82
64.88573,429.86,478.54
64.90627,433.07,478.31
64.92458,432.60,477.73
64.94554,430.24,479.02
64.96615,429.85,478.20
64.98604,428.58,476.90
65.00532,430.76,479.30
65.02444,427.94,476.73
65.04538,427.89,479.77
65.06523,430.35,479.23
65.08480,431.27,478.91
65.10616,432.29,476.44
65.12566,430.81,477.34
65.14603,431.95,478.50
65.16506,432.48,475.63
65.18621,431.27,478.26
65.20597,430.49,476.06
65.22460,430.01,477.98
65.24499,431.89,478.15
65.26522,428.31,478.62
65.28544,432.04,478.53
65.30634,431.95,475.96
65.32594,434.00,480.39
65.34579,446.69,484.98
65.36613,466.77,493.83
65.38647,488.89,503.96
65.40552,515.57,509.94
65.42457,534.31,517.00
65.44548,552.68,523.97
65.46569,561.31,523.27
65.48462,565.65,518.52
65.50507,566.22,517.05
65.52550,564.04,507.69
65.54506,556.72,504.34
65.56444,548.40,495.22
65.58615,538.98,489.59
65.60450,531.83,486.86
65.62568,521.77,481.75
65.64573,514.27,480.62
65.66572,503.74,477.90
65.68681,494.23,475.94
65.70705,486.45,474.53
65.72654,478.95,474.65
65.74523,472.52,473.44
65.76570,469.04,472.40
65.78554,464.19,474.95
65.80619,457.79,475.29
65.82563,455.20,476.70
65.84568,453.99,477.74
65.86576,451.26,475.60
65.88701,446.01,476.94
65.90693,445.81,477.51
65.92568,444.23,475.60
65.94561,440.63,477.78
65.96588,441.96,479.54
65.98723,439.13,478.74
66.00640,440.47,482.52
66.02591,439.34,479.23
66.04662,438.31,480.42
66.06707,436.15,480.18
66.08666,436.79,480.25
66.10760,434.31,479.53
66.12733,433.82,477.50
66.14711,437.53,477.38
66.16812,433.93,478.38
66.18673,436.82,480.26
66.20820,432.54,479.53
66.22750,436.41,477.13
66.24777,434.37,480.65
66.26627,436.50,477.92
66.28724,432.69,477.77
66.30741,430.56,477.61
66.32646,426.00,477.24
66.34668,418.19,480.02
66.36771,406.98,474.59
66.38781,388.57,473.07
66.40727,366.78,471.83
66.42744,346.89,468.23
66.44753,333.06,462.01
66.46639,314.68,455.32
66.48841,301.65,448.45
66.50818,293.71,442.65
66.52736,290.42,438.60
66.54765,291.36,437.64
66.56777,298.66,435.13
66.58734,308.31,435.99
66.60808,319.56,441.73
66.62778,333.19,445.64
66.64761,343.70,450.24
66.66800,352.99,452.16
66.68731,359.35,452.63
66.70683,370.52,456.77
66.72802,378.22,460.07
66.74703,386.57,466.36
66.76735,391.95,467.81
66.78707,398.23,468.13
66.80681,402.20,469.61
66.82655,407.01,469.36
66.84799,410.27,473.35
66.86810,412.09,475.82
66.88689,416.94,474.45
66.90805,419.21,477.08
66.92688,423.71,476.63
66.94659,424.44,475.76
66.96762,425.36,474.89
66.98661,427.21,474.41
67.00732,430.67,475.51
67.02658,430.24,476.73
67.04728,431.69,475.14
67.06711,433.55,476.81
67.08826,430.31,479.04
67.10739,434.71,478.17
67.12649,437.20,477.80
67.14712,434.42,477.09
67.16745,437.67,477.52
67.18857,435.63,476.13
67.20827,433.99,477.90
67.22812,434.76,477.42
67.24876,434.58,476.75
67.26869,434.72,474.57
67.28791,436.54,476.16
67.30749,439.09,477.76
67.32734,437.52,477.55
67.34850,437.06,477.36
67.36882,437.86,476.71
67.38774,438.39,478.59
67.40721,435.87,475.99
67.42741,436.96,475.57
67.44793,434.09,474.97
67.46850,434.95,474.61
67.48737,436.12,475.41
67.50773,434.65,475.24
67.52880,436.17,472.83
67.54840,434.54,475.77
67.56800,434.93,470.93
67.58820,437.14,474.15
67.60780,434.24,472.42
67.62869,435.26,473.58
67.64763,436.71,471.73
67.66913,434.88,475.25
67.68783,433.68,473.92
67.70797,434.45,473.16
67.72884,432.83,471.73
67.74945,433.37,472.92
67.76790,434.85,471.89
67.78949,434.22,474.06
67.80794,434.43,474.86
67.82913,435.05,476.01
67.84856,436.73,475.90
67.86739,434.79,472.91
67.88766,433.09,473.02
67.90765,432.35,473.18
67.92924,435.74,473.40
67.94875,433.10,471.61
67.96916,435.85,474.79
67.98866,434.38,474.49
68.00761,435.77,475.79
68.02913,436.66,473.13
68.04911,434.47,472.20
68.06918,435.75,474.90
68.08852,439.69,472.21
68.10871,436.94,472.30
68.12931,437.31,472.47
68.14871,438.73,472.16
68.16833,439.80,472.75
68.18754,438.20,475.17
68.20922,440.61,473.52
68.22786,437.94,474.39
68.24851,438.33,474.59
68.26812,442.47,473.50
68.28760,441.59,474.31
68.30865,439.14,472.16
68.32824,441.53,474.01
68.34819,439.95,471.56
68.36904,442.05,472.27
68.38752,440.21,471.97
68.40935,444.47,471.74
68.42819,443.06,473.75
68.44936,441.49,474.67
68.46893,440.78,473.03
68.48842,441.96,474.14
68.50821,439.19,475.32
68.52803,440.57,472.78
68.54747,438.15,476.80
68.56852,436.67,475.55
68.58843,439.93,474.92
68.60904,439.02,473.45
68.62814,437.17,471.21
68.64832,436.79,472.64
68.66763,436.96,472.68
68.68757,440.58,471.98
68.70914,441.02,474.00
68.72858,439.17,472.30
68.74832,440.16,471.65
68.76852,438.75,471.72
68.78770,439.85,472.59
68.80902,439.52,473.21
68.82730,436.91,474.70
68.84770,439.24,473.75
68.86771,436.87,472.66
68.88881,438.46,472.96
68.90748,437.66,473.00
68.92893,438.63,473.54
68.94881,440.08,474.12
68.96760,439.09,471.82
68.98840,438.21,476.07
69.00820,438.34,473.03
69.02783,436.99,472.01
69.04871,439.79,472.80
69.06809,440.81,471.54
69.08834,440.98,472.49
69.10790,439.36,471.68
69.12752,440.01,471.44
69.14760,440.50,471.84
69.16874,436.80,472.06
69.18881,439.34,473.41
69.20843,436.18,470.27
69.22807,437.77,472.74
69.24813,439.14,472.79
69.26761,436.90,473.16
69.28774,434.76,472.75
69.30814,435.56,471.59
69.32797,438.80,474.51
69.34900,437.83,472.55
69.36785,438.53,472.44
69.38838,439.45,472.30
69.40758,441.07,468.69
69.42802,440.78,469.36
69.44849,439.42,470.02
69.46763,441.96,468.72
69.48751,441.36,468.44
69.50750,437.73,468.39
69.52816,439.61,468.75
69.54833,441.27,470.51
69.56814,439.11,467.71
69.58819,440.84,467.71
69.60794,439.56,468.37
69.62795,439.30,469.50
69.64855,441.34,469.81
69.66848,437.73,468.62
69.68879,439.37,468.85
69.70884,438.43,467.64
69.72776,439.48,469.90
69.74814,439.32,470.56
69.76760,437.36,470.42
69.78762,436.32,467.96
69.80838,437.55,470.12
69.82796,436.67,467.97
69.84812,437.53,469.97
69.86756,436.84,470.11
69.88831,437.63,469.57
69.90993,447.02,473.23
69.92841,461.25,481.07
69.95005,484.36,489.65
69.96868,507.26,496.46
69.98947,530.67,506.08
70.00843,548.75,511.64
70.03005,564.42,514.10
70.04862,573.21,512.74
70.06828,579.94,511.19
70.09012,576.55,506.79
70.10940,573.10,499.76
70.12954,565.73,496.09
70.14945,559.41,492.51
70.16840,547.77,485.40
70.18945,540.76,482.91
70.20889,528.03,481.46
70.22905,520.74,480.52
70.24918,511.27,478.10
70.26959,504.49,476.67
70.28936,496.17,477.09
70.31003,489.95,474.75
70.32902,481.36,476.10
70.35040,474.72,473.25
70.36997,468.35,475.32
70.39043,465.38,473.11
70.41032,458.94,471.41
70.43056,460.47,472.08
70.45132,455.85,468.17
70.46952,456.35,469.14
70.49062,452.75,466.82
70.51112,450.61,469.53
70.52994,452.30,470.60
70.54957,450.64,469.11
70.56947,445.54,468.80
70.59032,446.51,469.98
70.61095,443.84,467.36
70.63008,442.04,470.66
70.65011,444.09,471.92
70.66979,441.23,473.04
70.69065,443.06,473.59
70.71117,440.61,473.62
70.73009,440.06,469.83
70.74967,439.59,470.25
70.77011,436.92,473.00
70.78940,436.77,472.95
70.81085,436.31,471.63
70.83041,435.64,474.22
70.84924,436.69,471.21
70.87083,436.70,474.83
70.89106,436.16,472.09
70.91009,436.98,475.73
70.93107,438.71,473.08
70.95034,438.98,473.01
70.97065,439.15,471.46
70.99087,437.82,473.65
71.00985,435.77,471.85
71.03107,427.47,473.57
71.04966,411.92,469.00
71.07037,389.78,459.34
71.09117,365.45,452.00
71.10981,339.60,441.55
71.12985,317.04,434.04
71.15018,303.21,424.85
71.17047,299.17,425.81
71.18922,300.07,425.15
71.21030,303.95,428.39
71.22956,314.16,432.34
71.25033,324.58,433.58
71.27103,334.34,435.26
71.29020,345.26,442.45
71.31085,355.72,444.82
71.32993,361.80,448.46
71.35052,371.47,451.40
71.37010,380.40,454.78
71.38939,390.18,454.73
71.41055,396.07,458.48
71.43154,398.94,458.04
71.45035,402.69,462.27
71.47077,409.25,460.65
71.49199,411.13,464.46
71.51182,414.03,463.33
71.53091,417.05,465.01
71.55056,420.93,468.84
71.57162,421.02,470.14
71.59054,422.29,470.40
71.61129,425.93,469.41
71.63030,426.41,472.18
71.65088,430.13,469.60
71.67018,431.92,472.93
71.69073,432.49,472.73
71.71219,432.85,473.69
71.73056,432.77,470.88
71.75082,432.95,470.98
71.77231,433.52,469.02
71.79073,431.69,471.47
71.81168,432.36,470.03
71.83117,432.46,470.82
71.85141,431.01,472.33
71.87193,432.68,468.64
71.89046,433.75,467.44
71.91112,431.27,469.14
71.93010,435.32,471.60
71.95055,434.14,470.15
71.97146,432.96,471.17
71.99184,432.44,470.37
72.01204,432.98,468.38
72.03148,433.73,471.38
72.05194,433.13,469.94
72.07190,432.52,470.80
72.09091,435.00,471.68
72.11021,433.24,474.35
72.13066,434.66,472.60
72.15036,432.79,470.92
72.17084,434.08,471.98
72.19095,434.89,468.69
72.21157,435.53,472.01
72.23113,435.02,470.23
72.25033,435.19,470.91
72.27191,434.02,472.85
72.29176,433.56,471.77
72.31102,433.98,472.98
72.33127,435.88,474.60
72.35210,434.03,471.44
72.37139,433.63,474.86
72.39020,435.80,474.10
72.41127,434.11,472.03
72.43154,435.77,474.85
72.45177,436.88,474.61
72.47135,438.35,474.01
72.49081,434.41,472.12
72.51199,435.34,474.81
72.53172,433.02,474.59
72.55077,432.68,475.95
72.57217,434.79,474.92
72.59073,435.66,475.28
72.61086,438.44,474.58
72.63030,437.57,473.07
72.65143,438.82,472.21
72.67087,435.03,473.19
72.69158,436.51,472.19
72.71147,435.25,472.68
72.73093,434.89,471.67
72.75654,433.54,472.79
72.77216,432.32,471.58
72.79079,435.63,471.49
72.81116,432.87,473.30
72.83102,435.26,477.67
72.85100,433.78,486.18
72.87114,432.40,499.66
72.89099,429.49,518.56
72.91003,422.12,537.02
72.93072,411.59,550.23
72.95152,402.94,560.67
72.97033,394.33,558.98
72.99216,385.29,546.58
73.01042,379.57,522.28
73.03185,377.73,491.63
73.05303,381.33,467.95
73.07291,382.22,451.83
73.09274,385.59,433.75
73.11311,390.48,428.79
73.13276,396.78,420.61
73.15227,399.94,414.32
73.17156,405.63,416.19
73.19229,408.79,417.33
73.21237,414.24,421.05
73.23402,420.96,424.61
73.25278,424.56,428.13
73.27214,427.02,432.35
73.29372,433.75,435.06
73.31350,440.51,435.32
73.33352,444.03,438.07
73.35237,446.92,445.81
73.37355,447.26,450.20
73.39203,445.84,457.50
73.41366,447.47,464.49
73.43281,442.84,471.07
73.45410,443.53,470.09
73.47329,440.92,473.08
73.49233,440.10,481.02
73.51360,438.02,480.59
73.53210,438.49,478.46
73.55379,435.82,488.83
73.57317,435.99,475.89
73.59290,437.46,467.90
73.61216,438.71,468.65
73.63272,438.26,466.89
73.65222,439.26,472.78
73.67335,439.48,475.08
73.69259,440.72,471.33
73.71462,435.31,477.09
73.73518,427.17,484.57
73.75561,426.20,478.06
73.77550,418.62,479.00
73.79411,419.85,491.97
73.81453,417.41,487.57
73.83557,417.95,503.32
73.85473,418.80,495.07
73.87648,422.93,479.22
73.89522,421.18,484.04
73.91614,423.65,483.65
