Program Time [s],data 0,data 1
5.06997,449.23,563.69
5.09052,449.22,567.44
5.11034,449.56,569.57
5.12961,446.43,568.70
5.14898,444.38,566.82
5.17043,447.37,568.38
5.19077,448.93,568.84
5.21024,447.18,568.67
5.23021,447.22,568.91
5.25007,448.28,570.97
5.26927,449.43,571.07
5.28989,451.71,569.99
5.30992,450.56,574.43
5.33042,451.37,573.02
5.34889,452.36,572.31
5.36926,451.33,572.44
5.38883,452.13,572.72
5.40911,450.24,574.39
5.42890,451.02,575.18
5.45058,450.59,573.32
5.47056,449.41,571.90
5.48984,453.28,575.81
5.51063,453.85,572.02
5.52895,451.49,570.91
5.54884,454.65,572.02
5.56925,451.36,571.59
5.58941,452.75,570.39
5.60980,452.52,573.01
5.63039,451.10,571.70
5.65026,450.56,572.26
5.67052,452.18,575.29
5.69128,453.64,572.27
5.71122,453.94,573.34
5.73113,454.41,575.21
5.75171,455.76,578.63
5.77209,460.12,579.92
5.79183,471.29,592.92
5.81197,493.42,611.02
5.83238,521.42,627.85
5.85210,547.75,640.46
5.87128,569.77,642.36
5.89248,588.14,641.03
5.91235,597.68,629.99
5.93267,600.81,619.91
5.95277,601.73,608.02
5.97191,595.05,600.77
5.99299,588.94,591.10
6.01258,582.72,580.90
6.03327,573.26,578.28
6.05195,560.27,573.74
6.07326,550.44,570.26
6.09339,539.73,567.55
6.11233,534.25,569.78
6.13193,524.88,566.92
6.15241,514.75,568.46
6.17361,508.59,567.66
6.19241,503.25,568.96
6.21362,495.56,567.54
6.23357,493.93,570.59
6.25186,489.15,570.24
6.27295,483.09,570.13
6.29277,479.99,569.58
6.31423,479.79,571.49
6.33450,476.82,572.87
6.35417,476.35,573.31
6.37302,474.95,578.01
6.39497,474.56,576.62
6.41546,476.21,575.29
6.43627,476.36,576.10
6.45553,474.17,577.26
6.47619,472.32,580.26
6.49654,472.02,581.31
6.51496,472.12,579.08
6.53596,473.57,581.25
6.55522,471.99,582.77
6.57664,472.88,581.26
6.59700,463.71,584.48
6.61632,446.21,588.15
6.63738,424.22,589.01
6.65670,400.82,592.08
6.67730,375.86,585.43
6.69826,349.71,573.05
6.71867,330.87,558.82
6.73710,310.74,544.30
6.75768,305.20,533.51
6.77868,302.01,526.57
6.79857,311.01,527.75
6.81825,318.51,525.28
6.83835,330.63,529.32
6.85745,341.15,533.98
6.87853,353.96,540.75
6.89840,369.09,544.22
6.91818,378.54,549.79
6.93720,386.75,550.95
6.95827,396.35,554.85
6.97727,407.04,558.02
6.99823,413.68,560.13
7.01763,424.03,562.91
7.03769,429.92,561.71
7.05789,436.14,564.13
7.07782,438.95,566.47
7.09876,445.99,569.17
7.11730,448.67,570.85
7.13795,449.97,570.86
7.15693,454.50,571.73
7.17722,456.53,572.83
7.19738,457.34,576.23
7.21886,457.92,575.65
7.23871,459.99,575.31
7.25937,462.77,577.24
7.27962,463.51,579.87
7.29838,466.37,580.19
7.31887,465.71,581.26
7.33836,464.47,578.77
7.35895,465.00,580.16
7.37966,466.89,579.09
7.39905,463.57,580.27
7.41930,464.88,579.31
7.43934,465.10,577.02
7.45798,464.77,579.27
7.47933,466.83,578.72
7.49829,466.45,579.12
7.51819,467.38,582.15
7.53809,468.71,583.01
7.55950,467.04,582.44
7.57910,465.91,582.42
7.59914,467.94,581.98
7.61819,469.33,583.28
7.63794,465.58,582.90
7.65838,466.56,582.65
7.67870,465.83,583.10
7.69984,465.60,581.84
7.71959,467.08,580.75
7.74000,463.59,583.03
7.76275,463.59,581.96
7.77983,463.48,579.06
7.80090,459.68,579.70
7.82028,460.53,583.03
7.84046,461.22,579.99
7.86039,459.76,580.82
7.88135,458.03,578.79
7.90003,456.29,579.22
7.92057,455.83,581.15
7.94150,459.73,578.90
7.96010,457.77,577.90
7.98130,457.66,578.59
8.00152,455.98,581.99
8.02119,459.48,581.45
8.04055,460.86,580.94
8.06111,458.90,579.94
8.07979,459.52,577.94
8.10134,461.31,578.89
8.12061,460.38,578.46
8.14067,458.26,579.20
8.16016,459.70,580.24
8.18116,460.13,577.88
8.20156,456.52,581.66
8.21981,457.45,579.36
8.24168,456.34,581.25
8.26084,458.68,580.20
8.28002,458.70,578.41
8.30038,454.32,577.82
8.32167,456.67,578.58
8.34050,457.06,580.46
8.36045,457.88,578.38
8.37997,457.35,579.79
8.40165,455.14,579.99
8.42078,456.01,577.79
8.44170,458.23,581.08
8.46081,457.33,580.46
8.48173,455.31,579.21
8.50224,457.13,580.26
8.52237,452.47,581.54
8.54102,456.52,580.99
8.56089,451.52,578.77
8.58176,451.87,580.29
8.60114,453.52,580.41
8.62156,452.94,580.88
8.64235,450.84,579.28
8.66084,454.44,580.98
8.68300,451.46,578.14
8.70159,450.87,577.03
8.72147,453.83,578.54
8.74218,450.69,580.82
8.76191,449.98,580.82
8.78284,448.25,579.47
8.80221,451.65,576.60
8.82210,449.04,579.72
8.84065,452.60,577.76
8.86240,450.77,576.01
8.88154,452.03,576.07
8.90073,451.31,576.66
8.92128,450.54,575.38
8.94144,451.53,574.50
8.96261,451.49,576.38
8.98268,450.87,574.17
9.00110,450.05,575.91
9.02230,451.76,574.43
9.04168,450.88,575.76
9.06062,453.90,577.91
9.08138,452.97,575.01
9.10262,454.99,575.96
9.12265,452.47,576.24
9.14092,454.44,577.06
9.16156,455.92,578.03
9.18111,462.69,585.10
9.20235,480.13,595.94
9.22204,504.07,608.83
9.24163,528.28,625.14
9.26155,553.23,634.52
9.28135,575.03,639.79
9.30134,592.96,635.57
9.32180,607.46,630.59
9.34223,613.78,622.06
9.36202,611.53,607.95
9.38124,608.74,598.59
9.40262,602.27,587.65
9.42233,593.06,576.66
9.44162,580.92,569.43
9.46189,570.36,565.21
9.48218,557.00,562.60
9.50119,548.53,560.18
9.52091,536.24,559.10
9.54244,528.33,559.80
9.56252,516.86,560.88
9.58096,508.58,562.26
9.60197,500.62,561.23
9.62238,493.36,565.03
9.64146,491.54,568.11
9.66103,484.39,567.55
9.68173,479.94,571.51
9.70147,473.51,572.66
9.72260,468.72,574.51
9.74077,468.92,573.81
9.76152,465.59,574.91
9.78119,465.30,575.82
9.80255,464.74,576.58
9.82141,460.83,578.03
9.84132,457.59,578.07
9.86189,458.09,578.82
9.88209,458.86,575.84
9.90236,455.29,576.83
9.92105,455.68,580.56
9.94093,453.05,578.84
9.96127,454.35,579.45
9.98129,453.55,578.65
10.00210,455.65,580.07
10.02261,453.10,580.30
10.04129,452.53,578.74
10.06193,454.43,579.41
10.08107,454.70,580.70
10.10151,451.80,579.95
10.12166,451.57,580.12
10.14167,451.84,581.19
10.16259,448.69,578.78
10.18207,439.22,583.13
10.20194,427.41,584.50
10.22218,412.02,585.15
10.24125,390.36,586.81
10.26199,367.80,582.85
10.28096,345.78,575.93
10.30137,325.55,569.76
10.32123,309.49,558.92
10.34185,295.25,553.59
10.36187,291.79,544.65
10.38158,290.44,541.10
10.40136,297.68,542.66
10.42172,309.97,541.83
10.44117,319.50,545.07
10.46182,334.35,546.80
10.48188,344.04,552.93
10.50197,356.28,555.31
10.52258,369.77,557.13
10.54239,379.38,555.69
10.56213,388.77,561.66
10.58117,396.13,562.32
10.60236,406.12,565.26
10.62274,411.11,566.21
10.64105,416.29,567.36
10.66133,420.58,564.66
10.68282,428.47,564.89
10.70231,431.11,566.70
10.72303,433.23,568.59
10.74359,435.59,568.95
10.76171,440.49,567.86
10.78330,440.26,570.80
10.80208,444.14,573.07
10.82254,444.19,572.38
10.84198,447.73,571.94
10.86316,448.17,574.84
10.88176,449.65,574.28
10.90219,447.78,573.02
10.92162,448.22,572.87
10.94269,452.55,572.52
10.96303,453.46,575.29
10.98450,451.54,574.66
11.00264,455.15,575.83
11.02403,455.34,573.88
11.04406,456.40,575.43
11.06304,455.79,574.14
11.08323,459.57,577.74
11.10366,457.43,575.26
11.12454,455.99,575.71
11.14321,455.98,578.73
11.16430,455.55,578.37
11.18275,458.07,578.46
11.20443,457.11,579.31
11.22256,456.21,578.61
11.24271,456.10,577.19
11.26389,459.15,578.26
11.28286,459.27,578.20
11.30441,461.51,578.47
11.32418,462.68,578.79
11.34390,458.51,576.99
11.36295,462.09,575.74
11.38417,461.67,575.17
11.40412,460.31,575.18
11.42493,462.83,577.76
11.44444,462.70,574.83
11.46462,460.28,575.41
11.48420,460.06,577.17
11.50530,461.62,578.91
11.52456,462.92,577.31
11.54517,462.02,577.44
11.56518,462.91,577.68
11.58443,467.48,576.92
11.60509,465.39,577.83
11.62501,467.03,578.57
11.64461,465.11,577.99
11.66482,465.99,579.66
11.68480,463.91,576.83
11.70547,463.51,577.99
11.72541,464.51,579.18
11.74417,462.91,577.38
11.76465,466.88,578.68
11.78503,467.22,579.31
11.80414,467.97,579.51
11.82558,467.41,580.92
11.84410,468.63,577.77
11.86419,466.68,576.59
11.88495,467.63,579.08
11.90480,467.11,578.95
11.92412,465.85,577.78
11.94466,464.64,578.15
11.96385,466.15,578.55
11.98559,464.93,575.48
12.00536,464.21,575.67
12.02407,463.40,576.85
12.04470,461.58,575.87
12.06350,460.88,579.03
12.08420,460.59,576.47
12.10421,462.52,574.43
12.12364,466.69,576.49
12.14412,467.50,575.95
12.16483,464.21,575.33
12.18392,469.07,574.45
12.20374,466.90,575.36
12.22481,469.72,576.55
12.24520,468.96,577.42
12.26530,470.89,579.53
12.28479,467.71,578.21
12.30422,472.90,580.65
12.32505,469.10,580.88
12.34414,470.74,581.19
12.36383,472.63,581.24
12.38487,473.26,579.71
12.40430,472.41,581.59
12.42391,471.93,580.09
12.44504,471.29,582.03
12.46383,468.24,580.14
12.48382,467.09,578.70
12.50466,469.98,578.65
12.52443,466.77,578.74
12.54523,467.46,579.30
12.56530,469.91,579.69
12.58480,468.23,579.28
12.60426,467.12,579.29
12.62499,467.67,577.73
12.64495,467.43,576.48
12.66486,465.27,576.80
12.68405,468.23,577.60
12.70445,468.42,576.59
12.72461,470.27,576.44
12.74483,470.49,579.85
12.76527,473.25,580.10
12.78407,469.79,579.48
12.80527,474.10,576.48
12.82492,472.22,578.38
12.84399,471.77,579.98
12.86406,472.28,579.22
12.88453,472.52,579.67
12.90448,474.57,579.56
12.92528,472.69,578.62
12.94526,476.04,578.19
12.96537,472.99,579.85
12.98443,473.08,580.32
13.00360,482.95,582.96
13.02395,507.12,597.16
13.04547,533.31,605.74
13.06540,567.14,615.00
13.08393,597.70,622.79
13.10478,617.17,625.58
13.12441,632.81,624.20
13.14549,638.23,617.87
13.16447,639.22,613.45
13.18424,635.44,605.41
13.20553,628.44,598.35
13.22462,620.26,590.08
13.24362,607.28,585.87
13.26563,593.94,584.61
13.28376,581.98,580.05
13.30430,571.58,580.90
13.32568,557.90,577.23
13.34565,550.96,578.53
13.36540,538.83,576.93
13.38365,530.49,581.10
13.40546,523.24,581.72
13.42554,519.11,581.54
13.44456,512.01,580.71
13.46556,505.09,581.22
13.48438,501.25,583.07
13.50392,496.59,582.43
13.52435,493.47,583.76
13.54509,488.15,584.35
13.56562,484.58,582.11
13.58521,482.69,583.33
13.60475,481.25,583.40
13.62612,478.02,582.54
13.64543,479.12,585.24
13.66615,481.06,584.15
13.68539,481.07,582.43
13.70625,480.71,582.89
13.72497,479.42,582.79
13.74584,477.74,584.04
13.76652,476.35,583.75
13.78585,477.80,583.97
13.80586,475.75,583.76
13.82538,474.54,583.58
13.84513,475.75,582.55
13.86645,473.49,583.16
13.88492,473.87,583.58
13.90580,470.16,582.74
13.92601,466.31,582.19
13.94589,451.94,578.44
13.96476,436.45,578.87
13.98635,415.70,570.93
14.00466,391.73,561.35
14.02654,363.37,550.57
14.04507,343.53,542.30
14.06475,324.19,531.61
14.08586,313.76,528.14
14.10581,313.29,524.40
14.12636,316.90,526.69
14.14600,326.21,528.61
14.16453,335.65,533.90
14.18489,345.84,538.08
14.20459,359.35,541.44
14.22569,371.12,544.75
14.24481,382.06,552.88
14.26523,393.93,555.19
14.28636,403.53,560.17
14.30643,410.83,562.10
14.32652,419.22,567.49
14.34651,428.37,568.76
14.36493,433.33,568.83
14.38535,439.23,570.87
14.40484,444.46,572.94
14.42604,448.83,574.12
14.44449,452.67,572.56
14.46491,453.01,576.87
14.48612,457.00,574.17
14.50579,456.83,577.39
14.52600,461.06,575.01
14.54541,461.31,577.10
14.56516,461.79,578.13
14.58621,462.30,576.07
14.60639,463.16,578.20
14.62481,467.36,577.13
14.64589,466.77,577.89
14.66619,467.61,578.66
14.68644,468.76,578.67
14.70484,471.37,578.78
14.72519,470.65,577.93
14.74584,471.17,580.53
14.76539,471.32,579.36
14.78495,469.42,579.45
14.80578,470.91,578.46
14.82564,471.74,576.47
14.84546,471.64,578.76
14.86561,473.16,577.73
14.88616,470.27,577.04
14.90497,471.47,577.49
14.92571,470.35,581.86
14.94537,470.12,582.25
14.96640,471.48,581.08
14.98485,471.57,582.02
15.00554,470.70,580.28
15.02576,470.52,582.13
15.04449,469.82,578.79
15.06542,470.59,580.57
15.08473,471.55,579.83
15.10642,471.63,582.01
15.12645,469.27,582.29
15.14473,468.24,583.71
15.16569,468.82,581.87
15.18495,469.58,583.90
15.20650,465.54,581.98
15.22654,467.04,581.10
15.24579,464.53,583.45
15.26549,468.37,582.22
15.28590,469.34,580.11
15.30477,470.08,580.68
15.32486,469.87,580.03
15.34628,471.69,581.57
15.36564,470.67,580.62
15.38582,470.76,582.09
15.40631,470.62,583.55
15.42529,474.42,582.17
15.44467,473.07,581.69
15.46480,470.49,582.62
15.48482,469.04,583.72
15.50531,467.98,584.57
15.52483,467.48,584.10
15.54486,468.88,582.87
15.56490,472.00,582.90
15.58547,472.75,584.41
15.60506,474.18,581.71
15.62642,471.22,583.22
15.64523,474.04,580.66
15.66570,472.59,581.88
15.68594,471.85,581.13
15.70651,473.50,580.57
15.72666,473.39,581.87
15.74597,472.93,583.18
15.76505,472.52,581.69
15.78502,471.62,582.40
15.80479,471.31,582.73
15.82555,471.48,579.73
15.84591,472.78,582.42
15.86643,474.39,581.29
15.88521,470.90,581.88
15.90479,469.77,583.92
15.92515,469.42,585.78
15.94511,472.05,584.99
15.96516,472.79,584.06
15.98467,470.77,584.28
16.00541,470.07,581.77
16.02504,469.73,585.27
16.04452,470.30,582.57
16.06561,471.58,582.82
16.08512,470.76,583.69
16.10545,470.13,584.71
16.12563,471.40,584.75
16.14583,469.86,584.55
16.16583,468.77,582.94
16.18483,467.37,584.36
16.20513,469.72,583.21
16.22451,468.99,581.63
16.24543,468.84,583.17
16.26490,467.18,582.06
16.28585,467.45,580.58
16.30639,470.25,581.63
16.32628,470.17,583.43
16.34581,472.25,584.32
16.36520,469.70,582.81
16.38541,470.55,583.46
16.40481,469.97,583.71
16.42558,468.47,584.19
16.44502,468.74,581.90
16.46644,471.33,584.32
16.48462,471.31,581.77
16.50516,474.03,581.24
16.52566,469.56,582.41
16.54524,468.20,579.73
16.56557,470.99,582.42
16.58513,468.85,580.19
16.60621,472.38,579.40
16.62618,471.92,577.83
16.64462,469.10,578.90
16.66534,468.28,579.55
16.68594,467.61,578.56
16.70607,470.13,581.19
16.72544,470.53,579.72
16.74612,467.74,580.40
16.76462,469.13,579.16
16.78597,469.26,577.44
16.80585,468.41,579.55
16.82480,470.18,577.66
16.84494,470.92,578.91
16.86619,469.87,578.74
16.88465,467.02,576.79
16.90548,467.39,577.69
16.92632,466.84,578.20
16.94571,465.47,580.14
16.96523,476.57,586.82
16.98487,499.37,595.11
17.00490,524.67,610.97
17.02635,555.03,625.38
17.04532,585.01,630.47
17.06527,603.35,630.43
17.08469,613.76,628.58
17.10498,622.52,622.61
17.12524,620.33,616.47
17.14544,617.33,611.44
17.16625,609.99,604.92
17.18503,603.08,600.99
17.20610,591.93,594.75
17.22507,582.34,589.34
17.24448,570.11,585.53
17.26487,562.02,586.24
17.28435,552.95,585.30
17.30510,542.37,583.68
17.32608,530.26,581.66
17.34474,522.42,581.77
17.36492,515.37,584.40
17.38515,507.15,583.01
17.40459,502.01,581.26
17.42467,496.01,581.03
17.44504,490.13,579.66
17.46631,489.21,578.25
17.48485,485.83,582.06
17.50616,481.16,579.77
17.52572,479.41,578.21
17.54460,476.22,582.13
17.56501,478.18,581.88
17.58496,473.85,579.01
17.60504,472.39,581.14
17.62645,470.20,578.84
17.64493,471.53,580.06
17.66600,467.93,578.68
17.68517,468.24,579.22
17.70533,467.74,581.65
17.72633,467.19,580.49
17.74549,466.13,579.43
17.76594,464.07,581.88
17.78619,465.70,579.50
17.80526,465.82,578.88
17.82571,464.54,577.72
17.84610,465.10,578.33
17.86632,462.86,576.47
17.88571,466.40,576.93
17.90565,466.74,579.70
17.92620,465.70,576.35
17.94638,465.46,576.57
17.96450,465.22,575.10
17.98614,464.37,580.07
18.00658,464.69,580.12
18.02469,467.40,578.66
18.04619,463.87,579.99
18.06627,465.97,578.81
18.08484,458.83,580.59
18.10575,446.67,582.66
18.12562,430.98,582.23
18.14627,405.84,584.82
18.16481,383.95,579.31
18.18632,356.83,571.66
18.20451,337.65,562.58
18.22580,323.09,555.01
18.24590,316.84,551.37
18.26671,319.04,546.15
18.28612,324.94,546.10
18.30496,336.34,545.20
18.32622,346.30,545.23
18.34655,357.41,548.66
18.36528,365.74,551.61
18.38461,375.51,552.01
18.40442,387.20,556.68
18.42524,395.82,559.86
18.44578,404.82,563.19
18.46555,413.08,565.87
18.48454,419.88,566.13
18.50551,423.56,566.50
18.52627,430.17,568.35
18.54562,435.06,572.71
18.56454,440.83,573.70
18.58615,444.29,573.97
18.60528,446.06,571.59
18.62627,448.65,574.42
18.64608,447.82,573.30
18.66608,451.24,573.53
18.68646,448.88,573.85
18.70541,454.09,573.95
18.72626,452.67,577.22
18.74528,454.74,573.61
18.76643,456.85,577.73
18.78575,458.34,576.07
18.80489,456.28,577.81
18.82470,456.70,576.70
18.84494,457.64,576.16
18.86497,456.25,577.65
18.88607,459.28,578.45
18.90612,456.56,579.03
18.92559,458.63,579.28
18.94485,458.73,579.43
18.96550,459.78,577.48
18.98476,459.99,576.34
19.00616,457.16,577.43
19.02603,458.30,579.24
19.04510,457.57,575.76
19.06487,461.32,579.59
19.08607,460.02,577.11
19.10645,460.10,576.40
19.12535,457.31,577.22
19.14470,457.90,577.33
19.16618,458.17,576.97
19.18475,457.32,576.28
19.20556,457.96,574.68
19.22460,459.09,574.10
19.24532,455.13,575.38
19.26545,457.68,572.98
19.28548,455.68,573.86
19.30509,457.95,574.33
19.32606,455.53,576.62
19.34559,457.87,575.15
19.36467,459.69,577.64
19.38546,456.90,575.66
19.40550,460.43,577.17
19.42575,459.75,574.30
19.44573,458.87,577.88
19.46517,460.32,574.52
19.48610,456.44,574.88
19.50630,458.13,576.26
19.52600,456.44,575.63
19.54549,457.16,575.20
19.56587,457.65,574.47
19.58621,455.24,571.82
19.60551,456.41,575.49
19.62595,454.75,575.65
19.64654,454.88,572.59
19.66469,455.84,576.06
19.68611,454.82,577.10
19.70503,456.90,574.36
19.72607,455.69,575.94
19.74588,453.48,574.64
19.76616,454.71,575.81
19.78483,454.47,577.59
19.80455,452.43,575.88
19.82642,452.58,576.92
19.84564,455.10,577.40
19.86452,453.41,576.60
19.88556,456.26,576.94
19.90455,455.74,577.24
19.92478,455.25,575.24
19.94599,454.65,576.98
19.96594,455.47,577.03
19.98593,454.27,577.19
20.00554,455.34,576.59
20.02609,457.94,575.26
20.04474,454.25,577.02
20.06537,455.03,576.78
20.08621,453.70,580.46
20.10510,457.83,578.06
20.12643,456.81,576.28
20.14649,454.26,575.91
20.16522,455.85,576.70
20.18529,453.68,577.52
20.20592,454.71,575.81
20.22548,453.23,578.98
20.24526,456.15,579.07
20.26479,452.44,576.91
20.28498,453.14,578.65
20.30501,455.64,576.84
20.32660,456.36,575.96
20.34633,453.67,579.53
20.36576,453.45,575.62
20.38525,452.29,576.48
20.40472,453.20,577.74
20.42618,451.64,576.21
20.44482,456.00,576.59
20.46504,453.78,576.05
20.48524,455.62,578.68
20.50472,454.03,579.27
20.52572,453.46,577.86
20.54521,455.25,579.56
20.56602,452.69,579.06
20.58561,453.23,581.04
20.60457,455.95,579.14
20.62502,457.39,579.79
20.64533,456.95,581.22
20.66637,455.55,578.46
20.68650,453.11,579.21
20.70603,454.39,579.07
20.72695,453.03,576.36
20.74628,453.00,574.67
20.76635,451.49,571.56
20.78680,448.32,570.78
20.80710,450.99,569.08
20.82685,448.10,570.27
20.84569,449.67,569.37
20.86664,451.61,565.24
20.88681,448.12,565.77
20.90620,449.22,567.29
20.92676,452.10,569.28
20.94635,452.45,570.40
20.96579,451.38,567.44
20.98622,453.21,571.09
21.00631,448.79,568.60
21.02531,449.70,570.26
21.04735,453.03,570.73
21.06718,449.75,572.25
21.08599,452.49,572.89
21.10649,449.20,573.70
21.12682,448.30,572.65
21.14658,449.92,569.74
21.16554,452.71,568.40
21.18571,451.27,569.08
21.20694,452.46,566.20
21.22563,448.98,566.90
21.24703,461.30,573.65
21.26589,478.60,583.75
21.28597,505.35,597.11
21.30684,532.13,608.75
21.32659,555.79,619.43
21.34558,570.70,623.55
21.36716,584.40,622.59
21.38552,590.62,619.28
21.40642,595.13,615.30
21.42661,591.03,607.58
21.44608,585.96,598.44
21.46738,576.99,591.00
21.48741,567.48,584.23
21.50553,558.63,580.98
21.52574,547.79,575.12
21.54596,537.46,570.65
21.56719,528.85,568.74
21.58671,517.16,569.98
21.60619,510.37,570.04
21.62601,499.59,566.76
21.64690,495.96,566.88
21.66679,489.09,567.37
21.68639,483.28,567.24
21.70590,477.18,566.78
21.72656,476.03,568.70
21.74703,472.83,568.97
21.76627,468.32,567.58
21.78619,465.83,569.32
21.80670,464.06,569.95
21.82589,459.29,567.99
21.84700,457.43,570.74
21.86723,456.69,570.10
21.88648,456.69,573.33
21.90644,453.84,571.89
21.92571,452.77,573.43
21.94568,452.94,574.03
21.96611,450.73,574.17
21.98681,453.00,574.08
22.00547,454.62,573.30
22.02639,450.99,573.34
22.04607,453.41,572.32
22.06549,453.53,573.88
22.08574,452.91,574.32
22.10713,452.10,573.38
22.12672,449.93,572.44
22.14718,451.99,575.66
22.16731,450.63,574.21
22.18544,450.83,576.22
22.20562,452.01,575.47
22.22669,451.23,574.14
22.24666,453.24,577.10
22.26646,452.23,573.88
22.28544,453.20,575.27
22.30722,453.72,577.61
22.32682,453.61,575.54
22.34658,451.37,576.49
22.36576,444.91,576.34
22.38714,431.40,581.58
22.40626,412.81,578.81
22.42672,394.55,577.08
22.44722,371.89,569.81
22.46752,347.56,561.89
22.48588,326.22,548.27
22.50690,312.35,538.88
22.52621,301.13,533.89
22.54598,299.63,529.25
22.56629,306.65,529.15
22.58677,312.32,532.14
22.60603,328.00,531.89
22.62739,339.03,534.17
22.64697,350.57,538.18
22.66663,360.70,540.46
22.68702,368.43,542.64
22.70752,378.00,547.07
22.72731,388.13,550.25
22.74593,394.33,554.45
22.76653,400.49,553.99
22.78587,410.79,557.82
22.80739,418.80,559.13
22.82642,420.31,562.85
22.84718,425.85,564.36
22.86619,431.39,568.06
22.88660,435.27,569.02
22.90594,435.94,566.84
22.92569,440.47,569.66
22.94667,439.09,567.47
22.96569,442.46,569.04
22.98642,444.44,568.42
23.00578,449.06,571.73
23.02562,448.75,572.20
23.04653,450.37,570.99
23.06621,453.21,574.86
23.08675,450.47,575.09
23.10719,452.71,576.00
23.12649,451.17,575.27
23.14610,452.22,573.57
23.16699,453.60,574.18
23.18652,451.66,576.76
23.20710,451.11,574.70
23.22541,452.80,577.32
23.24725,450.94,574.48
23.26557,453.25,576.68
23.28585,451.12,575.19
23.30715,453.00,573.10
23.32713,454.32,572.72
23.34525,454.43,571.12
23.36553,450.93,572.37
23.38622,451.40,570.05
23.40553,456.02,571.64
23.42665,453.97,573.81
23.44657,456.90,573.70
23.46575,457.92,575.03
23.48696,456.52,576.43
23.50582,457.39,574.53
23.52581,457.11,575.61
23.54581,455.76,576.95
23.56706,455.62,577.72
23.58736,453.69,577.66
23.60663,453.40,574.92
23.62595,457.57,574.77
23.64724,454.45,575.05
23.66588,454.34,577.01
23.68745,454.45,576.38
23.70659,456.76,576.44
23.72620,454.35,577.09
23.74604,457.44,574.93
23.76659,456.11,575.25
23.78673,456.40,576.12
23.80549,455.38,578.24
23.82667,455.75,577.64
23.84620,457.43,573.90
23.86676,457.68,577.00
23.88692,457.66,576.36
23.90559,458.20,577.86
23.92596,457.35,577.06
23.94672,457.48,577.32
23.96685,460.86,578.23
23.98696,460.11,578.12
24.00705,458.47,577.55
24.02726,458.55,576.74
24.04711,459.59,576.25
24.06668,460.36,578.32
24.08569,458.42,579.30
24.10713,461.86,577.78
24.12748,461.98,575.76
24.14661,458.42,574.40
24.16694,459.54,572.66
24.18581,458.80,574.26
24.20714,456.10,576.16
24.22697,456.71,576.91
24.24693,456.99,575.04
24.26618,456.40,576.35
24.28670,458.01,573.24
24.30589,459.05,575.59
24.32584,460.62,576.93
24.34590,457.97,577.83
24.36618,460.12,574.64
24.38648,459.80,576.50
24.40733,461.26,578.74
24.42743,460.74,578.74
24.44664,462.67,578.47
24.46705,463.73,576.71
24.48681,462.65,577.61
24.50654,463.09,579.93
24.52584,461.71,579.45
24.54660,462.49,579.00
24.56696,459.81,579.21
24.58705,460.76,578.49
24.60647,463.79,579.20
24.62680,461.03,579.26
24.64551,460.03,580.57
24.66642,463.66,580.65
24.68711,463.23,580.42
24.70701,459.84,579.40
24.72756,463.16,577.46
24.74698,460.48,577.96
24.76650,463.89,578.28
24.78726,463.42,579.74
24.80604,464.24,580.23
24.82664,464.16,577.13
24.84625,464.38,576.12
24.86673,462.25,576.98
24.88587,463.01,577.80
24.90592,461.42,575.81
24.92596,460.62,575.32
24.94632,463.41,574.16
24.96675,461.88,577.66
24.98588,471.98,582.68
25.00574,491.20,590.29
25.02543,513.90,595.84
25.04643,541.01,604.96
25.06630,564.72,614.84
25.08540,583.99,614.10
25.10555,599.49,615.73
25.12640,607.21,614.24
25.14648,611.85,611.96
25.16572,614.83,607.19
25.18630,609.09,603.64
25.20559,606.95,597.95
25.22718,599.85,596.27
25.24602,587.48,591.73
25.26699,582.63,587.93
25.28718,571.44,580.56
25.30610,562.52,578.74
25.32596,550.61,579.70
25.34514,541.15,577.52
25.36545,533.52,575.31
25.38553,525.03,577.03
25.40707,515.78,575.16
25.42596,507.73,578.69
25.44621,499.35,575.33
25.46739,495.34,576.69
25.48650,492.07,578.08
25.50728,488.23,578.81
25.52595,486.04,580.42
25.54601,480.43,578.67
25.56560,480.79,581.17
25.58586,477.78,580.70
25.60699,474.87,582.63
25.62624,471.78,582.05
25.64561,473.95,581.92
25.66611,473.77,584.55
25.68722,470.72,582.96
25.70597,472.02,579.57
25.72666,470.54,583.67
25.74560,472.57,580.25
25.76705,467.01,581.10
25.78625,469.43,580.78
25.80658,471.07,580.87
25.82538,468.62,581.86
25.84690,469.54,580.62
25.86655,467.39,579.36
25.88660,465.97,578.66
25.90719,465.29,577.31
25.92658,465.69,577.64
25.94650,464.46,575.31
25.96621,464.09,577.04
25.98544,462.44,577.02
26.00563,464.63,576.29
26.02589,464.79,576.83
26.04536,464.14,580.34
26.06541,464.44,581.96
26.08572,462.05,590.23
26.10627,453.96,599.78
26.12551,443.63,609.42
26.14600,429.06,618.70
26.16692,408.26,622.16
26.18596,384.75,617.71
26.20639,363.88,603.93
26.22583,342.58,590.97
26.24675,327.65,571.04
26.26538,317.63,554.65
26.28605,307.53,542.01
26.30579,309.62,532.94
26.32555,313.63,530.39
26.34604,321.53,523.46
26.36653,333.44,523.35
26.38682,347.30,520.31
26.40641,359.83,522.69
26.42703,372.24,525.38
26.44564,381.44,527.08
26.46657,390.88,529.85
26.48718,401.53,532.91
26.50672,409.92,536.97
26.52735,418.21,540.45
26.54663,426.59,544.69
26.56560,429.15,546.24
26.58659,436.06,551.29
26.60574,438.68,550.95
26.62642,445.91,555.08
26.64654,448.82,558.05
26.66544,449.43,560.73
26.68658,452.33,562.28
26.70589,453.34,563.46
26.72685,459.12,566.43
26.74552,457.80,566.71
26.76553,460.75,567.19
26.78556,465.09,568.38
26.80634,465.30,570.97
26.82545,466.59,572.76
26.84633,467.34,571.84
26.86668,465.32,573.72
26.88605,466.63,574.87
26.90563,469.68,571.86
26.92735,472.07,575.17
26.94679,471.10,575.44
26.96711,471.04,575.09
26.98584,473.28,576.26
27.00579,471.60,574.43
27.02709,473.68,577.45
27.04585,472.85,577.57
27.06604,471.98,575.99
27.08635,473.19,577.85
27.10721,471.29,577.02
27.12641,469.92,576.59
27.14625,470.65,576.62
27.16580,469.66,578.81
27.18635,470.28,579.08
27.20655,471.86,580.21
27.22705,469.74,579.04
27.24545,469.82,580.47
27.26572,471.63,579.67
27.28549,469.03,580.14
27.30703,472.22,578.70
27.32710,471.01,581.29
27.34649,469.64,581.52
27.36579,468.43,580.66
27.38653,467.29,579.60
27.40733,467.37,577.15
27.42697,470.28,577.18
27.44703,469.61,578.83
27.46710,469.57,580.30
27.48612,470.92,578.67
27.50573,471.59,582.27
27.52705,473.22,580.60
27.54589,469.90,579.54
27.56644,471.86,583.34
27.58598,471.02,582.80
27.60639,471.49,580.11
27.62526,474.32,582.71
27.64712,474.48,582.30
27.66709,472.71,581.11
27.68672,472.72,578.44
27.70785,475.53,580.95
27.72627,474.50,579.17
27.74721,473.02,581.38
27.76645,474.81,581.34
27.78821,473.54,580.08
27.80712,471.98,579.29
27.82797,472.80,578.87
27.84940,473.81,581.14
27.86793,475.26,582.29
27.88842,476.03,583.16
27.90734,474.79,583.80
27.92889,474.78,582.02
27.94758,473.57,584.29
27.96809,474.83,581.59
27.98756,473.44,584.38
28.00883,471.97,582.56
28.02810,471.67,583.31
28.04867,474.35,584.09
28.06885,472.24,586.21
28.08731,474.10,585.24
28.10740,473.52,585.42
28.12885,471.63,583.20
28.14879,475.12,585.08
28.16755,474.20,583.85
28.18828,470.57,582.95
28.20828,469.20,580.86
28.22823,472.59,582.26
28.24768,470.74,583.77
28.26808,473.02,584.87
28.28893,473.50,584.11
28.30738,471.12,585.05
28.32863,471.97,584.51
28.34826,470.94,583.38
28.36896,472.19,583.72
28.38833,470.12,583.37
28.40804,469.09,579.95
28.42882,471.19,582.47
28.44788,472.03,579.74
28.46901,469.67,580.60
28.48872,471.69,583.00
28.50763,468.99,580.85
28.52806,471.41,580.88
28.54803,473.29,578.70
28.56825,472.46,581.79
28.58781,471.43,580.75
28.60790,470.04,582.57
28.62902,470.64,582.18
28.64895,470.14,581.77
28.66748,471.16,578.85
28.68887,473.25,577.39
28.70709,471.64,576.78
28.72803,471.46,577.43
28.74846,471.62,579.71
28.77018,469.35,579.44
28.78945,468.60,581.92
28.81023,470.83,581.20
28.82953,468.51,580.21
28.84951,468.74,583.01
28.86898,467.29,581.83
28.88955,466.97,582.02
28.91028,465.45,581.74
28.93007,464.82,578.47
28.94899,464.60,579.32
28.96945,463.68,579.63
28.98916,465.48,579.07
29.00892,466.14,575.86
29.03017,465.78,577.65
29.04833,467.79,578.16
29.06931,475.27,581.06
29.08857,489.78,589.56
29.10887,515.71,596.37
29.12956,546.23,607.34
29.14998,574.22,618.80
29.16956,598.42,624.65
29.18903,615.72,628.10
29.20822,627.13,624.24
29.22885,635.38,623.38
29.24929,632.99,615.34
29.26895,628.50,610.30
29.28866,618.55,602.68
29.31012,608.95,596.14
29.33007,599.04,589.77
29.34919,589.29,584.19
29.36863,576.23,580.06
29.38971,563.28,577.85
29.40899,554.85,575.17
29.42889,542.15,573.36
29.44945,531.16,574.56
29.46823,522.44,574.74
29.48843,515.13,575.47
29.50838,505.99,574.13
29.52907,500.93,573.45
29.54904,495.59,575.11
29.57030,491.03,575.45
29.58924,487.59,576.20
29.60847,484.42,576.29
29.62906,477.66,579.74
29.64878,476.80,578.56
29.66995,471.20,576.60
29.68936,469.51,577.36
29.70935,469.54,578.52
29.72933,467.97,579.26
29.74946,470.42,577.39
29.76851,467.65,577.86
29.78835,468.61,579.96
29.80958,465.94,576.39
29.82963,464.67,578.07
29.84851,462.34,578.72
29.86864,464.08,579.08
29.88955,461.18,580.29
29.90997,463.03,580.82
29.92986,462.97,580.50
29.94855,464.17,580.42
29.96905,463.79,579.30
29.98941,464.95,579.20
30.00847,466.56,580.19
30.02948,459.69,579.85
30.04892,449.28,582.26
30.06871,430.22,590.37
30.08870,409.27,591.26
30.10894,387.01,589.13
30.12860,360.98,582.11
30.14851,341.61,576.62
30.17002,325.06,563.34
30.18951,308.83,554.76
30.20954,303.54,545.55
30.22894,304.79,541.48
30.24959,307.99,538.64
30.26870,316.63,536.32
30.28952,331.29,537.62
30.30833,342.23,536.94
30.32884,350.90,537.60
30.34843,364.68,540.23
30.36988,375.64,544.26
30.38928,383.95,545.22
30.40922,392.66,546.98
30.42864,401.90,548.69
30.44895,411.97,552.23
30.47007,418.65,556.14
30.48972,421.48,555.87
30.50954,426.53,558.13
30.52995,431.62,560.92
30.54999,432.71,560.51
30.56905,435.00,562.62
30.58841,437.52,564.84
30.60844,443.95,567.16
30.62913,444.29,568.03
30.64885,448.51,570.42
30.66986,449.93,571.46
30.68952,450.40,571.06
30.70923,453.22,570.62
30.72834,452.54,575.11
30.74954,455.19,572.18
30.77019,455.50,573.20
30.78838,455.55,573.31
30.80868,452.94,575.22
30.82862,455.42,578.14
30.84924,456.07,575.46
30.86898,455.93,576.50
30.88939,453.09,576.61
30.90873,453.11,578.36
30.92888,454.53,578.94
30.94926,457.05,578.15
30.96837,454.79,576.75
30.98930,456.10,576.43
31.00849,454.68,575.03
31.02867,452.15,576.19
31.05026,452.41,575.24
31.06896,452.62,574.08
31.08891,453.03,575.06
31.10894,454.86,574.90
31.12925,455.65,574.72
31.14988,455.24,573.21
31.16881,452.41,574.93
31.18912,452.85,573.72
31.20942,455.61,575.04
31.22844,454.50,576.40
31.24945,454.36,573.51
31.26899,455.48,574.76
31.28835,455.54,577.32
31.30823,454.26,575.97
31.32856,453.16,575.36
31.34886,454.38,575.52
31.36976,452.42,574.13
31.38887,453.98,572.87
31.40942,454.10,573.03
31.42837,455.97,569.98
31.44889,453.66,570.59
31.47029,456.69,570.78
31.48900,453.16,573.82
31.50917,453.40,571.54
31.52945,453.40,571.80
31.54953,455.91,572.58
31.56957,456.29,576.36
31.58928,454.16,575.37
31.60883,454.29,574.17
31.63024,452.60,574.55
31.64825,452.55,575.30
31.66868,454.90,576.07
31.68979,454.17,577.09
31.70997,454.49,578.03
31.72979,453.58,576.70
31.74935,454.82,579.28
31.76870,456.72,578.19
31.78935,454.14,575.33
31.80921,453.24,574.62
31.82992,454.46,574.39
31.84856,451.05,576.29
31.86873,451.61,574.60
31.88908,452.60,575.20
31.90854,453.49,574.55
31.92943,453.36,574.43
31.94975,453.52,575.66
31.96982,456.02,572.98
31.98851,453.34,575.29
32.01049,457.06,575.94
32.02941,455.36,574.90
32.04861,451.95,574.56
32.06874,449.96,576.78
32.08845,449.02,577.30
32.10861,449.54,574.06
32.12963,452.76,576.46
32.14906,449.58,576.51
32.16956,453.01,575.12
32.18901,451.64,575.43
32.21010,450.01,573.52
32.22894,452.31,574.82
32.24879,450.21,576.88
32.26954,451.00,577.13
32.28945,448.00,575.49
32.30936,450.96,578.46
32.32844,451.13,575.17
32.34985,451.22,578.94
32.36956,450.20,577.79
32.38830,448.08,576.64
32.40958,448.95,578.20
32.42969,450.82,578.95
32.44921,448.69,576.92
32.46919,451.74,575.97
32.48890,449.48,577.46
32.50900,453.37,578.63
32.53064,449.90,576.91
32.54915,450.06,575.94
32.57101,452.10,575.40
32.59105,452.86,576.98
32.61068,450.32,576.83
32.62967,449.97,579.49
32.64974,454.02,576.91
32.67110,451.22,576.10
32.68959,452.59,574.42
32.71024,450.22,575.54
32.73012,448.92,573.74
32.75083,448.16,573.81
32.77062,448.84,573.32
32.79024,452.89,571.93
32.80927,452.05,574.76
32.82979,452.90,574.09
32.85057,453.00,573.20
32.86989,449.10,572.70
32.89005,452.08,573.82
32.91069,450.90,572.03
32.93085,452.42,575.96
32.94951,452.97,574.53
32.97110,450.60,571.38
32.99091,452.34,570.03
33.01097,453.68,572.55
33.03000,466.70,577.33
33.04976,490.58,588.45
33.06948,518.09,601.38
33.09074,546.16,614.41
33.11018,571.75,622.07
33.13066,588.72,626.85
33.14959,600.66,625.72
33.17028,609.34,619.44
33.18952,608.93,617.33
33.21053,603.08,609.93
33.22966,598.53,600.69
33.25113,588.68,593.31
33.26993,578.11,586.70
33.28972,568.49,581.28
33.30992,555.71,572.85
33.33099,548.06,571.66
33.35108,538.86,569.65
33.37021,524.98,565.78
33.38919,518.15,565.53
33.41088,509.29,564.62
33.43056,499.17,563.67
33.44996,494.54,565.89
33.46992,486.14,565.04
33.49032,484.49,569.67
33.51092,480.13,568.81
33.53008,473.44,572.68
33.55083,469.82,571.80
33.56951,468.95,573.16
33.58983,467.21,576.13
33.60938,463.89,573.41
33.63117,462.99,573.96
33.65052,459.78,575.25
33.67079,460.54,577.39
33.69054,458.41,574.89
33.71048,458.17,575.07
33.73089,457.95,576.15
33.75106,453.39,575.12
33.77093,452.54,576.36
33.79001,451.11,576.22
33.80932,450.29,576.56
33.83117,452.16,575.21
33.85035,452.44,575.55
33.87031,449.62,578.75
33.88997,444.66,587.71
33.90914,440.04,601.56
33.93102,431.65,618.47
33.94931,416.03,635.54
33.97078,399.67,640.80
33.99093,380.49,640.60
34.00952,358.73,625.56
34.03004,340.87,602.87
34.05003,322.24,577.85
34.07094,303.62,550.52
34.09029,295.25,530.81
34.10914,295.52,520.32
34.12992,301.23,511.52
34.15017,309.60,507.34
34.17083,319.26,505.55
34.19107,328.41,507.43
34.20999,343.01,509.65
34.23075,351.93,515.60
34.24933,363.07,519.77
34.27062,373.54,523.92
34.29067,378.82,530.61
34.30993,390.86,533.99
34.33103,397.76,540.81
34.35047,406.56,545.41
34.36923,413.24,548.13
34.39096,418.24,551.81
34.40912,423.21,556.52
34.43010,428.97,557.53
34.44972,428.92,562.83
34.47041,432.45,564.01
34.48944,434.20,566.94
34.50899,437.26,570.25
34.53049,441.66,568.50
34.55040,440.95,572.03
34.56953,442.51,573.37
34.59033,445.85,574.68
34.60965,444.51,574.14
34.63077,447.57,574.65
34.65071,448.84,573.11
34.67077,448.67,576.55
34.68946,451.86,573.26
34.70937,450.03,573.43
34.72983,452.02,576.44
34.74976,450.90,576.10
34.76957,451.57,576.27
34.78956,453.44,576.45
34.81004,452.61,575.41
34.83188,454.47,576.36
34.85157,453.24,577.40
34.87198,455.67,576.97
34.89145,455.67,577.30
34.91178,453.93,574.24
34.93091,456.98,575.63
34.95177,457.46,577.56
34.97028,455.98,577.60
34.99171,458.52,575.09
35.01002,459.45,575.09
35.03127,459.79,575.08
35.05072,460.68,577.39
35.07205,457.95,573.83
35.09036,461.62,574.57
35.11104,458.09,576.66
35.13168,460.10,575.55
35.15103,456.20,577.36
35.17207,456.87,575.88
35.19089,456.28,578.84
35.21068,458.01,577.64
35.23175,458.29,578.62
35.25063,459.71,579.36
35.27056,459.72,580.83
35.29113,458.36,580.59
35.31003,460.71,581.65
35.33158,460.17,579.36
35.35154,458.13,576.42
35.37155,459.30,579.28
35.39136,460.63,576.00
35.41163,459.76,578.66
35.43054,462.25,576.73
35.45195,458.99,579.20
35.47109,459.64,576.45
35.49167,458.70,575.86
35.51127,459.46,576.03
35.53175,456.63,578.92
35.55110,455.93,575.89
35.57115,456.09,575.62
35.59094,459.17,575.97
35.61156,458.34,574.76
35.63174,457.91,574.80
35.65118,455.96,577.09
35.67048,457.31,579.48
35.69139,458.08,578.23
35.71120,458.79,576.11
35.73211,459.90,577.35
35.75137,458.05,579.59
35.77032,460.60,578.11
35.79216,460.32,579.78
35.81119,461.53,579.13
35.83101,461.63,581.52
35.85069,460.27,579.43
35.87027,461.04,580.51
35.89192,461.37,581.59
35.91156,458.62,580.95
35.93087,459.95,583.43
35.95180,461.70,579.02
35.97039,458.70,579.46
35.99188,460.72,577.95
36.01069,458.14,579.81
36.03234,458.41,578.28
36.05058,461.98,579.63
36.07132,461.53,577.74
36.09192,461.90,579.44
36.11178,460.90,580.96
36.13122,461.39,579.59
36.15188,463.27,578.78
36.17181,463.12,579.41
36.19180,462.91,579.39
36.21113,464.16,579.63
36.23029,463.53,576.99
36.25105,460.70,576.54
36.27019,460.45,577.86
36.29142,461.00,577.20
36.31114,462.76,575.37
36.33151,463.70,575.38
36.35192,461.77,575.21
36.37075,464.75,578.24
36.39066,464.78,577.33
36.41022,463.30,576.33
36.43121,462.41,575.33
36.45212,463.10,577.69
36.47046,461.99,575.24
36.49213,464.45,576.99
36.51107,461.98,576.48
36.53164,461.82,578.15
36.55134,463.59,576.93
36.57156,464.88,576.47
36.59198,461.10,573.74
36.61180,462.61,577.94
36.63150,465.45,575.54
36.65180,464.88,576.89
36.67191,464.65,579.50
36.69123,463.68,578.77
36.71076,462.55,576.83
36.73181,464.47,580.28
36.75099,470.82,579.73
36.77137,483.50,588.62
36.79055,508.89,600.45
36.81123,541.32,617.55
36.83134,571.14,629.03
36.85177,594.27,638.34
36.87042,616.78,636.84
36.89156,624.90,634.79
36.91103,629.43,624.67
36.93033,630.07,618.25
36.95033,622.60,610.01
36.97066,613.61,602.07
36.99153,605.96,594.98
37.01103,595.21,590.93
37.03078,582.88,584.17
37.05076,574.23,580.73
37.07007,563.24,574.13
37.09132,553.32,575.39
37.11001,542.63,573.43
37.13161,529.79,571.02
37.15033,520.92,570.85
37.17110,515.08,571.52
37.19039,507.06,573.41
37.21101,502.09,574.00
37.23169,499.14,574.33
37.25041,491.14,574.48
37.27084,487.93,576.48
37.29135,485.32,574.50
37.31149,482.44,577.78
37.33193,483.43,577.72
37.35011,478.15,576.62
37.37126,478.48,579.62
37.39018,477.30,577.74
37.41051,473.45,577.52
37.43030,475.41,576.81
37.45115,474.86,577.74
37.47170,474.39,577.88
37.49103,470.69,578.55
37.50994,472.49,575.42
37.53051,468.97,575.86
37.55101,471.01,576.74
37.57202,468.70,576.53
37.59101,468.32,577.15
37.61169,464.05,578.52
37.63008,459.18,581.59
37.65107,446.27,582.15
37.67151,422.20,576.72
37.69019,400.07,568.19
37.71028,374.44,558.15
37.73068,350.03,544.64
37.75203,328.81,534.42
37.77130,313.87,527.21
37.79083,311.92,522.41
37.81190,314.57,519.86
37.83087,318.52,523.98
37.85006,330.67,523.29
37.87105,344.18,530.22
37.89099,353.93,533.73
37.91062,367.21,541.48
37.93173,380.17,547.04
37.95123,391.21,550.40
37.97007,402.11,553.70
37.99070,408.52,559.86
38.01153,416.38,562.83
38.03197,422.72,564.78
38.05187,429.38,567.41
38.07169,437.17,567.30
38.09116,439.41,570.11
38.11056,447.31,572.87
38.13152,448.15,574.33
38.15105,450.67,577.55
38.17034,454.06,577.78
38.19085,458.60,577.50
38.21098,459.10,575.26
38.23189,456.77,578.38
38.24983,457.09,574.76
38.27045,459.96,575.27
38.29075,462.19,575.85
38.31117,463.37,578.26
38.33091,462.29,577.41
38.35091,463.05,574.94
38.37176,463.26,576.27
38.39091,465.28,576.14
38.41053,466.96,575.89
38.43048,469.21,578.38
38.45159,468.87,575.47
38.47113,468.22,577.89
38.49048,471.77,576.84
38.51131,469.29,575.52
38.53102,468.71,577.02
38.55027,471.00,574.52
38.57114,469.72,577.99
38.59035,471.58,575.83
38.61160,470.84,578.09
38.63079,468.34,577.19
38.65089,471.95,575.79
38.67178,471.92,576.96
38.69111,471.75,575.22
38.71176,472.40,576.81
38.73099,472.17,576.24
38.75124,473.42,577.23
38.77137,474.18,577.00
38.79100,472.89,578.83
38.81010,474.12,578.70
38.83098,471.74,578.83
38.85195,472.60,577.12
38.87173,468.87,579.44
38.89120,467.58,579.50
38.90994,471.77,578.40
38.93108,469.23,576.59
38.95101,471.81,579.00
38.97068,472.10,577.33
38.99001,470.38,578.43
39.01145,469.55,579.55
39.03191,470.96,578.09
39.05031,471.11,579.42
39.07141,472.40,578.28
39.09156,470.05,578.90
39.11187,473.13,577.48
39.13103,472.73,579.45
39.15056,472.94,577.63
39.17047,472.09,578.69
39.19062,473.26,579.80
39.21002,475.97,578.19
39.23087,474.98,577.93
39.25176,472.72,579.23
39.27055,473.59,580.15
39.29124,471.64,579.94
39.31372,472.85,581.17
39.33283,473.11,579.85
39.35341,471.28,581.91
39.37296,473.69,582.42
39.39220,475.21,583.20
39.41290,475.22,584.15
39.43387,474.28,581.47
39.45282,475.37,582.28
39.47261,474.47,584.31
39.49304,474.84,583.48
39.51321,476.48,582.48
39.53208,472.75,581.70
39.55355,472.99,584.92
39.57321,474.95,582.38
39.59322,473.99,584.28
39.61199,474.50,585.63
39.63260,474.56,582.38
39.65254,474.45,582.97
39.67344,472.73,582.56
39.69250,472.67,582.91
39.71206,471.32,584.16
39.73238,474.99,581.95
39.75327,474.61,582.28
39.77256,472.59,582.21
39.79217,473.48,583.50
39.81388,471.70,582.33
39.83274,470.63,585.48
39.85235,469.80,585.56
39.87323,470.94,586.42
39.89221,471.35,586.16
39.91372,472.48,584.38
39.93341,470.47,583.22
39.95252,471.47,584.44
39.97215,471.08,584.09
39.99414,473.98,582.06
40.01391,471.47,582.16
40.03395,470.33,582.28
40.05310,471.38,582.24
40.07428,473.20,581.87
40.09316,473.07,580.97
40.11297,472.31,580.74
40.13449,472.12,579.37
40.15324,471.80,578.06
40.17428,473.17,578.28
40.19388,471.78,580.94
40.21306,471.55,579.71
40.23487,467.93,577.00
40.25339,468.04,581.02
40.27465,469.49,578.50
40.29329,469.02,580.96
40.31378,470.25,578.15
40.33437,469.13,579.27
40.35466,471.82,579.14
40.37352,472.39,581.42
40.39339,472.80,582.27
40.41479,474.98,584.03
40.43357,488.93,591.85
40.45300,507.06,602.14
40.47352,530.97,612.37
40.49392,552.03,623.29
40.51323,573.40,627.39
40.53474,594.31,627.41
40.55479,606.97,626.33
40.57320,610.78,625.35
40.59370,617.49,619.49
40.61499,615.79,612.98
40.63464,608.02,606.17
40.65338,604.73,599.45
40.67458,592.37,594.92
40.69419,580.81,584.88
40.71313,570.77,580.70
40.73478,559.47,576.41
40.75452,552.66,579.37
40.77427,538.08,577.15
40.79357,532.39,575.84
40.81370,523.17,573.75
40.83440,515.23,575.74
40.85455,507.13,574.30
40.87479,500.03,575.87
40.89434,496.86,576.56
40.91366,489.12,574.06
40.93349,485.82,575.07
40.95325,483.80,578.17
40.97470,480.25,574.36
40.99438,479.92,575.45
41.01366,476.39,579.94
41.03416,477.12,577.80
41.05456,473.96,580.25
41.07304,472.31,579.89
41.09285,471.19,579.85
41.11459,471.16,580.13
41.13344,469.37,579.91
41.15387,468.81,580.43
41.17321,467.14,579.41
41.19387,468.83,580.91
41.21430,467.35,582.98
41.23411,468.64,581.16
41.25421,464.98,580.21
41.27334,465.41,580.13
41.29356,467.46,578.07
41.31342,466.29,579.98
41.33460,466.42,579.05
41.35335,466.40,578.52
41.37383,464.79,579.19
41.39312,465.95,581.72
41.41423,465.74,581.13
41.43350,467.08,579.86
41.45404,465.38,582.50
41.47476,466.63,581.61
41.49358,466.17,580.18
41.51338,466.79,580.60
41.53493,466.59,581.75
41.55319,467.14,579.99
41.57308,456.54,580.44
41.59388,443.31,572.15
41.61316,423.17,566.17
41.63364,396.93,559.86
41.65364,373.83,552.80
41.67368,348.67,546.27
41.69413,334.71,544.23
41.71499,332.07,542.53
41.73308,331.62,542.94
41.75429,335.68,544.22
41.77311,344.60,543.75
41.79486,352.45,548.88
41.81428,362.12,551.65
41.83439,372.84,551.95
41.85501,382.92,558.93
41.87303,391.77,557.77
41.89385,401.26,562.37
41.91378,409.22,565.55
41.93393,417.92,566.31
41.95305,424.87,569.66
41.97374,429.86,569.02
41.99377,433.94,571.61
42.01494,437.61,572.86
42.03678,438.17,571.98
42.05655,441.23,572.18
42.07692,442.31,576.02
42.09734,443.28,576.79
42.11678,444.69,575.98
42.13697,442.16,577.47
42.15701,447.42,575.71
42.17647,445.58,574.58
42.19771,446.27,575.97
42.21747,449.42,577.44
42.23677,447.26,578.74
42.25700,446.16,576.48
42.27796,447.32,578.54
42.29731,446.87,577.20
42.31825,449.17,577.60
42.33808,447.12,574.97
42.35804,450.40,575.78
42.37765,449.95,577.12
42.39728,450.21,578.23
42.41822,450.45,574.80
42.43689,450.35,575.83
42.45733,450.56,576.97
42.47761,452.52,573.47
42.49763,449.61,574.72
42.51795,449.98,575.48
42.53697,449.16,575.73
42.55848,448.70,575.68
42.57783,447.86,576.21
42.59742,448.85,576.50
42.61713,449.31,575.37
42.63875,448.29,576.06
42.65829,449.36,573.37
42.67745,451.15,576.52
42.69745,451.15,577.96
42.71867,448.91,574.90
42.73842,449.84,575.69
42.75884,453.96,575.20
42.77821,445.50,570.59
42.79838,439.36,569.40
42.81730,433.31,567.91
42.83797,430.01,566.85
42.85725,432.36,564.99
42.87810,429.12,563.76
42.89723,431.47,566.98
42.91883,432.23,565.56
42.93883,433.41,569.09
42.95778,436.33,568.12
42.97827,436.68,564.99
42.99739,438.59,565.65
43.01805,438.32,567.60
43.03854,438.02,570.79
43.05850,439.28,571.29
43.07864,444.40,570.62
43.09743,445.32,572.39
43.11736,445.12,574.16
43.13770,446.25,573.83
43.15802,446.84,573.28
43.17824,447.26,573.17
43.19843,450.17,571.78
43.21821,449.76,572.44
43.23783,450.56,572.22
43.25871,451.30,571.74
43.27768,448.99,575.13
43.29872,450.49,572.60
43.31813,449.19,573.64
43.33717,451.20,574.44
43.35881,451.43,575.94
43.37841,451.14,571.64
43.39765,453.72,574.79
43.41722,450.92,573.31
43.43819,450.41,572.38
43.45851,451.19,573.33
43.47685,451.98,571.65
43.49808,448.83,573.33
43.51725,448.05,573.65
43.53702,451.03,572.49
43.55837,449.29,571.18
43.57682,449.61,571.81
43.59884,449.15,571.04
43.61809,448.43,571.42
43.63745,449.82,573.89
43.65899,451.77,571.50
43.67816,452.83,574.58
43.69899,450.70,575.97
43.71766,451.80,573.30
43.73731,451.67,574.50
43.75747,452.57,575.02
43.77696,453.13,572.63
43.79846,452.43,573.60
43.81767,451.87,573.21
43.83819,451.47,575.18
43.85769,450.94,573.90
43.87712,451.72,574.56
43.89861,452.34,574.56
43.91747,451.95,575.52
43.93793,451.54,574.72
43.95716,453.11,573.23
43.97870,452.57,573.27
43.99748,452.35,575.92
44.01854,452.75,575.94
44.03884,453.21,575.75
44.05881,451.92,575.63
44.07776,455.47,576.19
44.09799,453.85,575.28
44.11721,451.81,574.23
44.13799,455.03,572.95
44.15762,452.34,570.79
44.17732,453.28,572.20
44.19803,451.31,573.72
44.21889,449.99,573.09
44.23737,450.99,571.88
44.25710,456.30,574.66
44.27773,470.45,580.73
44.29750,491.43,591.10
44.31705,515.58,603.73
44.33836,545.05,612.38
44.35840,566.33,622.48
44.37718,585.84,627.85
44.39781,595.74,634.15
44.41848,602.56,630.26
44.43728,604.13,629.37
44.45812,603.01,624.57
44.47862,600.67,614.98
44.49864,589.69,609.97
44.51783,580.44,602.79
44.53706,567.52,595.33
44.55849,556.70,585.89
44.57765,545.78,582.21
44.59856,535.87,576.21
44.61749,527.72,577.61
44.63723,518.93,574.99
44.65833,511.07,575.58
44.67754,503.88,572.27
44.69793,496.40,572.71
44.71879,489.45,573.12
44.73869,483.68,574.79
44.75819,478.07,576.09
44.77873,474.51,575.26
44.79747,471.86,574.42
44.81793,469.92,573.55
44.83832,467.97,574.23
44.85815,467.81,571.88
44.87840,465.01,572.02
44.89817,465.60,571.15
44.91701,462.10,570.20
44.93773,460.83,569.46
44.95744,457.92,572.94
44.97812,457.30,573.34
44.99689,455.10,573.26
45.01761,456.26,574.22
45.03862,454.72,574.43
45.05769,455.59,573.18
45.07806,456.24,575.07
45.09960,457.93,576.19
45.11866,456.72,573.50
45.13933,453.63,575.77
45.15937,456.77,577.22
45.17839,455.08,576.66
45.19833,455.93,579.31
45.21818,455.03,578.86
45.23856,453.74,578.32
45.25948,450.06,579.41
45.27875,443.54,575.19
45.29875,435.99,569.47
45.31819,418.14,566.53
45.33865,397.91,560.35
45.35875,373.21,554.07
45.37967,349.96,546.73
45.39879,328.78,542.89
45.41835,315.37,537.97
45.43968,307.88,537.57
45.45771,303.00,536.79
45.47917,309.83,536.32
45.49851,315.97,538.27
45.51797,327.96,540.58
45.53818,335.35,544.39
45.55990,346.44,547.13
45.57893,358.22,553.15
45.59950,370.17,553.59
45.61899,380.86,558.43
45.63848,391.28,558.64
45.65812,398.07,561.45
45.67872,404.09,564.46
45.69940,412.90,563.86
45.71877,418.11,566.95
45.73798,426.75,567.46
45.75918,430.77,567.71
45.77868,432.75,569.01
45.79950,438.66,572.65
45.81911,442.21,574.90
45.83842,443.10,572.37
45.85884,446.44,571.99
45.87945,447.16,574.21
45.89903,447.89,571.91
45.91840,453.29,574.72
45.93968,452.20,574.53
45.95918,455.16,576.39
45.97907,453.05,575.40
45.99883,455.52,575.87
46.01954,456.40,574.94
46.03835,452.43,576.37
46.05932,456.88,575.81
46.07857,456.70,575.13
46.09905,457.97,574.81
46.11828,458.75,575.71
46.13934,455.71,576.63
46.15905,457.44,574.40
46.17898,459.14,574.37
46.19814,458.36,573.78
46.21888,460.25,575.79
46.23851,459.72,574.37
46.25841,462.29,573.13
46.27830,460.98,574.03
46.29858,461.41,573.74
46.31935,459.73,573.03
46.33818,461.68,574.38
46.35766,458.39,576.76
46.37786,459.73,577.83
46.39805,461.76,575.29
46.41786,462.04,577.23
46.43843,461.27,576.34
46.45907,461.34,576.44
46.47960,458.96,578.20
46.49897,457.53,576.25
46.51900,459.66,579.04
46.53970,461.38,575.74
46.55800,459.63,577.69
46.57853,459.89,574.44
46.59843,460.94,577.34
46.61795,461.38,575.88
46.63851,458.89,576.08
46.65865,461.65,574.06
46.67824,460.37,577.18
46.69864,460.52,576.78
46.71794,460.55,574.54
46.73824,460.21,575.03
46.75793,459.35,577.32
46.77901,462.20,577.86
46.79965,460.92,576.66
46.81927,462.20,578.63
46.83917,459.31,577.48
46.85861,461.86,578.40
46.87840,460.53,578.06
46.89821,461.08,577.41
46.91965,461.32,580.81
46.93805,462.68,581.04
46.95945,461.75,578.06
46.97863,462.03,577.53
46.99884,461.76,579.59
47.01891,463.41,581.20
47.03895,463.94,581.92
47.05848,463.83,578.74
47.07767,461.24,581.49
47.09948,460.61,581.66
47.11907,461.93,579.52
47.13933,460.38,584.47
47.15976,461.83,580.19
47.17926,456.30,571.25
47.19790,451.25,559.93
47.21801,446.89,549.47
47.23883,441.85,541.18
47.25970,439.07,537.24
47.27876,437.42,532.88
47.29848,438.61,535.00
47.31835,438.35,534.43
47.33857,440.74,537.28
47.35863,444.53,540.01
47.37881,445.73,544.39
47.39908,447.63,548.89
47.41896,449.63,552.54
47.43806,448.82,553.56
47.45945,452.70,556.10
47.47791,455.12,561.45
47.49899,457.42,563.86
47.51905,459.06,569.06
47.53904,457.72,572.26
47.55928,459.77,580.04
47.57924,463.57,595.64
47.59852,472.88,614.75
47.61983,480.39,641.90
47.63791,491.57,661.56
47.65847,498.33,681.02
