Program Time [s],data 0,data 1
49.61454,416.48,547.78
49.63507,416.70,545.42
49.65588,417.95,544.37
49.67550,417.25,544.48
49.69562,418.14,543.31
49.71534,415.79,544.13
49.73518,412.56,542.60
49.75432,414.27,541.48
49.77452,414.18,544.73
49.79569,414.25,541.76
49.81453,415.32,539.38
49.83559,416.13,538.67
49.85487,415.16,540.35
49.87497,416.41,538.02
49.89421,415.25,536.29
49.91603,415.45,537.75
49.93537,413.21,538.41
49.95576,416.04,539.47
49.97468,416.39,539.13
49.99485,415.46,540.42
50.01760,414.56,538.95
50.03713,410.91,536.38
50.05588,411.76,536.82
50.07578,412.49,539.47
50.09548,413.39,535.26
50.11551,410.35,536.10
50.13555,414.05,534.42
50.15691,411.90,536.55
50.17652,411.46,535.62
50.19576,415.13,536.64
50.21732,413.02,536.07
50.23696,411.24,536.46
50.25627,412.17,537.28
50.27594,411.93,537.81
50.29591,411.08,535.72
50.31678,413.01,536.18
50.33730,410.52,535.97
50.35562,410.66,540.03
50.37534,410.92,536.92
50.39612,412.00,537.11
50.41717,414.56,535.86
50.43642,411.80,538.01
50.45585,410.81,538.02
50.47709,411.74,536.77
50.49711,403.20,534.56
50.51557,387.91,525.43
50.53542,371.81,520.81
50.55578,357.23,515.04
50.57726,342.83,509.84
50.59626,328.23,499.88
50.61669,314.40,495.77
50.63707,303.87,489.46
50.65721,303.05,484.50
50.67610,300.18,480.08
50.69745,299.57,480.12
50.71784,303.34,479.70
50.73725,304.58,479.47
50.75782,309.08,486.09
50.77711,317.46,488.09
50.79768,325.19,493.05
50.81786,334.12,496.05
50.83751,341.84,501.80
50.85730,348.63,504.90
50.87783,352.67,509.12
50.89795,361.07,511.67
50.91702,367.33,515.65
50.93648,368.74,517.33
50.95724,374.64,518.37
50.97677,379.41,524.02
50.99748,381.09,525.68
51.01748,386.26,525.59
51.03729,387.97,528.49
51.05810,390.67,532.42
51.07782,393.98,533.24
51.09701,396.44,534.52
51.11674,399.90,536.99
51.13781,401.32,536.20
51.15686,400.64,536.26
51.17699,402.85,535.69
51.19646,403.57,535.90
51.21626,402.40,531.57
51.23654,402.14,530.83
51.25658,403.47,528.77
51.27678,405.99,528.50
51.29791,406.66,525.43
51.31812,407.67,528.19
51.33787,407.26,524.71
51.35708,413.10,530.61
51.37702,424.21,540.18
51.39768,443.89,549.17
51.41740,459.54,561.30
51.43767,482.60,573.43
51.45721,501.51,580.98
51.47837,517.00,592.80
51.49840,531.42,598.65
51.51898,532.84,597.77
51.53824,531.25,594.27
51.55866,523.36,590.23
51.57910,516.64,584.72
51.59880,508.37,580.49
51.61862,497.45,573.05
51.63980,486.60,570.42
51.65935,479.15,563.99
51.67925,470.68,559.95
51.70061,458.22,556.07
51.72027,455.04,554.99
51.73948,447.12,549.15
51.75923,440.52,548.29
51.78070,435.76,545.22
51.80161,432.40,545.83
51.82170,426.50,543.76
51.84222,421.70,542.01
51.86039,417.66,541.57
51.88073,413.76,540.14
51.90181,412.65,540.57
51.92160,410.90,540.13
51.94202,408.55,539.40
51.96192,410.01,542.59
51.98093,409.09,543.19
52.00079,405.45,547.43
52.02109,403.47,550.70
52.04043,401.72,550.77
52.06054,402.02,548.99
52.08063,401.53,548.64
52.10140,401.60,546.43
52.12127,403.08,548.85
52.14213,399.16,545.83
52.16215,402.02,545.88
52.18168,399.77,545.75
52.20081,398.98,546.24
52.22055,403.66,545.61
52.24124,400.87,541.70
52.26027,401.26,540.83
52.28166,403.00,539.08
52.30187,399.01,539.77
52.32144,398.94,538.43
52.34230,401.73,537.07
52.36199,402.68,538.93
52.38039,399.47,539.19
52.40018,402.25,537.08
52.42178,400.91,539.59
52.44140,400.62,536.62
52.46138,402.63,539.54
52.48190,400.79,537.18
52.50100,399.28,537.43
52.52128,400.90,535.38
52.54176,400.02,536.39
52.56117,402.62,533.71
52.58184,400.72,532.10
52.60150,400.57,533.60
52.62131,401.92,535.01
52.64079,398.78,533.76
52.66225,398.18,532.85
52.68132,398.20,532.80
52.70187,399.30,536.73
52.72184,397.76,534.21
52.74087,400.97,535.55
52.76112,397.68,536.47
52.78135,397.57,534.40
52.80128,397.42,534.08
52.82078,401.12,535.95
52.84133,397.52,533.97
52.86219,397.80,532.92
52.88166,398.47,531.19
52.90218,400.55,532.87
52.92129,400.65,535.25
52.94087,399.12,534.52
52.96035,400.10,533.30
52.98088,399.13,536.42
53.00049,398.68,532.90
53.02188,401.60,536.66
53.04198,400.19,537.69
53.06012,398.89,537.69
53.08129,398.78,538.15
53.10203,398.16,538.89
53.12137,400.50,536.69
53.14153,400.12,538.37
53.16090,400.72,537.17
53.18191,397.72,537.67
53.20053,398.13,537.64
53.22134,398.72,535.44
53.24159,401.67,533.76
53.26027,397.98,537.31
53.28074,398.64,537.60
53.30136,400.49,533.35
53.32031,400.97,536.00
53.34183,401.84,535.75
53.36123,403.06,534.65
53.38033,400.82,533.06
53.40151,401.80,535.98
53.42120,403.45,536.94
53.44063,403.45,534.29
53.46173,400.73,535.88
53.48107,399.75,532.40
53.50065,402.14,532.57
53.52067,402.04,533.32
53.54215,399.37,529.70
53.56178,401.31,532.69
53.58031,398.82,531.47
53.60228,397.65,529.94
53.62192,400.24,527.15
53.64114,401.78,527.06
53.66137,399.44,524.10
53.68043,400.04,524.47
53.70095,399.01,524.26
53.72039,399.48,526.03
53.74175,401.29,526.41
53.76112,398.82,529.16
53.78160,401.31,529.75
53.80227,400.87,531.65
53.82025,399.50,532.08
53.84190,397.18,532.06
53.86201,398.37,532.29
53.88177,398.26,532.55
53.90281,397.97,532.96
53.92124,398.93,533.20
53.94250,401.28,531.84
53.96301,400.70,532.72
53.98309,401.58,531.06
54.00313,400.06,530.90
54.02184,401.89,535.31
54.04186,400.57,534.10
54.06228,401.61,535.15
54.08208,398.68,533.89
54.10262,397.05,533.33
54.12168,388.41,531.18
54.14233,374.78,525.49
54.16173,360.09,518.19
54.18228,341.32,509.89
54.20228,327.86,505.15
54.22181,313.83,498.96
54.24270,304.54,493.28
54.26191,299.22,485.86
54.28133,293.08,483.16
54.30243,291.64,479.55
54.32125,295.60,476.17
54.34285,300.33,478.66
54.36287,303.24,481.00
54.38266,309.88,486.29
54.40289,316.16,492.92
54.42378,326.07,498.23
54.44291,330.57,504.56
54.46317,338.12,508.70
54.48337,345.72,512.25
54.50356,350.58,517.58
54.52325,355.17,518.91
54.54243,363.25,520.72
54.56304,369.18,525.32
54.58287,373.42,525.51
54.60335,378.02,524.86
54.62236,379.18,527.34
54.64372,382.71,529.04
54.66403,386.71,527.54
54.68245,390.08,531.17
54.70333,391.87,533.07
54.72396,393.44,533.24
54.74302,394.63,535.13
54.76323,396.74,534.97
54.78418,397.46,533.09
54.80400,397.83,534.25
54.82233,398.83,535.80
54.84243,399.73,535.30
54.86321,400.43,534.36
54.88369,400.01,533.67
54.90351,401.70,537.88
54.92246,401.34,537.26
54.94376,403.98,534.84
54.96405,404.57,535.14
54.98233,404.23,535.00
55.00352,402.28,535.14
55.02261,404.68,536.71
55.04299,401.25,537.36
55.06241,403.23,536.64
55.08205,403.96,536.09
55.10247,406.75,538.40
55.12285,410.68,543.59
55.14346,425.33,551.04
55.16256,444.68,564.70
55.18260,465.57,580.36
55.20256,488.57,593.03
55.22327,510.25,605.21
55.24200,525.39,609.34
55.26431,538.74,609.83
55.28359,538.82,606.93
55.30350,535.13,601.18
55.32337,527.32,594.01
55.34400,522.76,585.78
55.36266,511.71,575.10
55.38389,501.92,572.19
55.40357,490.21,567.11
55.42315,481.40,565.73
55.44341,470.47,559.02
55.46241,465.56,554.93
55.48305,456.51,551.05
55.50315,449.38,548.80
55.52342,441.26,548.09
55.54371,437.01,547.29
55.56246,435.17,546.13
55.58255,428.80,544.57
55.60319,426.31,543.89
55.62404,421.66,542.97
55.64329,419.23,541.95
55.66266,416.16,541.93
55.68362,412.81,542.42
55.70389,411.43,541.33
55.72296,412.60,539.74
55.74256,409.19,536.20
55.76305,408.05,537.27
55.78532,409.56,535.52
55.80391,406.26,536.21
55.82501,406.88,535.97
55.84476,406.60,534.72
55.86448,407.37,532.82
55.88333,405.45,534.23
55.90423,405.79,535.19
55.92326,408.30,536.35
55.94441,405.08,537.29
55.96476,405.78,534.61
55.98366,404.97,536.48
56.00408,405.42,534.16
56.02504,405.04,534.42
56.04475,406.05,537.74
56.06472,406.82,535.16
56.08473,407.59,534.82
56.10435,410.75,536.28
56.12478,410.06,534.97
56.14489,407.88,532.23
56.16348,409.13,532.84
56.18410,410.35,536.48
56.20478,410.58,536.25
56.22384,407.30,531.93
56.24360,406.24,530.71
56.26505,407.16,529.74
56.28439,406.35,526.03
56.30384,408.06,527.17
56.32444,406.82,526.44
56.34480,407.92,524.98
56.36462,407.61,525.87
56.38333,407.67,527.14
56.40505,410.05,528.55
56.42493,407.11,530.70
56.44501,407.19,531.98
56.46434,407.71,530.74
56.48456,409.65,533.89
56.50387,409.23,535.90
56.52347,407.75,536.71
56.54352,409.68,534.64
56.56476,409.81,537.14
56.58507,409.22,535.82
56.60343,407.91,538.44
56.62377,408.91,534.43
56.64445,411.29,536.30
56.66492,410.81,535.18
56.68470,408.90,539.40
56.70408,408.99,537.21
56.72406,408.61,537.28
56.74499,406.08,538.00
56.76338,407.40,538.28
56.78376,404.88,538.39
56.80457,404.75,542.37
56.82447,404.00,541.95
56.84346,405.22,546.04
56.86443,405.56,545.06
56.88378,406.28,545.98
56.90358,405.23,544.84
56.92330,405.01,546.89
56.94336,407.52,544.99
56.96357,405.27,544.19
56.98325,405.79,544.34
57.00387,406.32,542.45
57.02486,409.33,541.88
57.04365,408.46,543.38
57.06337,407.47,542.46
57.08421,406.70,539.17
57.10466,406.10,540.64
57.12384,406.97,537.25
57.14314,407.31,538.28
57.16427,407.43,535.87
57.18385,408.00,537.74
57.20330,407.15,535.54
57.22465,404.46,534.41
57.24449,405.97,536.66
57.26480,407.56,535.53
57.28411,408.49,533.19
57.30418,410.20,535.09
57.32379,408.42,534.67
57.34317,408.18,533.45
57.36444,409.43,533.43
57.38362,409.46,533.37
57.40480,409.80,533.74
57.42496,410.11,533.64
57.44476,408.22,533.24
57.46388,410.45,532.39
57.48431,410.93,530.14
57.50474,411.57,530.63
57.52602,409.81,529.33
57.54722,412.81,530.49
57.56533,413.34,532.62
57.58578,414.08,529.94
57.60538,413.44,529.46
57.62555,414.66,529.80
57.64503,414.76,531.22
57.66640,414.23,529.71
57.68771,415.69,530.59
57.70864,417.31,531.23
57.72880,415.47,531.79
57.74914,415.43,535.14
57.76864,413.07,536.08
57.78903,414.42,536.04
57.80942,415.00,535.52
57.82986,416.61,533.33
57.84968,415.09,535.02
57.86898,413.71,535.46
57.88821,417.64,535.81
57.90869,416.62,534.76
57.92957,416.76,533.92
57.94965,415.37,532.05
57.96821,418.35,530.68
57.98954,417.33,532.95
58.00884,414.47,533.23
58.02833,415.18,531.43
58.04960,418.19,532.00
58.06960,417.23,534.98
58.08921,417.33,533.24
58.10855,416.22,532.31
58.12949,419.43,534.37
58.14837,420.48,533.72
58.16824,418.98,534.49
58.18843,421.50,537.73
58.20969,415.25,533.65
58.23003,403.32,536.08
58.24923,386.78,535.39
58.26926,369.26,536.73
58.28995,351.69,533.27
58.30876,338.33,527.70
58.32913,324.96,519.54
58.35043,313.35,510.42
58.36864,306.90,495.18
58.38905,308.52,483.05
58.40828,307.58,471.81
58.42807,310.21,464.52
58.44888,313.69,461.04
58.47004,317.85,463.77
58.48929,326.30,463.57
58.50869,333.33,468.17
58.52989,337.98,474.37
58.54848,345.14,478.74
58.57012,353.81,485.37
58.58971,363.16,488.96
58.60959,366.63,495.80
58.62986,374.15,498.29
58.65007,378.65,506.63
58.66853,384.66,509.38
58.68954,389.07,511.05
58.70825,393.96,513.58
58.72878,397.60,517.33
58.74974,399.37,521.36
58.76900,401.47,522.69
58.78891,402.22,526.82
58.80865,404.16,525.91
58.82975,405.39,530.00
58.84836,405.00,528.41
58.86847,410.35,529.67
58.88918,411.81,532.64
58.90842,409.72,534.75
58.92902,412.99,531.25
58.94966,411.01,531.15
58.96909,411.77,531.74
58.98850,415.59,532.76
59.00942,413.43,531.82
59.02847,416.97,530.99
59.04838,416.35,532.04
59.06924,418.08,529.99
59.08940,418.67,527.96
59.10844,419.61,526.62
59.12961,426.85,528.75
59.14907,437.27,537.84
59.17006,450.63,551.68
59.18815,470.39,565.77
59.20965,492.93,578.90
59.22857,514.57,590.28
59.24822,535.69,598.30
59.27005,549.13,601.57
59.28993,555.69,602.54
59.30865,554.67,597.38
59.32835,546.37,590.74
59.34835,542.29,584.81
59.36992,530.09,578.82
59.38955,519.85,571.49
59.40871,509.99,565.88
59.42893,500.32,560.73
59.44993,488.51,560.75
59.46872,481.77,556.05
59.48919,474.90,552.96
59.50961,464.69,549.70
59.52975,458.60,550.34
59.54936,453.36,545.72
59.56958,449.07,545.76
59.58882,445.37,546.14
59.60966,441.28,542.54
59.62954,436.53,540.67
59.64943,435.74,539.64
59.66896,436.04,540.37
59.68976,433.09,541.87
59.70963,431.26,539.56
59.73012,427.92,539.72
59.74971,426.48,537.55
59.76874,424.31,539.36
59.78839,423.82,541.07
59.80870,422.18,539.13
59.82904,423.76,538.85
59.84953,421.85,540.67
59.86899,421.10,545.57
59.88935,421.06,544.36
59.90954,420.96,547.43
59.92866,422.57,547.12
59.94969,421.91,548.08
59.96960,420.04,547.35
59.98941,420.68,548.86
60.00881,421.47,548.62
60.03020,419.08,550.20
60.05092,417.99,549.34
60.07092,418.35,546.71
60.08960,418.48,548.30
60.10965,419.92,547.74
60.13139,418.61,543.85
60.15027,421.10,544.22
60.17035,419.16,544.59
60.19025,416.44,545.17
60.21048,419.31,541.46
60.22907,416.15,542.62
60.24991,417.84,541.27
60.27058,419.35,539.37
60.28934,418.97,539.33
60.31093,418.72,538.93
60.33097,418.99,540.02
60.35026,416.05,538.97
60.37111,416.99,538.99
60.39042,417.29,537.03
60.41022,419.04,537.70
60.43109,419.57,539.59
60.45057,418.49,537.51
60.47064,416.54,538.36
60.48964,416.19,538.28
60.51108,416.68,540.30
60.52960,415.86,540.87
60.54969,417.03,539.51
60.57025,416.64,537.51
60.59112,415.55,538.64
60.60942,415.40,538.84
60.62972,417.62,536.76
60.65066,418.96,535.17
60.67031,416.97,537.38
60.69091,415.48,536.48
60.70943,417.46,536.64
60.73146,416.82,536.23
60.75187,415.09,532.03
60.77035,417.55,534.34
60.79012,414.91,536.33
60.81109,411.78,534.94
60.83192,413.83,534.22
60.85066,416.08,535.14
60.87057,416.90,533.28
60.89052,415.18,536.57
60.91015,418.38,535.53
60.93159,417.62,538.47
60.95177,417.85,538.73
60.97134,417.41,537.16
60.99110,416.44,538.06
61.01140,416.86,538.03
61.03191,412.55,535.28
61.05146,414.52,535.87
61.07123,412.07,533.64
61.09305,411.85,536.10
61.11299,410.99,534.90
61.13108,412.35,534.18
61.15249,408.75,536.16
61.17213,407.72,535.67
61.19191,408.93,537.52
61.21249,409.81,538.21
61.23149,408.53,535.77
61.25260,408.86,537.01
61.27125,411.03,538.12
61.29168,411.22,537.77
61.31199,411.07,535.80
61.33234,411.39,536.03
61.35296,411.30,534.97
61.37104,409.74,534.29
61.39281,410.54,536.94
61.41230,408.27,535.92
61.43274,409.29,537.11
61.45277,412.08,535.36
61.47137,409.73,537.20
61.49306,410.00,534.27
61.51262,411.35,536.47
61.53279,411.10,534.24
61.55135,410.76,533.79
61.57164,409.98,533.23
61.59300,411.44,534.15
61.61282,410.27,537.03
61.63237,410.62,536.47
61.65151,410.98,538.22
61.67302,408.29,537.77
61.69269,409.96,539.33
61.71254,409.55,539.87
61.73135,400.11,538.29
61.75262,387.39,537.35
61.77221,368.31,539.56
61.79191,347.85,536.52
61.81222,331.29,532.37
61.83124,317.10,522.40
61.85214,309.71,514.82
61.87155,303.11,504.48
61.89138,296.59,495.44
61.91178,295.60,484.34
61.93092,296.30,478.50
61.95127,300.46,472.39
61.97119,303.62,470.71
61.99258,310.06,471.26
62.01178,316.08,473.71
62.03210,323.35,476.75
62.05214,330.57,481.65
62.07226,338.80,485.06
62.09127,345.54,492.79
62.11122,356.44,496.98
62.13121,362.85,500.89
62.15186,367.11,506.61
62.17146,374.92,508.37
62.19181,377.83,513.11
62.21141,381.92,515.30
62.23143,386.01,517.34
62.25234,389.97,520.77
62.27287,392.35,522.52
62.29165,394.50,524.23
62.31226,397.56,525.11
62.33119,400.12,521.67
62.35110,400.44,522.31
62.37182,402.82,521.31
62.39126,405.89,521.77
62.41137,404.55,521.71
62.43211,404.77,523.28
62.45263,407.71,523.84
62.47211,407.00,524.41
62.49132,405.40,528.18
62.51151,407.63,528.83
62.53110,418.73,537.03
62.55114,433.21,547.05
62.57156,449.73,555.36
62.59246,472.01,565.50
62.61230,494.44,576.14
62.63205,513.54,588.00
62.65119,531.39,595.51
62.67305,543.70,600.95
62.69166,550.62,601.33
62.71085,547.74,594.35
62.73253,539.89,589.96
62.75239,531.90,585.27
62.77197,520.87,577.27
62.79150,512.22,571.52
62.81298,497.87,566.98
62.83287,488.42,561.81
62.85168,478.61,558.56
62.87280,471.65,554.92
62.89279,461.66,551.82
62.91183,454.44,550.38
62.93273,448.39,548.15
62.95163,442.85,543.37
62.97150,439.28,543.37
62.99234,435.52,539.29
63.01288,432.20,538.19
63.03260,428.06,538.59
63.05124,425.00,538.90
63.07135,423.55,537.44
63.09158,417.88,537.80
63.11239,420.38,538.04
63.13267,414.29,538.39
63.15226,414.19,539.75
63.17224,416.95,536.45
63.19121,415.36,538.56
63.21138,413.82,541.71
63.23267,415.08,544.62
63.25243,411.94,544.55
63.27098,413.20,546.25
63.29105,409.79,545.30
63.31218,409.66,544.27
63.33187,408.91,543.37
63.35123,407.77,548.27
63.37221,406.41,545.66
63.39288,407.41,544.49
63.41134,407.33,543.70
63.43211,407.72,542.16
63.45145,409.81,542.44
63.47267,407.17,545.14
63.49251,410.86,542.74
63.51114,410.53,539.71
63.53112,410.24,538.94
63.55190,407.65,538.96
63.57233,410.30,541.78
63.59138,406.88,538.86
63.61234,408.57,538.80
63.63270,405.37,540.12
63.65101,405.60,537.07
63.67212,410.63,540.28
63.69121,406.90,537.09
63.71270,406.64,537.41
63.73153,409.52,538.99
63.75229,408.61,535.75
63.77209,409.45,537.19
63.79220,407.60,536.07
63.81223,406.90,537.24
63.83168,409.53,536.24
63.85161,408.06,538.73
63.87274,407.47,535.60
63.89106,409.15,539.85
63.91207,405.97,538.70
63.93220,407.75,539.17
63.95199,410.05,537.77
63.97145,410.03,535.65
63.99198,409.32,534.43
64.01202,409.16,537.62
64.03138,410.53,536.31
64.05275,410.86,536.42
64.07289,410.24,538.64
64.09191,408.93,539.11
64.11244,410.17,536.26
64.13291,407.32,539.35
64.15379,406.15,535.92
64.17413,405.13,538.16
64.19391,405.54,540.28
64.21540,403.97,539.53
64.23470,406.00,537.27
64.25441,406.12,540.89
64.27484,405.25,540.09
64.29441,405.33,538.18
64.31489,402.27,537.61
64.33497,403.68,535.36
64.35460,403.50,536.44
64.37459,402.75,536.30
64.39522,403.07,536.08
64.41437,400.82,536.50
64.43573,402.82,535.02
64.45565,400.19,536.49
64.47568,401.01,536.15
64.49511,399.20,538.80
64.51555,401.65,535.83
64.53545,401.21,537.29
64.55455,399.05,537.87
64.57525,400.66,535.81
64.59471,400.87,536.86
64.61538,399.34,535.40
64.63532,399.02,536.04
64.65403,398.97,536.38
64.67419,400.20,538.37
64.69402,398.63,536.61
64.71413,398.76,537.05
64.73424,401.16,536.37
64.75413,401.05,537.66
64.77480,402.00,537.21
64.79663,399.93,537.19
64.81600,401.99,535.15
64.83601,402.91,537.69
64.85509,401.65,537.48
64.87637,401.34,536.16
64.89598,401.83,538.64
64.91674,400.79,535.55
64.93783,400.69,536.04
64.95715,400.38,534.52
64.97724,404.23,536.56
64.99728,401.71,536.46
65.01808,404.08,535.42
65.03713,398.76,531.05
65.05864,387.13,524.96
65.07709,367.79,519.03
65.09700,347.95,515.09
65.11764,331.20,510.30
65.13842,315.46,503.93
65.15761,303.26,502.64
65.17840,296.79,494.43
65.19731,289.69,493.79
65.21781,288.06,486.66
65.23863,287.31,485.41
65.25862,292.03,485.05
65.27717,295.40,480.18
65.29732,303.06,481.94
65.31745,307.89,484.59
65.33750,316.78,486.54
65.35702,322.52,490.36
65.37755,331.45,493.35
65.39758,337.33,494.30
65.41704,343.81,499.95
65.43867,350.37,505.26
65.45839,358.76,506.77
65.47695,361.78,510.62
65.49841,368.27,511.99
65.51880,372.38,517.39
65.53846,377.70,518.57
65.55841,379.72,521.87
65.57843,382.20,522.94
65.59858,386.88,524.47
65.61805,385.81,524.92
65.63735,388.52,526.64
65.65756,390.74,528.51
65.67743,402.09,535.44
65.69749,421.32,545.78
65.71791,444.49,562.73
65.73751,470.44,578.11
65.75777,499.03,587.17
65.77822,520.70,594.69
65.79781,537.48,599.17
65.81788,541.88,593.67
65.83866,544.89,588.87
65.85874,539.18,583.79
65.87687,529.63,576.27
65.89713,520.52,570.76
65.91715,508.97,565.87
65.93789,496.08,561.56
65.95880,485.86,559.86
65.97824,476.23,556.93
65.99889,470.51,551.97
66.01943,459.21,548.69
66.03840,455.16,549.59
66.05801,448.08,548.93
66.07934,443.74,545.12
66.09813,437.45,543.74
66.11905,434.64,543.42
66.13971,427.61,542.87
66.15922,427.31,543.62
66.17872,422.35,539.85
66.19991,420.93,539.55
66.21785,418.75,538.11
66.23919,418.43,538.54
66.25820,415.37,538.71
66.27790,412.47,536.33
66.29979,410.59,538.04
66.31916,410.83,535.99
66.33979,408.71,536.65
66.35956,409.52,534.21
66.37904,409.96,536.51
66.39884,410.01,534.05
66.41814,406.65,532.33
66.43973,408.32,536.69
66.45797,407.61,535.22
66.47811,404.74,534.72
66.49835,406.79,535.17
66.51852,407.59,534.66
66.53846,406.50,534.71
66.55903,406.44,532.61
66.57827,406.66,536.29
66.59879,408.92,537.61
66.61983,407.63,536.08
66.63983,408.59,536.52
66.65824,406.38,533.18
66.67871,406.01,536.14
66.69854,405.90,535.13
66.71845,405.87,532.22
66.73840,408.00,534.40
66.75836,403.88,532.91
66.77852,403.09,532.63
66.79895,406.04,535.09
66.81839,404.60,534.86
66.83821,405.09,531.50
66.85808,405.34,534.35
66.87846,406.86,534.62
66.89958,406.90,535.88
66.91798,406.00,534.62
66.93853,405.35,535.17
66.95919,407.36,535.68
66.97853,405.70,534.66
66.99838,407.96,534.78
67.01976,407.37,535.73
67.03823,404.99,536.28
67.05907,405.99,534.46
67.07855,406.81,533.65
67.09820,403.22,534.83
67.11864,406.30,537.00
67.13836,405.17,534.73
67.15807,409.54,537.26
67.17785,410.32,533.29
67.19890,412.31,536.82
67.21828,411.70,535.63
67.23798,407.44,536.88
67.25802,409.61,534.56
67.27813,408.39,534.78
67.29826,408.76,536.32
67.31899,405.43,537.36
67.33903,406.93,538.20
67.35775,406.86,538.27
67.37946,408.02,534.67
67.39856,405.76,534.94
67.41795,409.32,534.22
67.43861,407.98,536.75
67.45827,407.75,536.77
67.47885,408.10,535.42
67.49801,406.66,536.32
67.51884,405.44,536.28
67.53957,403.69,532.26
67.55806,405.81,531.12
67.57926,403.48,526.13
67.59990,405.61,525.13
67.61868,406.30,524.56
67.63822,404.92,526.71
67.65817,408.34,524.83
67.67807,410.78,526.74
67.69979,409.45,528.98
67.71843,410.20,526.38
67.73891,409.00,529.17
67.75804,406.36,528.88
67.77873,405.54,530.88
67.79873,403.97,531.40
67.81906,406.22,532.45
67.83961,406.04,529.91
67.85875,403.83,531.66
67.87796,406.01,531.97
67.89844,406.77,531.84
67.91842,405.82,533.73
67.93788,403.68,531.36
67.95870,404.15,534.99
67.97935,403.09,534.60
67.99941,407.56,531.71
68.01861,404.28,534.00
68.03910,406.26,534.39
68.05942,405.68,530.32
68.07847,406.74,533.17
68.09793,408.73,533.62
68.11879,407.07,530.05
68.13862,405.35,533.12
68.15820,406.66,532.33
68.17832,406.31,533.01
68.19866,403.95,534.37
68.21911,408.19,531.50
68.23946,405.88,532.66
68.25796,406.88,531.37
68.27950,407.02,532.48
68.29854,407.99,533.41
68.31833,406.87,534.65
68.33930,405.83,530.70
68.35869,406.11,533.22
68.37918,405.20,532.38
68.39909,407.06,533.53
68.41824,407.14,533.49
68.43956,407.06,534.12
68.45952,400.20,529.03
68.47848,386.27,524.38
68.49810,364.53,520.26
68.51920,348.32,521.51
68.53961,330.75,516.45
68.55857,315.55,512.95
68.57876,302.78,501.59
68.59890,295.77,494.39
68.61858,289.52,488.14
68.63895,291.71,481.06
68.65954,293.49,478.84
68.67833,294.83,476.19
68.69979,302.54,478.24
68.71830,308.42,483.46
68.73933,313.41,488.83
68.75976,322.33,494.52
68.77950,330.17,497.60
68.79873,335.98,503.73
68.81871,342.16,508.81
68.83921,350.36,510.37
68.85921,355.51,515.94
68.87824,361.29,519.82
68.89805,367.82,519.61
68.91926,374.04,523.50
68.93856,376.43,525.82
68.95835,379.95,526.29
68.97943,386.27,525.74
68.99862,385.39,526.81
69.01997,387.10,527.66
69.03946,392.35,532.15
69.05852,392.43,530.85
69.07947,397.05,530.31
69.09830,397.02,533.62
69.11974,399.58,533.87
69.13892,397.91,532.88
69.15931,397.44,534.05
69.17950,400.47,530.70
69.19876,402.51,530.05
69.21793,403.54,533.59
69.23826,409.15,532.75
69.25850,422.71,536.59
69.27961,440.82,546.11
69.29863,463.75,554.44
69.31810,487.65,565.16
69.33948,515.08,573.09
69.35897,532.13,582.42
69.37853,544.67,587.70
69.39879,549.36,586.32
69.41849,544.18,586.02
69.43863,539.08,584.33
69.45918,528.84,578.63
69.47910,518.02,574.49
69.49790,506.51,569.37
69.51823,498.73,567.12
69.53922,487.14,564.92
69.55820,479.08,560.50
69.57932,471.44,558.54
69.60013,460.80,555.09
69.62035,456.89,555.03
69.63927,448.86,551.99
69.66023,444.57,549.14
69.67937,439.95,545.84
69.69952,433.22,545.49
69.72024,432.24,543.64
69.73952,429.40,541.83
69.75958,425.52,542.77
69.77990,426.24,540.67
69.80058,420.42,539.73
69.82046,420.54,541.33
69.83983,419.22,537.88
69.86038,415.53,538.99
69.87945,416.61,541.19
69.90029,413.70,540.54
69.92004,413.06,538.14
69.93918,414.84,537.57
69.96069,413.42,540.00
69.97988,411.95,540.12
70.00071,412.16,535.72
70.02021,412.33,537.57
70.04024,411.21,534.62
70.06088,415.12,536.18
70.07933,414.83,533.95
70.10005,415.83,533.50
70.11874,414.27,534.82
70.14023,414.54,534.75
70.16061,412.23,535.95
70.18064,410.59,534.73
70.20079,411.25,535.34
70.21924,413.26,533.97
70.23953,411.79,532.29
70.25961,410.39,532.53
70.27986,412.33,533.43
70.30083,414.85,534.48
70.32133,412.40,534.35
70.34121,413.32,536.06
70.36127,413.12,534.53
70.38086,416.68,534.70
70.40045,417.45,533.53
70.42143,416.69,534.27
70.44177,419.01,536.29
70.46002,416.70,533.84
70.48142,417.04,534.94
70.50056,414.37,534.25
70.52043,415.23,535.42
70.54154,416.22,535.79
70.56161,416.38,535.54
70.58032,414.61,535.48
70.60169,413.78,535.24
70.62166,414.17,533.29
70.64182,416.43,534.28
70.66212,416.35,534.91
70.68199,414.67,533.22
70.70152,412.83,534.83
70.72129,416.30,536.27
70.74244,413.52,534.43
70.76093,415.13,533.89
70.78252,415.32,536.45
70.80251,414.64,533.84
70.82165,414.04,535.34
70.84199,417.12,533.78
70.86145,416.16,533.78
70.88104,415.73,533.34
70.90128,415.47,534.54
70.92185,417.98,535.37
70.94247,418.16,534.00
70.96091,417.70,535.17
70.98098,415.02,532.84
71.00161,414.72,533.87
71.02236,414.31,533.23
71.04254,415.16,534.26
71.06160,414.22,534.44
71.08241,414.84,535.55
71.10165,414.23,532.99
71.12221,416.34,535.55
71.14275,416.27,535.55
71.16193,414.04,534.11
71.18144,417.91,535.43
71.20114,415.93,535.19
71.22098,418.12,535.66
71.24221,419.10,535.68
71.26201,417.54,535.86
71.28248,421.92,535.34
71.30219,420.77,537.01
71.32086,419.46,535.80
71.34277,419.93,538.81
71.36219,417.08,537.44
71.38229,416.91,535.57
71.40249,417.24,537.02
71.42253,417.31,534.82
71.44162,419.45,535.04
71.46245,415.56,537.02
71.48138,417.93,537.91
71.50180,418.55,536.61
71.52252,418.38,537.20
71.54261,419.60,535.59
71.56241,420.55,536.05
71.58242,417.99,535.45
71.60274,419.31,532.92
71.62286,418.29,535.59
71.64274,418.90,532.40
71.66240,418.91,534.09
71.68228,419.56,533.76
71.70275,417.67,533.75
71.72109,421.19,535.04
71.74257,420.56,534.78
71.76246,419.53,534.54
71.78200,421.31,535.18
71.80121,422.12,533.60
71.82211,419.76,534.56
71.84229,422.47,536.31
71.86251,422.53,534.18
71.88229,423.16,536.61
71.90198,421.34,536.04
71.92185,418.62,538.20
71.94190,419.90,535.18
71.96214,419.47,535.20
71.98128,418.51,535.53
72.00258,420.53,531.65
72.02226,416.17,531.41
72.04194,406.27,526.03
72.06244,389.45,515.96
72.08180,372.80,511.80
72.10211,353.62,504.26
72.12159,334.25,501.64
72.14169,321.03,491.63
72.16183,311.58,489.12
72.18185,302.17,485.42
72.20101,297.61,483.29
72.22219,299.19,481.52
72.24143,300.74,483.95
72.26120,304.45,486.89
72.28080,311.80,487.51
72.30227,317.13,491.87
72.32127,323.70,494.18
72.34200,332.81,497.84
72.36100,343.62,503.86
72.38169,352.55,507.26
72.40242,361.35,509.45
72.42268,365.29,511.11
72.44237,373.82,513.24
72.46117,377.20,517.34
72.48238,385.75,516.82
72.50195,390.27,519.43
72.52122,392.51,522.55
72.54082,398.20,524.21
72.56251,401.53,524.67
72.58210,402.53,528.83
72.60210,402.60,526.86
72.62242,403.79,526.80
72.64147,407.73,530.46
72.66180,407.99,530.29
72.68182,409.69,532.77
72.70103,411.09,534.41
72.72095,413.89,535.09
72.74135,413.16,534.73
72.76159,413.45,535.99
72.78097,416.95,537.27
72.80207,418.29,535.86
72.82133,417.68,536.36
72.84137,418.41,534.30
72.86071,414.79,535.57
72.88094,417.20,536.67
72.90108,428.14,541.97
72.92252,449.01,549.14
72.94230,470.81,557.80
72.96194,496.16,566.50
72.98184,515.02,574.62
73.00083,535.03,579.99
73.02157,548.20,582.82
73.04114,550.11,583.52
73.06245,547.80,580.86
73.08178,543.73,574.81
73.10258,536.05,570.42
73.12182,525.65,569.12
73.14188,515.65,563.84
73.16141,506.38,561.51
73.18193,494.78,556.52
73.20095,489.44,554.36
73.22127,477.98,553.99
73.24179,473.09,548.82
73.26098,465.44,548.41
73.28201,458.87,546.87
73.30104,453.15,546.31
73.32083,448.77,545.26
73.34278,445.76,542.01
73.36197,443.31,542.99
73.38181,436.59,542.58
73.40118,434.84,538.95
73.42207,432.48,537.94
73.44206,430.33,539.98
73.46157,429.21,538.96
73.48256,427.58,537.36
73.50162,424.22,539.60
73.52238,426.25,537.91
73.54247,426.47,539.29
73.56069,422.13,538.49
73.58202,420.71,538.47
73.60237,422.54,539.56
73.62216,418.87,539.21
73.64199,422.46,538.59
73.66089,420.61,539.74
73.68274,419.02,538.08
73.70060,419.66,539.98
73.72076,417.79,539.00
73.74152,419.49,536.17
73.76103,420.40,540.12
73.78252,418.73,540.80
73.80140,420.79,538.04
73.82153,421.66,540.08
73.84097,419.53,538.49
73.86168,422.14,537.64
73.88202,422.53,538.62
73.90277,421.32,538.28
73.92272,419.43,539.75
73.94146,420.25,539.47
73.96215,422.78,537.12
73.98142,421.48,536.75
74.00271,420.23,537.80
74.02180,422.10,537.65
74.04231,422.31,538.51
74.06249,422.20,539.66
74.08118,421.39,538.93
74.10242,420.68,538.35
74.12106,419.81,540.22
74.14166,420.09,541.93
74.16231,420.82,540.87
74.18208,418.92,538.83
74.20204,423.70,541.41
74.22189,426.61,543.89
74.24230,426.14,544.37
74.26218,427.39,541.73
74.28267,429.24,542.19
74.30255,427.77,544.52
74.32070,430.87,541.63
74.34220,429.78,543.50
74.36115,429.39,539.98
74.38083,425.02,540.78
74.40205,425.61,538.63
74.42234,425.96,540.42
74.44135,423.16,537.36
74.46223,421.49,540.29
74.48248,423.21,538.67
74.50176,422.81,540.09
74.52160,422.84,538.22
74.54109,422.02,537.40
74.56267,423.84,538.12
74.58208,422.03,536.41
74.60111,423.26,537.95
74.62218,422.72,535.27
74.64148,422.98,536.93
74.66126,422.06,532.04
74.68137,421.23,530.46
74.70256,420.78,530.78
74.72098,420.92,528.99
74.74146,419.67,525.90
74.76100,422.49,527.81
74.78197,421.12,526.23
74.80132,419.75,528.04
74.82157,421.00,525.73
74.84229,420.91,525.72
74.86247,419.27,527.13
74.88076,423.13,528.32
74.90069,421.57,528.95
74.92143,421.98,528.63
74.94127,420.03,529.90
74.96234,419.98,529.62
74.98132,419.66,530.72
75.00096,422.86,531.97
75.02136,418.78,534.42
75.04195,420.76,533.27
75.06178,418.57,535.31
75.08181,420.82,534.73
75.10192,419.55,538.22
75.12213,420.16,534.78
75.14255,422.51,535.09
75.16186,422.48,535.60
75.18220,422.42,536.53
75.20270,423.59,537.83
75.22205,420.17,535.71
75.24236,421.27,536.32
75.26094,421.50,536.56
75.28248,419.83,534.98
75.30294,420.47,533.98
75.32313,423.27,537.51
75.34152,422.76,533.72
75.36361,422.33,535.74
75.38311,422.10,534.02
75.40212,419.94,533.83
75.42269,421.83,534.53
75.44288,421.52,536.20
75.46285,417.06,535.96
75.48254,417.00,534.88
75.50332,416.22,535.75
75.52350,418.22,536.21
75.54195,419.02,535.45
75.56179,416.44,537.67
75.58318,418.70,537.20
75.60193,418.74,535.92
75.62277,418.89,535.13
75.64297,417.52,533.92
75.66184,416.08,534.89
75.68254,416.08,533.08
75.70317,413.98,535.42
75.72204,415.25,534.51
75.74297,417.40,533.63
75.76182,419.06,534.49
75.78305,416.94,534.75
75.80338,417.15,533.54
75.82207,416.67,534.87
75.84345,418.05,536.72
75.86348,419.86,533.58
75.88278,418.23,534.95
75.90240,417.96,534.97
75.92231,418.77,534.38
75.94304,418.65,538.55
75.96266,419.92,540.22
75.98243,416.96,536.70
76.00237,416.36,538.65
76.02233,416.73,539.30
76.04221,418.88,538.46
76.06343,416.64,536.24
76.08284,417.57,539.51
76.10177,418.67,537.46
76.12252,415.94,537.91
76.14234,419.21,538.84
76.16267,418.55,542.28
76.18345,419.44,543.69
76.20212,419.87,543.89
76.22247,418.63,543.58
76.24374,418.07,544.37
76.26357,418.02,542.64
76.28330,416.33,544.06
76.30290,417.06,543.85
76.32241,414.83,540.98
76.34334,417.17,544.93
76.36308,414.65,542.92
76.38294,416.48,546.15
76.40299,415.87,545.25
76.42267,415.53,545.03
76.44313,415.96,545.11
76.46348,413.96,543.85
76.48255,414.59,542.73
76.50316,415.10,544.65
76.52247,416.09,543.95
76.54262,414.86,541.78
76.56182,414.60,542.36
76.58189,414.57,541.88
76.60256,414.95,541.34
76.62271,414.47,542.11
76.64220,415.92,538.26
76.66275,418.28,540.19
76.68341,416.99,537.68
76.70257,416.87,538.61
76.72302,414.00,538.18
76.74268,414.00,538.50
76.76369,416.11,538.36
76.78273,409.23,539.18
76.80312,395.03,538.05
76.82242,372.23,543.73
76.84253,353.32,543.60
76.86211,328.69,547.29
76.88175,314.59,545.61
76.90357,301.06,535.64
76.92242,296.69,530.88
76.94204,293.80,523.27
76.96185,291.53,513.75
76.98273,296.03,506.96
77.00210,299.77,504.88
77.02323,304.57,499.33
77.04228,311.52,497.82
77.06251,323.83,495.74
77.08192,332.16,494.36
77.10292,339.52,494.06
77.12213,345.09,494.05
77.14185,350.95,497.51
77.16332,359.53,499.81
77.18290,365.83,502.16
77.20313,371.14,507.23
77.22178,378.89,510.26
77.24279,383.84,513.21
77.26312,388.32,515.98
77.28224,394.30,516.18
77.30330,396.44,518.76
77.32270,398.86,522.22
77.34324,399.11,524.58
77.36356,402.06,526.23
77.38280,403.42,526.85
77.40294,406.37,528.65
77.42232,404.86,528.68
77.44236,409.70,529.68
77.46188,418.01,534.92
77.48198,432.39,541.74
77.50287,457.04,549.36
77.52207,483.57,558.16
77.54303,509.19,568.45
77.56200,532.80,576.22
77.58297,553.20,581.42
77.60367,559.77,583.65
77.62234,562.65,583.37
77.64231,553.46,581.47
77.66210,547.37,575.86
77.68183,533.45,571.92
77.70331,522.46,564.81
77.72305,515.45,563.36
77.74191,502.61,560.79
77.76228,491.26,555.78
77.78223,481.91,551.88
77.80190,476.14,549.40
77.82174,466.06,547.87
77.84289,459.55,547.42
77.86175,454.21,544.71
77.88304,450.13,543.45
77.90202,446.79,542.90
77.92313,443.01,540.38
77.94309,435.44,539.62
77.96211,432.88,537.52
77.98315,432.14,540.17
78.00269,429.08,540.12
78.02305,427.03,537.90
78.04255,423.80,538.05
78.06322,422.34,539.06
78.08198,422.02,536.47
78.10353,420.20,536.63
78.12237,420.86,535.62
78.14313,418.93,536.65
78.16171,418.23,538.59
78.18295,419.47,538.95
78.20264,417.52,540.12
78.22340,416.30,540.45
78.24181,415.85,540.93
78.26218,417.88,538.05
78.28287,417.94,536.71
78.30300,416.76,540.10
78.32229,417.11,537.86
78.34300,418.00,540.06
78.36242,415.28,541.21
78.38183,417.32,540.03
78.40177,418.24,538.31
78.42280,416.31,537.27
78.44353,416.08,539.39
78.46284,417.24,537.01
78.48259,417.34,538.76
78.50346,418.33,538.52
78.52309,416.93,538.37
78.54348,418.63,539.30
78.56232,417.92,537.83
78.58209,417.50,539.25
78.60164,414.36,538.21
78.62171,412.82,536.38
78.64332,413.42,534.92
78.66213,416.16,538.37
78.68166,416.90,538.44
78.70216,414.24,536.57
78.72265,415.18,538.02
78.74294,416.42,537.48
78.76190,416.32,537.56
78.78207,415.62,540.56
78.80326,415.06,537.73
78.82286,414.78,540.06
78.84211,416.57,537.48
78.86167,416.45,540.83
78.88221,414.89,536.66
78.90227,414.42,538.85
78.92305,413.08,539.95
78.94326,412.76,536.57
78.96254,415.19,537.11
78.98259,415.68,539.54
79.00303,415.66,536.68
79.02280,416.29,537.04
79.04348,417.24,536.30
79.06208,416.41,538.39
79.08188,415.08,536.30
79.10298,412.12,536.52
79.12249,414.37,535.50
79.14211,411.53,536.73
79.16244,412.70,536.16
79.18302,412.58,539.59
79.20306,416.19,536.78
79.22249,415.84,537.03
79.24332,413.50,536.56
79.26308,417.80,538.14
79.28273,417.95,537.48
79.30236,415.37,538.51
79.32260,415.21,535.28
79.34203,416.17,535.87
79.36316,417.92,536.91
79.38303,415.09,534.79
79.40226,413.79,535.79
79.42206,411.98,533.31
79.44294,412.42,534.70
79.46233,414.87,535.98
79.48323,416.67,536.25
79.50365,414.02,536.22
79.52223,413.10,537.44
79.54216,413.76,536.23
79.56283,416.03,536.55
79.58353,412.81,537.69
79.60397,414.90,535.97
79.62354,415.21,536.34
79.64277,412.43,535.81
79.66300,413.97,535.16
79.68395,414.38,533.83
79.70289,415.58,536.07
79.72375,416.93,536.00
79.74402,417.55,535.13
79.76350,417.23,537.64
79.78321,414.65,535.70
79.80313,416.69,537.70
79.82279,412.29,536.45
79.84439,413.63,533.78
79.86421,414.02,535.86
79.88390,414.51,535.44
79.90360,411.52,534.82
79.92384,412.96,538.07
79.94414,411.97,536.77
79.96400,415.09,537.24
79.98489,413.72,535.41
80.00641,412.56,537.32
80.02611,411.94,535.32
80.04491,410.10,538.19
80.06601,410.00,535.02
80.08556,409.70,534.79
80.10498,409.05,537.32
80.12598,408.43,533.95
80.14516,408.89,533.24
80.16592,410.58,535.90
80.18556,410.21,536.67
80.20481,408.58,536.55
80.22488,407.68,534.22
80.24642,410.77,536.90
80.26744,406.66,536.00
80.28619,408.20,536.26
80.30661,405.47,536.67
80.32698,404.44,537.80
80.34653,403.88,538.12
80.36678,404.14,537.40
80.38593,402.18,536.04
80.40591,402.97,537.17
80.42720,402.11,535.07
80.44682,401.90,535.30
80.46752,401.74,535.21
80.48788,400.24,534.23
80.50705,402.93,532.93
80.52655,402.93,533.56
80.54734,404.85,531.45
80.56745,402.45,532.73
80.58832,405.25,535.24
80.60858,402.78,534.97
80.62774,403.45,534.36
80.64714,401.41,533.52
80.66846,403.35,532.24
80.68739,402.18,533.01
80.70707,401.33,533.40
80.72794,402.25,533.91
80.74778,400.40,533.32
80.76801,399.56,535.56
80.78664,399.69,533.12
80.80717,400.19,533.07
80.82795,400.16,534.30
80.84682,393.18,532.62
80.86826,378.66,527.94
80.88673,362.53,527.08
80.90795,340.68,527.39
80.92709,325.07,523.34
80.94861,306.70,522.83
80.96713,295.59,516.42
80.98733,290.25,511.12
81.00720,285.13,509.79
81.02698,285.69,506.29
81.04706,286.49,501.30
81.06830,292.27,498.35
81.08737,295.36,496.26
81.10723,303.92,494.97
81.12648,308.83,496.76
81.14772,316.04,494.73
81.16854,322.19,495.78
81.18669,330.66,495.63
81.20695,337.64,501.78
81.22758,344.33,501.53
81.24854,350.92,504.39
81.26832,356.10,507.64
81.28775,363.07,512.76
81.30741,367.89,515.45
81.32717,372.95,517.77
81.34741,375.34,520.26
81.36811,378.87,522.91
81.38850,385.12,524.42
81.40788,383.41,526.79
81.42683,388.80,527.26
81.44766,392.46,527.81
81.46841,406.44,528.43
81.48819,426.51,531.78
81.50794,449.69,538.45
81.52899,472.59,548.76
81.54843,492.55,553.55
81.56894,510.16,562.75
81.58764,525.52,571.29
81.60915,535.91,577.37
81.62937,537.77,582.23
81.64881,533.87,578.13
81.66938,528.49,576.79
81.68768,519.83,571.58
81.70829,508.29,570.67
81.72856,498.02,563.98
81.74927,488.02,562.64
81.76811,476.73,558.55
81.78847,468.45,555.24
81.80762,460.82,553.31
81.82915,453.35,550.66
81.84867,444.74,548.69
81.86884,438.42,543.64
81.88837,432.60,542.74
81.90817,426.61,539.21
81.92860,423.59,540.85
81.94987,420.58,537.97
81.96897,415.25,538.34
81.98897,411.67,535.01
82.00921,411.02,534.87
82.03008,411.19,534.62
82.04949,406.46,534.85
82.06986,404.51,531.48
82.08979,403.01,533.50
82.11050,404.79,531.27
82.12865,403.37,533.30
82.14928,400.69,532.29
82.17018,403.43,534.36
82.18924,400.04,534.73
82.20918,401.49,532.57
82.22986,401.58,533.77
82.25012,401.63,533.00
82.27047,397.70,533.81
82.29011,399.49,532.24
82.30878,396.25,534.02
82.33015,396.56,533.89
82.35059,397.72,532.69
82.36924,400.24,532.98
82.38938,400.00,531.51
82.40990,399.58,531.00
82.43008,398.89,530.89
82.44872,400.07,532.90
82.47005,398.70,533.59
82.48907,400.09,532.34
82.50982,400.64,528.59
82.52865,403.27,530.25
82.55032,403.75,533.67
82.56885,400.54,533.89
82.58982,401.21,534.83
82.61046,402.52,533.02
82.62918,399.94,534.67
82.64899,402.83,532.51
82.66916,401.13,536.54
82.69017,400.69,535.60
82.70987,398.14,536.26
82.72975,398.68,534.82
82.74887,399.67,535.12
82.76896,399.85,532.22
82.78983,398.68,535.67
82.81027,398.87,532.07
82.82937,401.99,533.57
82.84903,401.50,533.89
82.87044,400.76,535.24
82.88922,401.34,534.38
82.90980,399.71,534.22
82.92978,400.81,532.58
82.95060,401.08,531.57
82.96883,400.26,535.05
82.98983,398.41,532.08
83.01010,398.69,531.93
83.02981,400.18,532.57
83.05011,398.60,533.91
83.06865,400.01,534.96
83.09007,398.24,533.19
83.10876,400.99,533.07
83.13023,399.96,535.13
83.14889,399.83,534.41
83.16996,400.90,533.57
83.18975,400.35,534.99
83.20933,398.92,534.32
83.22889,399.87,532.80
83.24985,400.54,533.97
83.26984,400.82,534.21
83.28892,401.77,532.92
83.30909,400.91,532.05
83.32863,402.44,531.97
83.34990,399.51,531.21
83.37012,399.79,531.90
83.38889,400.98,531.36
83.40868,401.79,533.34
83.43019,402.36,534.09
83.44929,403.99,530.73
83.46923,401.56,529.85
83.48953,403.72,533.04
83.50981,402.55,530.13
83.52863,400.80,532.68
83.55098,401.88,530.82
83.56951,402.04,531.39
83.58990,401.55,533.18
83.61006,400.83,533.18
83.62997,402.28,532.16
83.65100,401.31,533.64
83.67148,399.75,531.08
83.68984,403.54,534.19
83.71046,400.71,533.04
83.73105,400.86,533.70
83.74966,400.35,531.49
83.77110,402.71,531.00
83.78949,402.63,530.44
83.80982,402.17,530.39
83.83034,403.57,530.86
83.84957,402.45,531.88
83.86959,403.63,532.52
83.88960,405.13,532.75
83.91136,401.81,532.63
83.93141,402.21,531.31
83.94984,400.37,530.11
83.97053,399.58,531.46
83.99031,399.44,530.24
84.00991,399.21,530.87
84.03089,399.96,531.15
84.05094,399.85,532.06
84.06991,401.05,533.55
84.09100,402.86,531.30
84.11061,399.90,534.76
84.12989,402.26,533.95
84.15083,402.35,534.90
84.17008,402.40,534.16
84.19106,403.88,534.49
84.21041,402.64,532.94
84.22981,401.09,530.16
84.25001,403.20,531.59
84.27023,402.14,529.37
84.28978,401.50,529.87
84.31153,402.84,532.88
84.33088,403.40,531.97
84.35100,402.96,531.72
84.37002,397.02,534.30
84.38996,388.66,534.12
84.41045,375.14,529.86
84.43022,361.26,528.44
84.45067,346.44,527.27
84.47130,335.24,520.34
84.49031,324.95,514.10
84.50970,318.35,506.90
84.52957,313.19,502.50
84.55132,309.65,497.53
84.57102,306.84,491.24
84.58953,307.74,489.27
84.60977,305.55,490.92
84.63045,311.07,490.15
84.64989,312.65,490.81
84.66949,315.35,495.23
84.68999,315.11,498.16
84.71115,322.25,499.15
84.73133,323.96,500.87
84.75027,326.43,507.08
84.76965,332.97,507.43
84.79104,339.15,511.09
84.81052,343.27,514.59
84.83116,352.23,513.89
84.85115,359.68,517.29
84.87043,362.09,518.91
84.89002,369.72,519.70
84.90994,374.85,519.68
84.93059,375.77,522.57
84.95094,378.85,524.43
84.97026,383.41,527.28
84.99027,386.14,525.33
85.01048,389.13,525.88
85.03077,387.26,528.76
85.05003,391.03,530.17
85.07031,392.47,529.99
85.09005,392.93,532.31
85.10988,398.11,532.01
85.12981,397.47,531.96
85.15134,399.93,531.67
85.17098,401.08,532.00
85.18991,402.11,534.73
85.21004,412.93,535.57
85.23100,431.27,540.17
85.25077,449.80,546.27
85.27031,469.08,552.24
85.29132,492.53,555.27
85.31072,510.39,556.92
85.32966,523.31,560.93
85.35063,536.76,565.41
85.37115,537.90,565.30
85.39159,540.12,568.83
85.41126,533.11,567.85
85.42955,523.63,569.24
85.45100,513.61,566.55
85.47017,504.23,562.38
85.49112,492.15,558.35
85.50942,480.99,557.46
85.53054,470.92,554.30
85.55016,464.67,550.69
85.57094,454.99,549.59
85.58981,448.96,546.54
85.61007,442.90,545.36
85.63079,438.10,541.40
85.65086,433.97,543.31
85.66974,431.50,541.98
85.69089,425.13,540.27
85.70990,421.32,539.20
85.73144,422.51,539.17
85.75106,416.54,538.08
85.77087,414.90,539.73
85.79032,413.47,537.12
85.80996,411.61,537.30
85.82973,411.23,536.91
85.84970,410.23,536.62
85.87076,409.28,535.05
85.88968,409.15,537.72
85.91035,406.22,538.22
85.93135,406.72,539.27
85.95050,404.98,537.61
85.97130,409.04,536.00
85.99237,408.50,535.86
86.01179,409.23,536.26
86.03138,406.05,535.72
86.05130,409.81,535.86
86.07048,409.03,536.87
86.09123,406.13,536.58
86.11081,406.52,535.94
86.13224,407.16,536.58
86.15191,409.02,534.77
86.17233,405.69,536.55
86.19039,409.67,532.97
86.21141,405.43,535.18
86.23079,405.78,534.31
86.25116,405.35,534.65
86.27041,404.33,535.58
86.29090,405.25,535.01
86.31119,406.63,531.70
86.33137,407.31,532.20
86.35141,408.50,535.00
86.37193,407.71,532.52
86.39132,405.14,532.87
86.41159,408.29,533.15
86.43175,408.14,533.28
86.45174,406.54,532.77
86.47087,407.04,533.66
86.49129,406.48,533.96
86.51280,408.89,534.70
86.53263,406.15,536.69
86.55348,406.63,536.61
86.57257,406.00,534.74
86.59161,407.31,538.39
86.61384,409.87,537.34
86.63310,411.17,534.44
86.65318,414.31,535.70
86.67342,413.80,538.28
86.69231,412.10,539.48
86.71398,414.95,536.79
86.73253,413.69,539.14
86.75307,413.30,537.17
86.77390,415.14,537.61
86.79403,415.12,534.34
86.81272,417.86,536.17
86.83327,415.88,533.91
86.85406,415.33,533.57
86.87283,416.51,536.24
86.89272,414.43,533.93
86.91377,415.57,535.27
86.93395,414.47,536.68
86.95399,415.74,533.21
86.97434,414.79,535.32
86.99469,415.42,534.31
87.01458,414.49,534.85
87.03368,417.80,536.35
87.05458,418.37,535.68
87.07539,418.13,534.84
87.09508,420.41,533.28
87.11478,418.78,536.65
87.13500,420.65,534.96
87.15513,417.55,536.66
87.17625,420.82,533.84
87.19578,419.93,537.61
87.21520,420.98,533.69
87.23540,421.18,535.35
87.25466,422.32,537.68
87.27509,420.60,537.69
87.29646,418.99,537.11
87.31511,420.31,535.44
87.33588,419.17,537.34
87.35620,418.53,536.90
87.37511,416.98,537.43
87.39488,418.83,536.84
87.41439,418.41,533.70
87.43613,419.99,537.32
87.45545,419.63,535.75
87.47539,417.81,535.33
87.49624,420.77,536.12
87.51525,420.07,532.94
87.53635,417.67,536.40
87.55578,419.10,534.03
87.57620,420.24,533.43
87.59590,420.63,532.85
87.61559,417.15,535.73
87.63619,418.21,533.26
87.65594,420.90,535.69
87.67623,421.99,535.96
87.69594,422.63,534.99
87.71530,420.64,535.74
87.73517,422.12,537.92
87.75632,419.41,535.46
87.77552,420.74,536.03
87.79554,417.48,536.95
87.81520,421.45,534.99
87.83491,419.73,535.23
87.85520,420.93,534.97
87.87498,420.68,536.35
87.89447,418.45,534.34
87.91652,417.52,536.25
87.93658,420.28,537.01
87.95692,418.43,535.75
87.97685,416.16,540.26
87.99582,416.64,537.26
88.01726,417.99,539.78
88.03613,419.37,537.29
88.05739,415.95,537.43
88.07712,416.21,539.64
88.09535,420.37,539.73
88.11584,419.13,538.76
88.13643,419.30,539.28
88.15714,419.68,535.58
88.17739,418.85,537.51
88.19667,417.77,536.46
88.21666,418.57,537.24
88.23695,409.85,535.88
88.25666,395.89,537.84
88.27740,379.43,537.36
88.29695,357.13,541.01
88.31546,336.78,541.22
88.33679,323.46,542.43
88.35634,307.97,538.58
88.37660,301.94,534.86
88.39572,293.56,530.70
88.41635,293.43,523.21
88.43662,293.87,516.93
88.45612,298.88,512.04
88.47687,303.37,509.19
88.49655,310.48,506.70
88.51568,319.23,504.34
88.53652,324.49,503.08
88.55618,334.79,503.06
88.57689,342.51,501.54
88.59682,347.73,504.60
88.61539,357.39,505.54
88.63712,366.24,506.62
88.65546,371.17,509.53
88.67710,375.52,513.82
88.69583,381.80,515.73
88.71542,386.65,517.93
88.73676,392.30,519.50
88.75601,397.76,523.72
88.77654,401.10,525.08
88.79594,400.93,524.04
88.81573,403.75,526.09
88.83597,404.85,528.71
88.85642,408.57,528.67
88.87640,410.56,530.84
88.89614,407.99,529.91
88.91699,413.18,531.62
88.93672,416.19,532.95
88.95674,424.21,539.20
88.97608,437.94,547.53
88.99649,457.43,557.82
89.01706,475.82,567.19
89.03554,498.15,572.99
89.05588,516.26,576.11
89.07552,535.69,573.25
89.09549,551.00,572.13
89.11644,558.81,570.41
89.13582,562.55,565.01
89.15662,556.78,559.11
89.17673,548.78,555.33
89.19556,541.90,553.95
89.21554,530.19,552.54
89.23695,519.49,548.00
89.25679,510.82,546.16
89.27649,499.13,542.18
89.29660,489.84,541.40
89.31737,479.60,540.39
89.33711,472.09,538.08
89.35677,465.14,536.11
89.37530,462.00,537.27
89.39603,456.72,534.79
89.41708,450.91,535.25
89.43572,444.11,534.84
89.45678,440.47,535.09
89.47634,435.28,536.95
89.49695,433.08,536.75
89.51690,433.46,535.81
89.53715,428.48,535.50
89.55651,426.95,535.33
89.57558,425.52,533.86
89.59701,424.37,534.45
89.61650,424.22,534.44
89.63575,421.11,535.94
89.65691,422.92,538.57
89.67568,422.18,539.24
89.69676,419.59,537.57
89.71674,423.12,538.49
89.73662,421.04,538.42
89.75587,419.01,537.92
89.77667,420.82,536.77
89.79626,417.70,536.73
89.81620,416.91,539.46
89.83633,419.72,537.63
89.85728,418.07,539.07
89.87727,415.30,537.73
89.89730,418.52,539.36
89.91617,419.01,540.69
89.93648,418.39,539.78
89.95680,418.15,540.05
89.97638,418.69,542.16
89.99641,414.74,541.87
90.01574,414.87,539.67
90.03708,417.66,540.88
90.05625,417.17,539.04
90.07719,416.46,539.26
90.09593,416.73,540.07
90.11727,418.81,538.00
90.13531,418.04,537.69
90.15713,416.60,538.01
90.17698,416.03,538.94
90.19719,417.16,540.09
90.21563,419.63,538.91
90.23662,418.96,538.29
90.25729,416.63,538.71
90.27725,418.28,540.52
90.29778,415.63,537.51
90.31899,413.31,539.01
90.33915,412.60,537.35
90.35817,415.34,538.65
90.37775,416.13,537.03
90.39898,413.99,540.29
90.41941,413.94,540.69
90.43819,415.56,538.51
90.45825,412.48,538.97
90.47922,413.59,540.54
90.49781,411.75,542.10
90.51889,411.45,539.33
90.53860,409.53,540.09
90.55832,409.51,541.17
90.57833,409.88,541.89
90.59815,410.81,542.91
90.61755,413.41,543.64
90.63877,409.15,532.93
90.65777,406.84,515.82
90.67886,404.11,500.05
90.69732,401.01,495.52
90.71886,400.70,489.48
90.73940,398.15,491.26
90.75967,402.52,491.51
90.77950,399.95,493.24
90.79937,398.63,498.77
90.81965,399.46,505.03
90.83871,400.42,509.86
90.85854,400.85,514.05
90.87941,402.35,516.44
90.89867,402.14,526.26
90.91852,405.33,529.61
90.94011,407.87,530.92
90.95986,408.32,534.03
90.97969,409.09,536.18
91.00094,405.93,537.33
91.02062,407.83,536.51
91.04092,408.52,534.03
91.06052,407.12,533.39
91.08076,409.75,534.12
91.09940,405.36,533.09
91.11935,404.95,535.56
91.13962,405.66,537.53
91.15944,404.48,540.29
91.18065,404.12,543.59
91.19995,407.22,542.77
91.21994,404.77,541.90
91.24167,403.34,544.35
91.26044,404.77,544.70
91.28163,406.23,548.25
91.30322,405.80,549.53
91.32194,403.71,546.57
91.34226,404.36,548.87
91.36165,403.43,546.84
91.38319,399.11,549.98
91.40229,400.09,549.41
91.42179,400.54,551.14
91.44164,406.92,550.02
91.46142,406.81,550.02
91.48272,406.90,544.98
91.50247,407.41,546.05
91.52233,405.98,544.16
91.54205,409.71,544.51
91.56315,413.87,546.29
