Program Time [s],data 0,data 1
118.61489,445.68,570.21
118.63244,446.95,573.29
118.65203,447.85,571.59
118.67318,447.84,574.56
118.69350,452.64,576.32
118.71317,453.87,575.29
118.73272,451.43,575.60
118.75368,449.54,573.64
118.77382,452.61,578.35
118.79245,454.51,586.66
118.81349,455.17,593.51
118.83382,458.00,598.11
118.85268,456.82,598.89
118.87391,455.19,598.99
118.89337,461.30,598.37
118.91384,460.87,589.98
118.93396,463.41,586.94
118.95398,458.96,577.88
118.97255,461.26,574.82
118.99234,457.64,574.62
119.01353,455.93,566.16
119.03335,450.23,564.34
119.05374,459.39,563.22
119.07385,459.74,565.03
119.09302,464.62,565.68
119.11310,468.22,568.73
119.13246,467.24,568.91
119.15217,471.25,573.73
119.17294,472.57,577.01
119.19247,469.80,577.22
119.21252,469.60,583.95
119.23311,466.00,585.51
119.25305,465.62,584.39
119.27317,465.63,589.27
119.29277,463.34,587.83
119.31328,466.52,583.17
119.33348,465.13,584.31
119.35327,467.74,591.51
119.37355,456.50,580.80
119.39362,436.76,568.12
119.41362,417.48,555.29
119.43301,395.19,539.15
119.45463,373.02,527.09
119.47477,352.99,514.80
119.49344,339.54,504.06
119.51396,327.50,499.54
119.53562,322.37,493.73
119.55305,319.54,491.60
119.57430,317.47,491.07
119.59385,319.53,496.24
119.61418,326.07,504.34
119.63343,335.36,508.05
119.65455,344.63,513.14
119.67487,353.77,518.85
119.69373,361.93,522.29
119.71339,371.31,529.49
119.73402,376.26,538.13
119.75479,389.22,543.31
119.77375,395.94,544.49
119.79341,402.64,550.91
119.81373,409.50,553.87
119.83485,414.40,557.50
119.85408,422.30,561.17
119.87363,427.65,566.07
119.89372,432.69,568.25
119.91336,435.39,568.34
119.93379,436.60,571.05
119.95466,440.53,568.95
119.97403,442.13,571.39
119.99313,444.78,572.85
120.01345,447.97,571.09
120.03444,447.98,572.84
120.05319,447.56,575.66
120.07390,449.20,576.79
120.09332,449.15,576.53
120.11336,447.29,580.73
120.13454,450.70,583.41
120.15402,450.36,579.20
120.17430,450.58,579.24
120.19393,453.43,583.35
120.21479,460.34,597.17
120.23485,474.86,611.49
120.25418,499.17,631.15
120.27371,520.91,655.03
120.29349,550.92,676.36
120.31429,581.82,689.77
120.33490,607.21,691.59
120.35373,629.36,691.08
120.37429,635.58,683.34
120.39318,635.30,671.10
120.41382,625.34,656.16
120.43377,614.47,646.92
120.45420,597.59,633.33
120.47399,586.98,627.45
120.49311,570.49,611.72
120.51427,558.92,601.42
120.53444,545.42,597.13
120.55498,538.32,589.64
120.57439,529.91,582.88
120.59328,519.15,581.50
120.61425,515.61,579.18
120.63468,507.58,576.11
120.65404,498.96,572.67
120.67445,491.66,574.30
120.69370,485.45,571.66
120.71485,479.82,574.31
120.73321,478.52,574.85
120.75446,474.81,571.64
120.77418,470.53,572.27
120.79344,463.47,576.59
120.81421,461.90,576.69
120.83339,461.69,579.60
120.85439,459.20,584.82
120.87333,462.10,590.20
120.89462,466.70,600.55
120.91461,466.38,610.69
120.93332,463.11,599.63
120.95429,468.22,601.34
120.97414,470.94,604.51
120.99478,463.64,583.23
121.01355,469.61,592.87
121.03405,479.61,590.12
121.05431,489.96,597.49
121.07485,488.92,586.91
121.09339,494.28,580.83
121.11321,497.92,573.83
121.13523,496.72,573.20
121.15406,503.56,566.60
121.17363,511.92,560.51
121.19374,500.46,549.05
121.21413,502.43,546.42
121.23475,485.69,544.72
121.25355,468.31,549.04
121.27494,479.23,561.26
121.29420,473.14,570.44
121.31388,469.50,569.92
121.33420,463.91,576.25
121.35445,458.05,575.48
121.37361,451.97,576.90
121.39391,447.03,576.20
121.41374,447.83,575.22
121.43467,447.59,574.52
121.45486,440.33,576.67
121.47416,436.74,574.10
121.49469,436.38,572.53
121.51339,436.52,572.73
121.53348,436.10,580.59
121.55428,440.49,582.53
121.57438,439.91,585.99
121.59316,439.60,587.27
121.61346,440.20,586.24
121.63356,438.99,585.56
121.65450,443.62,585.95
121.67457,445.04,589.03
121.69460,442.63,587.39
121.71431,442.81,586.42
121.73495,443.17,582.03
121.75312,446.50,582.83
121.77337,450.73,579.48
121.79460,449.09,581.21
121.81394,449.48,583.35
121.83450,449.13,584.65
121.85389,449.45,585.47
121.87364,450.53,583.25
121.89488,450.57,584.54
121.91411,451.19,583.42
121.93301,448.42,579.43
121.95454,449.40,575.09
121.97406,449.16,573.64
121.99301,447.53,571.19
122.01339,448.87,571.37
122.03409,445.20,569.96
122.05499,447.22,572.91
122.07441,447.21,571.94
122.09487,444.67,571.81
122.11401,446.17,576.80
122.13340,447.84,576.17
122.15460,446.17,574.57
122.17379,446.24,573.79
122.19398,444.80,574.91
122.21329,444.59,574.11
122.23346,446.67,576.53
122.25313,442.88,572.31
122.27448,445.81,572.51
122.29309,444.73,576.20
122.31441,445.37,575.87
122.33396,444.47,576.51
122.35482,444.40,577.11
122.37471,445.69,574.49
122.39326,448.44,575.70
122.41430,446.81,577.11
122.43403,444.26,577.93
122.45499,446.04,578.39
122.47328,443.83,576.61
122.49412,444.13,575.36
122.51405,441.37,575.13
122.53463,443.47,577.11
122.55322,441.15,577.45
122.57348,443.76,578.04
122.59379,440.15,577.09
122.61332,442.36,575.06
122.63464,440.51,575.23
122.65492,441.91,576.94
122.67491,443.05,575.01
122.69366,442.02,576.26
122.71497,442.28,576.42
122.73440,442.01,578.85
122.75317,440.60,576.66
122.77458,440.58,581.61
122.79387,435.70,580.63
122.81451,421.96,581.17
122.83437,401.86,578.26
122.85418,380.38,568.60
122.87466,355.36,555.77
122.89532,333.30,541.15
122.91537,314.75,525.14
122.93518,300.64,507.44
122.95493,288.35,494.66
122.97429,284.79,483.54
122.99546,285.05,476.94
123.01462,284.72,477.90
123.03441,288.81,479.93
123.05580,293.73,485.93
123.07503,303.78,490.25
123.09436,313.13,498.77
123.11462,320.93,504.88
123.13548,332.84,513.02
123.15595,341.94,518.95
123.17583,352.22,525.67
123.19495,360.44,532.88
123.21568,367.13,540.06
123.23460,378.86,546.24
123.25529,384.68,550.87
123.27564,393.00,557.84
123.29518,396.31,562.56
123.31490,400.05,564.11
123.33428,405.40,568.85
123.35436,407.69,570.97
123.37585,413.50,575.41
123.39489,415.11,576.15
123.41438,420.20,579.04
123.43521,422.58,577.52
123.45419,423.65,579.28
123.47498,428.77,580.29
123.49421,428.44,580.80
123.51455,429.63,581.58
123.53532,429.34,583.31
123.55412,436.29,589.40
123.57520,453.67,608.08
123.59477,473.30,634.56
123.61471,496.71,665.98
123.63465,527.86,687.57
123.65426,557.93,707.84
123.67478,586.90,727.48
123.69548,612.07,750.56
123.71528,630.29,782.69
123.73595,639.66,799.50
123.75527,637.79,802.80
123.77434,630.76,786.35
123.79582,619.58,755.18
123.81444,602.42,720.61
123.83598,583.38,683.51
123.85592,565.69,648.24
123.87470,549.90,619.86
123.89454,533.47,589.46
123.91409,518.46,566.41
123.93426,505.39,544.52
123.95549,494.04,531.07
123.97478,487.40,523.19
123.99572,476.70,514.98
124.01540,472.11,511.24
124.03457,467.97,509.57
124.05422,462.80,513.73
124.07576,459.66,517.84
124.09432,458.15,518.03
124.11410,452.31,521.65
124.13513,450.55,529.18
124.15670,452.04,534.12
124.17572,447.82,538.34
124.19517,447.20,542.57
124.21561,446.15,543.78
124.23567,445.64,547.84
124.25542,441.89,552.31
124.27700,441.80,553.87
124.29662,444.40,559.33
124.31568,444.94,560.77
124.33673,444.22,562.27
124.35538,443.73,567.34
124.37667,443.02,566.74
124.39586,441.67,571.13
124.41686,440.00,574.33
124.43651,441.35,573.56
124.45656,443.77,578.50
124.47758,440.20,576.68
124.49774,444.17,578.86
124.51660,441.34,579.89
124.53735,441.02,581.48
124.55699,439.72,580.44
124.57604,443.52,580.63
124.59762,441.77,582.53
124.61663,442.98,584.89
124.63708,443.47,583.50
124.65702,443.68,583.68
124.67652,443.47,579.64
124.69727,441.88,582.15
124.71711,444.15,578.00
124.73774,443.40,578.58
124.75642,444.64,577.65
124.77623,443.69,579.12
124.79628,441.32,580.12
124.81724,442.98,579.62
124.83707,443.01,579.27
124.85747,443.68,577.87
124.87666,443.53,581.26
124.89756,442.24,579.60
124.91771,443.90,579.80
124.93791,442.54,579.79
124.95714,446.48,576.76
124.97781,445.71,577.03
124.99740,443.41,578.99
125.01700,443.41,579.21
125.03638,442.24,580.47
125.05727,444.89,579.76
125.07682,444.13,577.48
125.09768,446.02,580.32
125.11723,446.36,579.49
125.13709,444.39,574.52
125.15632,447.95,577.21
125.17650,444.65,575.24
125.19773,444.89,574.57
125.21659,443.34,575.53
125.23680,442.91,572.98
125.25659,446.95,576.08
125.27609,444.61,573.94
125.29609,445.88,575.95
125.31680,445.47,575.09
125.33716,445.99,574.10
125.35616,446.48,574.93
125.37619,446.79,576.38
125.39748,447.79,573.38
125.41655,446.95,576.02
125.43769,447.29,574.19
125.45711,449.14,574.42
125.47787,448.09,574.95
125.49673,446.58,572.19
125.51758,446.77,573.16
125.53744,447.34,571.74
125.55705,448.61,572.43
125.57709,447.68,570.66
125.59631,446.32,569.39
125.61697,445.47,572.80
125.63659,446.99,573.69
125.65628,448.46,570.98
125.67707,447.97,573.58
125.69743,448.45,572.10
125.71639,447.78,572.09
125.73652,448.77,571.02
125.75741,446.19,571.46
125.77617,445.63,572.67
125.79678,445.22,573.08
125.81676,448.15,572.06
125.83735,447.37,571.41
125.85673,444.58,571.62
125.87646,443.94,573.46
125.89601,444.43,570.12
125.91695,447.08,569.90
125.93741,446.97,573.16
125.95712,446.07,571.15
125.97657,444.91,574.11
125.99759,445.95,572.40
126.01794,444.93,573.86
126.03727,446.37,577.31
126.05608,446.51,578.65
126.07608,447.86,577.25
126.09628,448.61,576.88
126.11705,449.31,574.98
126.13603,447.21,578.35
126.15682,448.65,575.42
126.17695,451.29,575.96
126.19623,448.60,575.66
126.21648,448.44,572.97
126.23705,451.40,574.68
126.25757,450.51,574.77
126.27775,450.48,573.40
126.29751,450.58,571.82
126.31761,450.11,575.80
126.33651,449.35,574.96
126.35612,450.25,574.38
126.37628,452.37,576.14
126.39736,451.54,574.71
126.41696,449.09,575.89
126.43651,448.77,576.40
126.45637,448.97,573.27
126.47721,447.60,574.68
126.49700,446.19,574.59
126.51629,449.74,573.01
126.53679,450.20,571.38
126.55799,448.04,570.67
126.57620,451.37,569.73
126.59730,452.16,568.64
126.61772,451.27,569.85
126.63637,451.27,570.27
126.65697,453.73,568.09
126.67653,454.91,568.27
126.69686,445.83,567.29
126.71722,426.92,560.50
126.73745,397.19,547.85
126.75791,372.16,537.53
126.77752,348.86,524.86
126.79790,330.48,510.58
126.81790,311.94,503.46
126.83780,300.76,497.13
126.85782,293.38,497.43
126.87716,292.04,496.08
126.89710,296.98,496.13
126.91648,299.69,498.07
126.93659,309.82,500.80
126.95644,321.07,502.47
126.97627,330.90,506.59
126.99647,339.58,512.63
127.01699,353.27,518.17
127.03637,362.98,524.35
127.05771,372.76,530.02
127.07685,382.71,536.44
127.09666,391.07,542.40
127.11736,398.72,547.40
127.13639,405.16,550.14
127.15723,414.54,553.31
127.17684,420.17,557.63
127.19630,424.35,560.98
127.21758,429.46,563.91
127.23687,432.64,563.83
127.25661,435.06,569.50
127.27679,438.76,570.27
127.29695,443.71,569.99
127.31667,442.70,573.10
127.33676,447.13,570.87
127.35622,448.41,570.79
127.37635,449.53,571.56
127.39717,452.07,571.48
127.41618,453.72,574.00
127.43749,453.76,572.29
127.45607,454.39,571.61
127.47747,454.53,574.61
127.49767,458.38,580.68
127.51716,469.58,597.43
127.53640,491.35,614.20
127.55640,511.57,632.34
127.57734,534.52,649.87
127.59647,561.61,663.32
127.61672,588.41,672.21
127.63719,616.05,671.67
127.65744,632.60,669.80
127.67755,639.05,659.65
127.69740,635.77,652.76
127.71630,627.17,644.33
127.73693,613.73,634.17
127.75728,600.68,625.81
127.77605,586.28,620.17
127.79753,574.54,613.51
127.81696,561.46,611.23
127.83683,547.34,602.15
127.85797,538.09,600.13
127.87734,528.04,594.78
127.89669,522.26,593.02
127.91717,515.10,589.94
127.93610,508.59,588.41
127.95730,504.72,587.57
127.97754,496.76,582.61
127.99794,494.74,580.83
128.01661,489.00,579.27
128.03662,486.63,578.98
128.05759,482.58,578.60
128.07631,476.57,575.21
128.09742,475.50,575.20
128.11644,473.42,575.21
128.13725,469.84,576.68
128.15668,469.11,574.15
128.17688,465.86,574.85
128.19635,464.74,572.70
128.21698,463.66,574.24
128.23782,464.10,573.88
128.25671,464.63,574.64
128.27651,463.14,573.78
128.29754,463.46,571.22
128.31762,464.57,571.29
128.33614,463.03,573.96
128.35792,461.11,572.13
128.37783,461.23,571.75
128.39792,462.96,571.77
128.41712,460.17,572.72
128.43753,460.22,570.50
128.45734,462.22,570.86
128.47720,459.35,570.20
128.49640,461.24,568.23
128.51715,460.51,569.31
128.53711,457.82,569.32
128.55748,459.03,573.14
128.57793,461.78,575.33
128.59699,460.26,574.16
128.61748,460.32,575.53
128.63672,464.71,574.16
128.65728,466.72,575.64
128.67704,466.92,575.23
128.69710,467.16,577.02
128.71711,464.91,574.41
128.73607,464.73,573.98
128.75606,464.25,575.48
128.77704,465.70,571.74
128.79785,466.18,571.90
128.81672,463.93,572.37
128.83645,464.34,572.15
128.85680,465.10,570.51
128.87700,465.15,572.55
128.89740,465.13,572.18
128.91667,463.12,570.96
128.93762,463.30,572.42
128.95782,465.23,570.88
128.97715,466.04,570.19
128.99684,464.90,571.76
129.01745,465.20,569.01
129.03609,464.04,570.72
129.05717,463.21,573.13
129.07730,464.50,573.37
129.09719,464.37,573.30
129.11731,461.69,575.58
129.13654,462.40,572.76
129.15653,465.02,575.31
129.17680,464.99,573.20
129.19735,465.48,573.14
129.21604,466.49,573.60
129.23677,465.00,574.63
129.25658,464.07,574.64
129.27678,464.62,572.70
129.29702,463.68,571.47
129.31670,460.78,574.59
129.33769,463.50,574.28
129.35634,463.10,573.16
129.37793,462.96,574.69
129.39605,462.56,575.11
129.41723,464.27,574.46
129.43760,459.38,575.02
129.45687,459.93,573.54
129.47735,463.54,572.67
129.49638,463.43,574.04
129.51697,463.82,572.58
129.53765,464.65,572.38
129.55681,462.32,574.43
129.57788,465.47,573.22
129.59674,463.90,571.06
129.61613,466.21,571.62
129.63740,464.76,571.15
129.65711,466.33,570.72
129.67668,467.02,570.38
129.69792,465.02,570.09
129.71603,467.06,568.62
129.73737,462.54,571.17
129.75760,462.40,570.04
129.77627,465.10,571.93
129.79686,462.87,573.37
129.81663,463.70,570.81
129.83669,463.08,573.67
129.85602,465.58,574.67
129.87792,464.30,572.44
129.89792,465.65,572.07
129.91793,465.28,575.39
129.93606,465.58,571.88
129.95756,465.76,575.16
129.97719,463.11,572.98
129.99702,463.68,571.81
130.01764,462.82,572.31
130.03774,463.47,571.34
130.05625,465.17,572.58
130.07675,463.38,573.89
130.09640,463.13,572.31
130.11662,464.16,575.63
130.13697,464.27,575.17
130.15777,465.46,574.29
130.17711,465.04,572.20
130.19795,465.75,575.73
130.21627,464.98,573.90
130.23762,461.80,573.14
130.25690,462.41,573.42
130.27712,463.55,575.82
130.29621,463.20,573.41
130.31791,462.91,575.63
130.33602,463.12,576.81
130.35697,465.52,574.10
130.37695,465.57,575.48
130.39613,463.60,575.19
130.41776,462.57,574.69
130.43788,464.36,572.73
130.45737,461.83,571.53
130.47601,461.54,574.08
130.49681,461.83,573.44
130.51691,460.71,574.47
130.53643,460.74,571.17
130.55758,462.33,572.09
130.57612,463.60,572.55
130.59701,462.18,570.93
130.61744,455.42,571.45
130.63892,441.37,567.08
130.65743,416.90,560.34
130.67871,389.09,559.86
130.69948,366.17,554.56
130.71960,341.85,551.06
130.73992,323.84,542.73
130.76004,313.44,534.80
130.78084,311.03,527.11
130.80054,306.84,520.97
130.81943,312.20,514.41
130.84002,317.64,510.45
130.86042,325.16,510.89
130.87963,336.42,506.07
130.89994,343.39,505.80
130.91907,353.17,506.72
130.93945,364.38,510.88
130.95968,376.60,516.76
130.97961,386.07,521.70
130.99926,394.42,528.04
131.02090,404.15,533.64
131.04064,409.18,537.94
131.06092,417.95,545.04
131.08095,421.35,548.80
131.10070,426.97,553.40
131.11947,430.43,555.14
131.13918,434.42,560.67
131.15976,439.43,561.22
131.17979,443.24,564.76
131.20063,442.11,570.14
131.21915,445.99,570.69
131.23956,448.23,573.62
131.25939,449.34,577.17
131.28032,448.50,577.38
131.30005,451.35,576.77
131.31940,451.38,578.22
131.34052,452.14,580.53
131.35945,452.27,578.11
131.38057,453.20,577.98
131.39959,454.16,576.10
131.41940,455.30,576.50
131.44013,454.53,576.66
131.46059,456.64,576.55
131.47956,455.57,579.77
131.49935,460.68,582.71
131.52099,475.74,593.52
131.54054,494.21,608.14
131.56031,517.34,624.04
131.58198,546.58,641.39
131.60138,572.10,653.62
131.62145,596.31,664.74
131.64195,614.65,669.92
131.66138,624.42,667.37
131.68088,622.00,665.04
131.70035,614.27,657.63
131.72004,600.81,647.25
131.74093,591.77,638.36
131.76093,578.72,630.19
131.78149,566.34,623.88
131.80024,553.78,619.57
131.82094,538.19,612.59
131.84022,528.36,608.23
131.86120,518.84,602.51
131.88108,509.82,600.90
131.90200,501.49,596.66
131.92015,495.13,590.78
131.94086,488.71,590.20
131.96091,486.13,587.93
131.98159,482.83,587.09
132.00046,471.80,581.61
132.02196,462.31,576.31
132.04000,454.64,574.54
132.06052,451.66,572.25
132.08113,447.46,572.52
132.10036,445.88,570.70
132.12036,448.50,571.99
132.14058,445.93,573.64
132.16050,447.17,572.31
132.18119,444.24,572.03
132.20053,444.66,573.91
132.22180,445.97,576.42
132.24015,444.88,576.97
132.26096,446.22,577.12
132.28187,445.93,578.75
132.30075,449.27,581.09
132.32162,461.52,590.64
132.34022,474.19,596.74
132.36291,476.32,601.08
132.38211,478.77,599.78
132.40116,477.13,596.64
132.42143,475.25,595.67
132.44107,472.73,595.18
132.46164,471.39,592.55
132.48181,467.52,592.74
132.50207,467.87,593.13
132.52269,464.54,591.28
132.54116,458.33,587.04
132.56220,458.11,587.42
132.58132,458.41,585.19
132.60149,456.70,582.95
132.62298,456.36,583.95
132.64235,453.83,581.61
132.66183,455.30,580.40
132.68250,455.50,578.89
132.70182,451.83,579.16
132.72247,453.79,576.40
132.74185,448.38,577.02
132.76108,448.61,574.86
132.78108,448.12,576.01
132.80225,448.70,575.02
132.82221,448.53,573.43
132.84208,448.63,573.52
132.86263,447.64,577.03
132.88242,445.92,574.66
132.90182,444.17,578.03
132.92212,444.40,579.47
132.94163,443.81,577.55
132.96178,445.53,579.63
132.98234,441.66,576.73
133.00259,443.62,578.19
133.02219,442.43,576.28
133.04205,442.73,578.53
133.06200,445.56,577.19
133.08168,445.16,576.98
133.10167,447.24,578.24
133.12246,446.96,578.65
133.14158,445.61,580.94
133.16108,445.24,579.68
133.18270,444.45,578.65
133.20262,443.93,576.80
133.22253,442.26,576.36
133.24223,444.08,578.84
133.26276,440.88,577.83
133.28188,440.46,577.39
133.30282,439.48,577.30
133.32257,437.63,580.53
133.34237,437.11,579.44
133.36119,439.95,580.87
133.38246,439.66,578.13
133.40233,441.02,578.46
133.42107,441.14,578.38
133.44131,443.22,575.90
133.46118,439.06,576.35
133.48258,441.69,573.90
133.50297,440.96,577.48
133.52175,440.69,573.83
133.54211,438.91,573.61
133.56151,438.37,575.23
133.58214,439.11,576.79
133.60178,440.31,576.79
133.62284,440.62,576.17
133.64260,440.07,573.85
133.66173,440.63,576.76
133.68138,439.13,576.03
133.70164,441.56,575.41
133.72197,441.39,574.33
133.74285,442.92,575.16
133.76285,440.01,575.83
133.78284,438.54,577.50
133.80292,438.01,575.57
133.82243,438.94,578.08
133.84102,438.87,574.92
133.86106,436.86,577.12
133.88121,435.10,576.35
133.90232,433.73,575.80
133.92268,422.77,568.42
133.94200,404.88,561.04
133.96290,382.83,555.10
133.98252,355.20,554.98
134.00227,332.66,560.65
134.02176,311.40,559.25
134.04219,297.37,548.61
134.06118,291.64,534.69
134.08287,285.75,526.84
134.10167,286.26,512.38
134.12214,286.11,507.37
134.14287,292.72,503.72
134.16237,300.40,500.33
134.18248,312.76,498.16
134.20230,322.86,500.43
134.22167,331.18,505.37
134.24262,344.25,508.14
134.26201,354.82,517.08
134.28155,362.93,522.22
134.30297,375.73,527.34
134.32168,382.44,531.64
134.34263,390.59,534.06
134.36203,393.84,539.67
134.38265,403.36,545.13
134.40104,407.13,547.94
134.42263,410.86,552.45
134.44119,416.31,555.43
134.46271,421.11,559.54
134.48232,422.35,559.82
134.50136,424.43,565.71
134.52193,425.55,566.11
134.54210,428.51,567.80
134.56234,431.05,570.44
134.58107,432.12,569.75
134.60237,433.83,574.62
134.62250,432.21,572.46
134.64246,434.23,572.52
134.66276,435.27,572.50
134.68125,435.31,571.64
134.70253,436.20,572.60
134.72117,436.67,571.74
134.74188,434.34,569.92
134.76127,432.02,570.79
134.78244,433.60,569.04
134.80151,435.89,570.68
134.82214,433.43,572.76
134.84181,434.70,574.21
134.86123,435.53,573.37
134.88294,435.86,575.31
134.90266,439.55,578.22
134.92246,450.14,591.77
134.94152,464.44,610.25
134.96148,486.47,626.56
134.98202,508.96,642.94
135.00271,538.68,657.10
135.02292,567.93,664.04
135.04122,594.48,665.77
135.06156,608.82,658.70
135.08160,612.40,654.61
135.10106,608.07,645.39
135.12263,600.14,635.11
135.14245,588.91,625.75
135.16281,576.34,619.73
135.18117,563.83,610.36
135.20114,552.01,604.73
135.22261,539.96,602.15
135.24163,527.92,596.00
135.26193,517.41,592.95
135.28216,506.38,591.87
135.30354,497.37,589.63
135.32268,491.23,587.61
135.34305,481.45,585.50
135.36328,477.78,588.35
135.38253,479.71,596.97
135.40298,479.16,596.36
135.42254,478.05,596.66
135.44308,472.90,595.59
135.46360,470.11,593.01
135.48281,467.95,591.29
135.50297,464.33,592.52
135.52228,461.91,588.12
135.54366,459.82,586.37
135.56390,456.03,584.62
135.58214,454.26,580.88
135.60290,451.92,579.58
135.62278,450.67,581.14
135.64386,448.77,578.96
135.66360,447.60,579.44
135.68373,445.76,576.78
135.70204,445.08,574.88
135.72371,444.72,575.85
135.74311,444.75,577.58
135.76318,445.11,576.97
135.78310,440.57,577.63
135.80291,442.01,575.83
135.82260,440.68,573.47
135.84330,440.24,575.04
135.86463,439.59,575.02
135.88566,438.06,575.69
135.90561,438.28,572.91
135.92732,441.91,571.46
135.94734,443.86,575.00
135.96696,448.01,573.26
135.98724,447.79,572.22
136.00783,449.65,572.61
136.02737,450.28,573.99
136.04821,453.90,575.56
136.06873,451.10,574.26
136.08745,454.78,576.70
136.10760,452.84,574.88
136.12782,453.76,575.94
136.14765,457.55,577.86
136.16769,457.60,576.83
136.18786,458.06,576.37
136.20771,455.87,575.92
136.22826,457.20,579.45
136.24893,458.12,577.50
136.26823,460.00,577.44
136.28964,457.40,580.06
136.30826,459.28,577.28
136.32808,457.84,575.54
136.34974,461.94,574.96
136.37006,459.42,575.27
136.38951,461.63,575.90
136.40945,465.24,575.00
136.42971,463.64,577.43
136.45068,465.04,576.37
136.46923,465.33,573.78
136.48904,464.02,576.69
136.51013,464.40,575.62
136.52969,463.28,576.96
136.55046,462.83,576.55
136.57025,466.26,575.07
136.59071,466.23,575.10
136.61170,465.74,576.86
136.63022,466.59,574.96
136.65036,464.36,574.20
136.67054,467.38,577.17
136.69013,462.76,576.58
136.71109,462.93,574.15
136.73032,465.64,573.88
136.75142,466.16,575.17
136.77197,464.44,575.56
136.79122,462.72,574.47
136.81349,463.13,578.29
136.83274,461.83,578.32
136.85223,462.16,581.25
136.87285,464.80,580.97
136.89351,462.20,580.39
136.91269,463.72,581.39
136.93306,460.34,579.69
136.95328,460.77,580.16
136.97292,459.38,579.69
136.99360,459.25,578.88
137.01286,461.23,578.49
137.03446,458.28,577.95
137.05402,457.77,578.40
137.07345,459.71,577.79
137.09357,459.66,580.55
137.11345,459.54,580.15
137.13459,460.14,576.23
137.15457,457.80,575.30
137.17340,457.27,575.70
137.19369,456.61,577.90
137.21342,460.16,575.03
137.23421,457.79,578.28
137.25309,457.98,575.43
137.27354,459.08,577.81
137.29595,458.69,573.32
137.31516,456.47,575.47
137.33466,456.11,575.79
137.35579,454.23,571.72
137.37509,457.02,572.73
137.39454,454.18,574.12
137.41448,455.90,574.77
137.43589,457.01,573.93
137.45452,455.18,576.26
137.47577,455.28,575.78
137.49518,453.35,578.47
137.51473,453.40,575.17
137.53527,454.26,578.72
137.55513,451.70,576.88
137.57428,450.11,576.57
137.59413,448.46,575.74
137.61514,449.05,575.18
137.63725,447.11,577.77
137.65771,444.38,575.55
137.67748,441.95,575.33
137.69719,442.75,577.23
137.71773,439.72,574.32
137.73725,439.28,576.29
137.75789,441.23,575.33
137.77647,440.72,572.20
137.79786,438.47,573.61
137.81702,437.76,576.53
137.83670,438.36,576.22
137.85633,440.47,575.06
137.87762,440.53,576.31
137.89671,439.59,577.88
137.91771,441.64,576.64
137.93617,440.38,577.89
137.95739,438.50,576.72
137.97682,440.40,575.82
137.99710,441.32,575.03
138.01789,438.83,576.63
138.03603,439.70,576.69
138.05706,438.68,576.01
138.07750,436.64,574.36
138.09683,439.04,575.33
138.11797,438.34,575.00
138.13690,438.58,573.63
138.15699,437.88,575.35
138.17773,437.30,573.16
138.19632,438.09,574.75
138.21783,437.56,573.61
138.23742,438.06,571.96
138.25674,438.86,572.07
138.27783,438.48,574.59
138.29793,436.81,574.63
138.31806,428.64,569.85
138.33712,408.77,565.27
138.35819,384.23,559.42
138.37869,356.62,560.21
138.39995,335.44,553.74
138.41953,312.83,537.28
138.43925,302.43,522.02
138.45937,291.64,508.95
138.48086,285.74,495.29
138.49981,287.56,491.33
138.51994,290.41,483.84
138.54067,294.49,480.49
138.56091,304.01,481.17
138.58077,314.90,484.58
138.59952,323.15,485.87
138.61991,332.60,493.81
138.64060,345.07,496.35
138.65910,355.07,505.32
138.68057,365.75,513.82
138.70094,371.52,521.84
138.72087,378.34,527.13
138.73977,385.96,532.14
138.76048,392.06,538.93
138.77962,400.40,545.36
138.79938,403.59,546.73
138.81987,408.44,553.83
138.84046,413.64,556.50
138.86025,415.99,558.71
138.87943,422.93,560.89
138.90044,425.32,563.73
138.91931,427.76,565.91
138.94054,430.72,569.64
138.95924,432.44,572.77
138.97912,432.99,573.06
138.99968,435.30,570.27
139.01901,436.08,570.00
139.04097,436.95,573.89
139.06031,435.48,574.01
139.07965,434.61,573.22
139.10014,436.68,573.82
139.11981,438.46,573.48
139.14078,439.18,573.31
139.16018,440.62,573.49
139.17927,441.20,574.80
139.19991,438.62,574.94
139.21991,443.44,577.56
139.24012,450.10,586.15
139.26091,462.48,590.67
139.28053,474.03,596.28
139.30087,483.79,604.14
139.32058,507.92,613.56
139.34053,532.44,624.48
139.36013,556.28,633.68
139.38063,578.62,647.23
139.39960,593.40,654.91
139.42022,602.15,656.47
139.43933,599.90,653.04
139.46060,593.11,648.12
139.48021,581.67,640.44
139.49968,570.16,630.76
139.51953,559.40,624.64
139.53916,546.31,614.71
139.55974,536.40,608.51
139.58053,524.13,604.71
139.60028,515.02,598.73
139.61979,502.66,595.42
139.63902,497.21,592.40
139.66008,487.21,590.97
139.68034,481.95,587.60
139.69903,476.09,587.62
139.71963,473.97,583.49
139.73937,466.97,581.63
139.76070,463.79,581.54
139.77961,462.45,579.46
139.79968,458.47,577.43
139.81940,457.98,576.89
139.83959,454.32,576.06
139.85901,454.06,577.74
139.88028,454.68,577.05
139.90007,451.89,575.27
139.92008,453.23,577.48
139.94138,451.97,580.56
139.96079,449.84,577.66
139.98168,449.47,578.33
140.00192,450.70,578.24
140.02146,453.41,578.84
140.04161,451.42,578.25
140.06154,454.89,578.11
140.08141,453.66,575.12
140.10239,456.49,576.00
140.12148,454.72,575.05
140.14243,455.71,575.50
140.16261,452.06,575.71
140.18300,452.12,576.63
140.20119,451.50,577.05
140.22204,453.28,576.08
140.24152,455.21,572.60
140.26251,454.15,572.58
140.28231,453.47,575.63
140.30255,456.51,573.29
140.32155,454.84,575.27
140.34223,456.38,575.56
140.36275,457.88,574.75
140.38204,456.17,574.96
140.40148,454.07,572.33
140.42170,454.99,574.30
140.44229,456.32,572.99
140.46211,454.12,575.22
140.48275,454.26,571.63
140.50376,458.23,573.28
140.52204,456.21,571.06
140.54369,456.29,571.86
140.56356,458.95,576.24
140.58270,457.80,576.65
140.60251,460.13,576.64
140.62278,461.31,576.02
140.64273,458.22,576.59
140.66394,458.57,575.96
140.68226,459.57,576.54
140.70352,459.40,577.34
140.72309,459.88,574.18
140.74361,459.75,573.35
140.76292,459.44,574.67
140.78380,461.50,575.63
140.80237,460.42,573.08
140.82398,463.36,575.13
140.84228,462.46,574.90
140.86320,460.38,571.69
140.88283,460.97,574.86
140.90269,463.10,575.26
140.92227,462.72,573.36
140.94208,462.79,576.37
140.96408,463.22,576.87
140.98560,460.73,576.34
141.00496,462.56,574.74
141.02521,460.44,573.85
141.04477,461.13,575.85
141.06595,461.92,574.98
141.08453,462.54,577.33
141.10539,466.08,574.88
141.12582,463.17,574.67
141.14507,463.55,577.18
141.16558,465.96,575.81
141.18475,465.72,578.17
141.20507,462.02,576.14
141.22413,463.24,579.01
141.24537,461.02,580.02
141.26637,464.66,579.04
141.28554,463.97,576.89
141.30518,463.57,577.67
141.32567,462.90,578.34
141.34799,461.07,580.32
141.36675,463.49,577.45
141.38687,462.06,577.90
141.40679,463.46,579.02
141.42657,464.47,576.08
141.44681,460.85,577.10
141.46789,463.98,577.03
141.48788,461.67,581.07
141.50799,463.14,580.55
141.52828,461.44,580.49
141.54735,463.18,580.35
141.56896,461.90,583.62
141.58716,462.07,581.87
141.60793,458.01,581.77
141.62829,458.71,581.30
141.64824,458.62,581.04
141.66850,459.92,580.26
141.68715,459.28,581.99
141.70758,457.39,579.89
141.72766,457.64,578.54
141.74882,457.11,581.78
141.76757,455.55,579.85
141.78814,454.14,578.04
141.80786,455.82,580.17
141.82798,454.05,577.61
141.84894,452.62,578.65
141.86712,445.34,578.32
141.88770,444.75,574.96
141.90706,444.07,576.19
141.92771,443.56,575.01
141.94804,445.43,574.33
141.96740,444.87,577.03
141.98730,446.87,576.89
142.00857,447.12,577.96
142.02749,446.05,579.04
142.04749,446.49,576.74
142.06825,445.71,577.29
142.08818,448.59,577.77
142.10854,449.29,579.46
142.12741,448.96,577.16
142.14768,448.37,577.94
142.16863,450.06,576.65
142.18973,447.80,576.34
142.20948,448.48,578.14
142.23073,449.55,579.84
142.25113,448.83,575.80
142.27175,447.57,575.06
142.29285,446.94,574.49
142.31247,444.53,575.39
142.33248,442.47,572.62
142.35241,439.49,571.55
142.37383,440.57,575.76
142.39278,439.59,573.14
142.41310,440.80,573.60
142.43265,442.09,574.83
142.45371,441.69,575.73
142.47236,440.54,573.71
142.49348,437.15,575.47
142.51238,438.82,574.97
142.53268,436.13,572.47
142.55347,438.09,570.37
142.57345,436.76,569.39
142.59274,437.51,567.48
142.61216,437.38,569.83
142.63265,439.65,567.32
142.65289,436.22,568.01
142.67396,435.80,566.46
142.69298,437.50,568.16
142.71201,433.78,568.64
142.73221,434.95,566.88
142.75225,431.88,569.94
142.77385,425.55,566.50
142.79212,406.69,555.61
142.81249,381.07,544.82
142.83302,359.80,533.55
142.85331,338.94,526.10
142.87388,321.88,514.10
142.89278,311.32,504.74
142.91337,306.06,500.37
142.93353,304.67,496.80
142.95335,309.95,492.52
142.97305,313.81,493.00
142.99392,323.54,495.87
143.01426,329.91,501.95
143.03457,342.50,507.39
143.05444,348.93,513.56
143.07449,359.06,519.62
143.09354,368.83,528.46
143.11400,376.19,534.02
143.13459,386.13,539.17
143.15443,391.68,546.44
143.17440,396.15,551.74
143.19650,402.88,554.38
143.21588,409.05,557.32
143.23612,415.83,561.27
143.25814,422.87,560.90
143.27792,425.80,563.13
143.29734,430.77,565.87
143.31875,435.13,569.80
143.33793,441.41,570.13
143.35822,441.32,570.73
143.37876,446.81,572.56
143.39737,445.82,572.38
143.41863,448.32,570.65
143.43837,450.44,571.48
143.45706,449.61,573.41
143.47871,451.91,575.97
143.49874,451.41,575.42
143.51789,452.98,574.73
143.53916,455.03,575.14
143.56083,456.21,578.41
143.58029,455.83,580.29
143.60160,458.37,580.87
143.62260,459.39,578.25
143.64235,459.53,580.84
143.66491,458.27,577.92
143.68474,457.29,578.87
143.70346,459.92,577.23
143.72254,456.15,579.22
143.74368,458.54,579.20
143.76498,458.43,577.44
143.78442,457.47,578.35
143.80457,464.09,583.92
143.82677,475.04,598.07
143.84596,489.54,609.85
143.86542,512.93,631.70
143.88782,537.78,650.78
143.90739,566.63,668.42
143.92951,591.92,678.99
143.94938,608.47,678.00
143.96895,611.13,675.84
143.98915,606.92,668.55
144.00870,600.56,660.56
144.02944,584.75,652.88
144.04998,575.84,640.69
144.06821,562.60,635.22
144.08917,549.34,626.33
144.10992,537.59,615.99
144.12984,522.90,611.66
144.14858,513.12,605.34
144.16973,501.27,602.35
144.18807,492.93,598.12
144.20857,485.28,595.24
144.22966,480.34,595.61
144.24827,479.76,596.16
144.26938,480.63,600.39
144.28818,480.19,600.04
144.30995,480.73,600.74
144.32966,476.55,597.22
144.34899,475.77,596.99
144.36996,469.99,592.90
144.38826,465.52,589.73
144.40823,463.71,589.17
144.42875,462.26,584.89
144.44902,454.92,584.48
144.46832,454.54,584.29
144.48903,453.36,583.70
144.50927,452.58,583.06
144.52874,447.58,581.73
144.54883,446.69,580.15
144.56844,444.13,579.13
144.58803,442.73,577.15
144.60928,445.57,578.65
144.62879,441.13,579.29
144.64835,440.47,577.33
144.66894,441.71,575.41
144.68907,438.68,578.45
144.70987,441.04,576.22
144.72829,437.12,576.41
144.74970,438.92,576.88
144.76979,439.29,577.29
144.78941,437.62,579.67
144.80987,440.18,579.37
144.82906,436.20,582.61
144.84942,437.57,581.77
144.86822,436.89,580.24
144.88917,440.13,581.85
144.90801,440.57,580.11
144.92840,440.50,580.40
144.94993,437.03,579.75
144.96820,436.00,578.68
144.98940,437.01,577.87
145.00964,437.38,576.06
145.02908,438.62,575.96
145.04875,439.66,578.59
145.06967,441.62,574.68
145.08970,439.59,573.17
145.10938,439.17,574.54
145.12969,438.69,572.61
145.15019,438.51,572.22
145.17015,439.01,573.21
145.18940,437.70,572.16
145.21069,437.00,572.11
145.23054,437.02,574.72
145.25027,439.76,571.32
145.26975,437.86,573.33
145.28986,436.23,572.26
145.30967,438.21,572.09
145.32902,440.12,574.49
145.34983,437.63,577.10
145.36991,438.99,574.29
145.38947,438.35,577.84
145.41106,438.65,577.31
145.43146,439.18,578.57
145.45194,440.23,579.62
145.47146,438.94,576.20
145.49149,441.06,575.83
145.51123,441.36,576.14
145.53182,439.62,578.23
145.55191,439.60,576.71
145.57104,437.09,574.77
145.59298,440.43,575.71
145.61028,439.85,575.86
145.63202,440.34,575.83
145.65111,442.44,577.80
145.67255,443.58,576.62
145.69288,442.68,577.73
145.71385,441.74,575.86
145.73200,443.14,575.75
145.75407,445.81,576.52
145.77436,445.42,576.51
145.79410,447.52,576.17
145.81567,447.92,575.61
145.83537,451.76,575.97
145.85508,450.65,577.39
145.87543,451.49,576.11
145.89630,453.11,577.12
145.91507,458.50,573.64
145.93479,459.01,575.04
145.95693,459.49,572.24
145.97619,457.46,574.79
145.99701,457.43,573.77
146.01832,459.94,576.80
146.03718,457.34,575.30
146.05798,458.15,578.53
146.07757,458.39,575.80
146.09958,458.89,577.76
146.11978,458.06,576.58
146.13936,459.48,576.39
146.16071,460.84,576.74
146.17974,458.15,577.94
146.19943,458.74,578.42
146.22095,459.30,578.02
146.24037,459.59,576.99
146.26021,457.18,573.85
146.28160,459.68,575.76
146.30242,456.20,574.69
146.32172,453.71,572.88
146.34251,455.99,573.99
146.36182,455.24,573.91
146.38326,451.57,570.63
146.40277,451.19,572.98
146.42207,448.43,572.11
146.44457,445.70,572.75
146.46328,447.47,571.30
146.48353,445.59,573.49
146.50548,447.62,574.63
146.52475,438.88,571.71
146.54514,422.18,569.04
146.56488,398.08,562.81
146.58565,374.94,559.13
146.60485,346.12,558.22
146.62577,326.40,554.40
146.64418,306.22,546.27
146.66497,294.72,534.63
146.68431,288.28,525.75
146.70474,286.77,519.93
146.72416,287.79,509.28
146.74524,293.47,505.51
146.76629,301.32,498.49
146.78661,308.50,494.85
146.80534,316.18,496.66
146.82786,325.40,493.36
146.84643,339.59,498.21
146.86789,347.35,499.58
146.88612,359.08,507.47
146.90712,368.55,510.09
146.92626,376.26,516.24
146.94620,385.66,523.80
146.96788,390.17,528.73
146.98677,397.01,536.10
147.00700,401.44,542.14
147.02777,408.81,544.75
147.04749,412.78,551.11
147.06627,411.97,554.56
147.08834,419.48,557.10
147.10709,419.44,556.85
147.12737,422.97,560.61
147.14700,423.95,564.79
147.16730,425.09,562.77
147.18807,427.29,566.86
147.20857,429.76,565.39
147.22718,430.06,569.58
147.24781,430.62,567.91
147.26619,432.20,568.90
147.28691,434.36,567.35
147.30747,434.90,568.14
147.32799,434.50,571.42
147.34622,433.32,571.28
147.36675,434.24,573.07
147.38728,434.42,570.74
147.40737,436.82,573.06
147.42745,441.40,577.73
147.44721,454.61,585.39
147.46776,468.89,604.13
147.48883,489.77,625.06
147.50892,514.08,642.00
147.52858,536.98,655.95
147.54828,556.44,666.09
147.56707,577.21,671.31
147.58758,593.00,677.11
147.60770,607.81,672.63
147.62765,608.99,664.34
147.64816,605.85,652.68
147.66746,599.05,641.23
147.68831,588.81,631.98
147.70783,574.20,621.28
147.72800,562.04,610.60
147.74736,549.34,603.07
147.76617,537.19,599.46
147.78621,525.75,592.84
147.80850,515.07,587.76
147.83074,507.57,584.88
147.84957,500.30,586.63
147.87252,495.12,581.05
147.89185,489.77,581.74
147.91251,483.80,580.48
147.93233,480.11,579.20
147.95136,480.18,578.49
147.97179,475.59,577.87
147.99173,471.76,576.79
148.01179,467.12,575.44
148.03082,465.98,572.02
148.05051,467.45,572.47
148.07050,465.28,574.12
148.09123,463.16,574.10
148.11486,466.01,574.24
148.13497,464.08,574.39
148.15369,467.46,577.40
148.17360,465.56,577.52
148.19450,467.55,575.55
148.21478,464.75,578.61
148.23593,463.91,579.09
148.25457,462.37,578.43
148.27362,462.98,579.01
148.29484,462.75,577.43
148.31502,463.53,578.13
148.33657,460.80,578.77
148.35728,461.36,577.13
148.37964,458.78,578.28
148.40087,456.17,579.57
148.41978,455.49,578.45
148.44107,452.22,576.57
148.46156,448.68,575.68
148.48152,446.81,575.92
148.50210,447.52,575.95
148.52244,446.04,577.53
148.54228,447.62,578.83
148.56022,444.89,578.05
148.58025,446.93,575.00
148.60110,446.49,576.71
148.62111,443.58,577.31
148.64173,442.10,577.32
148.66236,440.33,574.67
148.68326,436.78,576.10
148.70286,437.60,574.74
148.72375,438.94,574.77
148.74322,437.00,572.56
148.76211,437.99,574.98
148.78244,439.81,572.27
148.80298,437.49,572.79
148.82305,438.98,573.01
148.84321,440.33,571.60
148.86431,441.10,567.18
148.88507,438.97,560.20
148.90561,440.34,555.86
148.92625,439.31,553.11
148.94609,437.99,552.03
148.96512,437.91,552.55
148.98667,439.70,550.99
149.00693,437.77,554.56
149.02642,438.89,554.80
149.04753,440.28,557.68
149.06686,440.42,556.09
149.08795,442.09,558.87
149.10786,440.75,559.60
149.12783,441.37,560.54
149.14602,440.84,562.35
149.16885,445.21,563.75
149.18871,443.91,562.09
149.20837,448.30,565.34
149.22973,448.79,564.57
149.24741,447.12,566.94
149.26714,449.35,566.03
149.28740,448.43,568.75
149.30746,448.99,569.07
149.32770,449.07,571.30
149.34932,450.71,571.03
149.36704,451.59,572.57
149.38898,449.48,573.47
149.40783,450.45,574.62
149.42849,453.71,573.01
149.44940,449.68,572.27
149.46770,451.51,571.38
149.48812,452.37,571.09
149.50739,454.32,570.69
149.52781,452.76,572.16
149.54814,454.18,570.98
149.56747,454.32,572.96
149.58828,453.16,573.56
149.60763,455.21,570.35
149.62835,452.56,556.61
149.64823,447.83,541.44
149.66878,435.02,525.40
149.68994,428.67,518.13
149.70966,424.52,511.64
149.72984,421.34,510.84
149.74973,421.45,510.08
149.76892,424.67,513.70
149.78972,429.49,519.26
149.80826,431.40,525.81
149.82866,433.35,531.05
149.84814,438.81,538.07
149.86791,441.47,543.76
149.88772,444.25,552.59
149.90702,445.74,557.61
149.92827,446.73,560.15
149.94817,448.54,564.17
149.96860,454.09,569.80
149.98755,456.10,573.49
150.00718,454.56,574.80
150.02916,453.96,575.86
150.04897,456.34,578.62
150.06803,456.86,580.46
150.08949,454.64,584.31
150.10921,454.89,585.10
150.12916,454.59,586.54
150.14830,458.05,587.39
150.16917,456.48,589.98
150.18992,456.20,591.02
150.21044,454.98,593.03
150.23058,457.30,594.59
150.24804,456.98,597.65
150.26950,459.90,606.34
150.28989,458.42,621.19
150.30895,462.54,645.74
150.32954,463.35,669.44
150.35146,467.51,694.85
150.37210,467.20,703.30
150.39264,466.74,691.24
150.41122,467.63,669.13
150.43306,465.51,642.21
150.45350,462.45,616.37
150.47451,463.74,593.51
150.49480,462.03,575.76
150.51371,461.17,558.57
150.53438,461.73,546.09
150.55416,458.60,536.63
150.57377,459.94,529.50
150.59336,458.33,524.20
150.61332,457.82,524.23
150.63387,454.87,523.41
150.65487,453.78,526.58
150.67655,453.69,529.20
150.69557,455.34,534.24
150.71630,456.14,537.89
150.73642,452.75,540.39
150.75792,453.50,544.57
150.77864,452.62,549.84
150.79845,453.09,554.11
150.82057,449.85,557.65
150.84044,454.08,557.50
150.86121,451.99,560.86
150.88131,452.99,562.28
150.90210,455.94,566.40
150.92358,452.25,570.06
150.94487,449.77,570.52
150.96589,448.58,563.41
150.98569,443.77,556.66
151.00706,443.29,554.22
151.02840,442.33,553.50
151.04977,439.54,551.45
151.06801,434.10,556.08
151.08857,438.30,557.73
151.10902,434.57,558.46
151.13009,437.47,563.25
151.15087,440.61,567.81
151.17177,444.95,570.40
151.19169,447.82,574.61
151.21114,448.31,574.81
151.23069,447.17,577.02
151.25320,453.61,581.02
151.27218,454.54,579.69
151.29251,459.11,580.16
151.31231,455.34,584.26
151.33374,455.32,580.61
151.35224,454.69,582.74
151.37351,457.56,580.95
151.39319,458.26,581.01
151.41488,457.69,582.67
151.43374,456.23,582.75
151.45499,452.47,582.68
151.47573,453.95,584.94
151.49565,450.03,582.74
151.51502,449.39,585.73
151.53520,454.18,583.05
151.55509,453.55,585.77
151.57601,454.48,586.61
151.59552,453.09,584.32
151.61529,451.89,585.71
151.63753,451.31,583.64
151.65572,451.39,581.91
151.67682,451.08,583.39
151.69724,449.53,582.53
151.71778,450.18,582.20
151.73637,450.65,580.95
151.75764,451.63,579.74
151.77790,451.07,582.08
151.79760,448.89,582.04
151.81632,452.28,580.61
151.83650,452.28,590.56
151.85572,458.98,604.56
151.87618,459.33,609.31
151.89784,461.30,610.43
151.91803,459.92,610.75
151.93893,460.90,610.62
151.95855,458.52,609.50
151.97903,455.27,604.69
151.99876,453.11,600.00
152.01870,451.86,594.49
152.03785,450.60,595.14
152.05943,449.08,591.35
152.07814,447.50,588.51
152.09935,447.50,587.33
152.12038,446.86,586.42
152.13852,448.43,583.80
152.16014,446.93,582.70
152.17827,446.83,583.74
152.19966,447.29,579.98
152.21868,448.07,581.35
152.23964,445.65,582.67
152.26055,443.77,580.10
152.28253,448.93,579.52
152.30295,446.71,569.27
152.32117,437.38,547.53
152.34113,432.40,532.06
152.36258,428.21,518.42
152.38262,428.43,516.83
152.40166,429.18,514.88
152.42185,428.57,517.90
152.44237,432.43,522.02
152.46394,435.36,525.17
152.48426,434.89,532.39
152.50417,436.06,536.32
152.52453,438.90,542.87
152.54514,441.64,545.80
152.56529,440.37,549.57
152.58423,444.02,565.04
152.60507,455.08,587.79
152.62526,465.98,612.23
152.64508,471.99,625.56
152.66563,473.61,626.50
152.68441,475.45,623.67
152.70547,478.83,619.76
152.72598,481.29,615.93
152.74800,481.82,610.18
152.76785,478.82,608.17
152.78655,480.35,601.39
152.80899,475.37,596.87
152.82758,477.35,592.71
152.84731,473.36,591.79
152.86842,469.45,590.18
152.88870,468.58,588.55
152.90724,467.15,588.70
152.92830,463.58,585.97
152.94728,463.67,586.53
152.96875,464.09,584.02
152.98776,460.95,583.90
153.00832,457.42,580.61
153.02878,452.85,573.21
153.04814,450.77,569.94
153.06758,447.97,567.94
153.08700,446.45,566.80
153.10934,440.92,564.32
153.12968,440.62,565.74
153.14943,439.75,563.91
153.16994,439.64,566.56
153.18890,442.84,565.12
153.20979,441.63,566.13
153.22954,437.88,567.75
153.24964,441.57,569.94
153.27006,441.95,571.58
153.28921,440.58,571.47
153.31166,441.98,574.03
153.33167,443.43,574.70
153.35201,442.05,573.53
153.37305,444.73,577.67
153.39303,442.54,580.54
153.41384,447.32,581.00
153.43286,444.67,583.55
153.45262,443.45,580.76
153.47239,445.19,582.24
153.49389,444.62,579.78
153.51368,447.95,580.09
153.53450,444.23,579.10
153.55443,446.90,578.80
153.57304,443.80,575.92
153.59440,449.22,578.55
153.61349,446.10,576.80
153.63305,449.36,575.59
153.65407,448.79,579.70
153.67326,452.03,577.05
153.69430,453.69,581.78
153.71388,454.39,592.07
153.73391,457.33,601.69
153.75490,458.17,605.56
153.77370,459.05,606.52
153.79327,456.68,606.68
153.81309,458.73,605.35
153.83578,453.89,602.45
153.85570,451.44,600.51
153.87591,455.09,596.23
153.89467,455.36,595.43
153.91676,456.83,598.88
153.93545,457.46,594.16
153.95580,457.13,590.75
153.97536,452.00,589.69
153.99532,453.64,591.20
154.01664,449.90,586.54
154.03618,451.27,590.66
154.05702,447.43,590.07
154.07602,449.56,588.48
154.09732,441.73,587.53
154.11662,438.74,585.06
154.13683,434.21,582.52
154.15516,432.28,582.22
154.17546,432.83,581.41
154.19555,431.13,582.64
154.21548,431.15,583.34
154.23515,432.87,582.87
154.25771,435.17,584.55
154.27699,433.39,583.88
154.29607,435.06,584.51
154.31583,433.49,584.98
154.33740,434.41,587.77
154.35668,436.83,590.01
154.37620,438.82,592.44
154.39608,443.40,594.93
154.41534,438.83,592.24
154.43607,439.66,587.29
154.45525,440.07,586.42
154.47510,450.66,586.29
154.49625,464.02,586.93
154.51608,474.83,586.38
154.53545,490.62,593.48
154.55662,492.57,583.01
154.57669,488.83,580.90
154.59681,493.01,583.96
154.61564,484.46,581.81
154.63653,482.54,580.85
154.65504,484.19,574.25
154.67569,477.32,574.88
154.69556,477.51,576.86
154.71645,471.76,574.50
154.73573,471.36,568.54
154.75632,473.68,569.61
154.77637,468.47,569.93
154.79606,460.07,568.17
154.81696,457.21,567.64
154.83504,455.90,568.01
154.85684,452.41,567.10
154.87639,453.91,571.87
154.89542,451.25,576.09
154.91584,453.49,576.09
154.93567,449.13,579.01
154.95505,449.33,574.15
154.97584,450.18,574.90
154.99681,452.93,578.46
155.01524,449.64,576.66
155.03563,451.26,575.47
155.05517,447.25,573.44
155.07704,444.38,573.32
155.09651,449.23,580.49
155.11562,444.55,582.23
155.13710,445.77,581.07
155.15689,445.51,583.89
155.17697,449.56,585.96
155.19698,446.52,584.00
155.21617,448.95,586.83
155.23595,446.14,581.20
155.25668,444.26,582.30
155.27622,444.82,587.33
155.29752,443.25,586.78
155.31723,444.74,586.22
155.33635,439.62,585.12
155.35648,442.06,584.94
155.37626,442.38,583.58
155.39616,441.08,584.19
155.41660,444.48,580.34
155.43759,443.30,578.47
155.45604,446.99,578.64
155.47611,445.06,576.48
155.49535,446.18,576.04
155.51583,443.92,574.03
155.53604,444.25,575.00
155.55504,443.97,573.62
155.57652,446.30,575.70
155.59587,444.41,574.67
155.61638,444.78,574.86
155.63675,445.53,574.48
155.65788,447.24,573.88
155.67608,448.17,570.65
155.69757,446.43,572.10
155.71725,446.98,572.79
155.73732,445.58,573.33
155.75604,447.21,572.27
155.77652,443.76,573.05
155.79688,445.49,570.97
155.81655,445.04,571.08
155.83810,444.01,572.38
155.85672,445.05,574.44
155.87621,444.45,576.32
155.89674,446.60,577.54
155.91874,451.17,573.70
155.93759,449.20,575.61
155.95860,450.80,573.89
155.97984,450.56,574.24
155.99858,453.09,571.49
156.01944,451.54,574.77
