Program Time [s],data 0,data 1
5.80107,425.25,561.65
5.82083,427.29,561.46
5.84122,423.11,561.52
5.86066,427.89,555.13
5.88029,424.22,555.83
5.90020,423.88,557.99
5.92135,422.09,557.99
5.94016,421.94,562.93
5.96023,422.42,567.58
5.98041,426.94,569.16
6.00111,427.97,565.77
6.01996,425.17,572.58
6.04026,425.56,568.23
6.06156,426.32,569.03
6.08061,429.21,567.67
6.10122,428.27,571.26
6.12051,428.21,566.88
6.14171,423.98,562.56
6.16051,425.23,571.15
6.18070,427.85,570.82
6.20057,427.13,573.48
6.22088,427.37,577.94
6.24087,430.59,577.05
6.26170,427.61,578.59
6.28095,430.64,581.34
6.30216,424.85,586.50
6.32207,422.71,584.46
6.34176,417.48,583.11
6.36237,416.58,586.59
6.38176,418.49,597.69
6.40146,425.95,625.19
6.42333,435.81,681.12
6.44364,448.43,731.09
6.46179,460.31,779.97
6.48336,466.92,805.94
6.50350,474.29,820.95
6.52332,471.72,822.80
6.54410,475.94,811.64
6.56380,473.78,791.97
6.58464,470.46,769.15
6.60362,467.95,739.80
6.62434,462.39,715.52
6.64285,459.30,695.78
6.66432,453.23,684.70
6.68397,449.81,676.20
6.70403,445.72,666.66
6.72472,443.45,660.54
6.74301,444.60,648.66
6.76409,436.18,633.40
6.78484,426.70,605.86
6.80395,418.96,571.43
6.82442,406.97,533.87
6.84471,391.41,498.29
6.86508,379.60,462.82
6.88414,367.23,438.31
6.90567,359.86,412.43
6.92566,356.11,398.93
6.94412,358.41,385.52
6.96407,360.21,384.58
6.98467,366.30,388.56
7.00451,373.95,387.16
7.02566,376.20,395.37
7.04415,389.79,407.12
7.06488,390.98,420.04
7.08424,395.13,441.09
7.10410,396.44,455.05
7.12504,400.51,468.93
7.14556,404.71,478.36
7.16545,407.44,491.19
7.18487,407.80,500.70
7.20412,409.86,516.44
7.22558,412.20,527.29
7.24412,417.69,537.69
7.26431,415.59,539.71
7.28585,417.49,541.28
7.30505,420.86,549.25
7.32458,425.99,551.44
7.34482,426.63,552.95
7.36422,422.85,557.79
7.38458,421.82,559.61
7.40524,421.05,558.94
7.42571,421.15,560.40
7.44483,425.88,562.75
7.46544,422.21,563.94
7.48477,424.88,562.93
7.50496,422.63,564.10
7.52415,421.88,565.02
7.54400,423.89,563.11
7.56448,424.16,565.27
7.58484,426.90,568.88
7.60531,423.47,565.02
7.62431,421.21,565.80
7.64532,420.90,564.97
7.66564,422.13,564.54
7.68463,419.63,564.89
7.70548,421.21,560.60
7.72534,421.50,558.01
7.74576,421.75,559.93
7.76471,421.47,559.15
7.78521,421.05,558.73
7.80654,425.60,556.71
7.82644,425.07,556.15
7.84527,425.87,557.54
7.86635,428.29,556.84
7.88645,428.23,556.93
7.90597,431.51,556.91
7.92520,433.69,557.94
7.94593,433.20,559.70
7.96500,432.27,564.54
7.98589,433.23,565.60
8.00581,435.64,565.87
8.02647,434.00,564.27
8.04675,433.23,568.27
8.06577,433.16,566.78
8.08647,432.46,567.39
8.10496,432.49,565.79
8.12500,433.63,567.77
8.14569,434.76,566.09
8.16556,431.37,562.58
8.18663,432.52,559.61
8.20622,431.10,559.68
8.22541,430.63,555.71
8.24545,430.43,553.40
8.26580,432.55,555.14
8.28561,432.23,555.24
8.30629,431.56,553.99
8.32488,434.42,553.34
8.34648,434.57,554.57
8.36518,434.94,557.20
8.38661,434.11,557.11
8.40607,435.04,561.68
8.42557,436.50,560.16
8.44530,435.47,563.16
8.46571,434.92,563.99
8.48492,434.57,566.35
8.50581,438.98,567.01
8.52595,436.65,567.11
8.54655,437.92,569.71
8.56529,435.59,566.91
8.58566,434.49,567.03
8.60626,435.95,567.32
8.62661,435.29,566.65
8.64534,435.82,567.63
8.66662,435.94,562.65
8.68768,434.31,563.38
8.70758,436.12,563.34
8.72685,435.05,562.83
8.74717,436.95,561.66
8.76726,437.75,563.71
8.78713,433.06,568.28
8.80763,420.46,570.25
8.82617,402.31,566.16
8.84661,378.80,555.11
8.86632,360.02,541.97
8.88673,340.26,526.21
8.90608,324.08,513.61
8.92652,311.80,499.05
8.94703,305.56,489.64
8.96601,301.82,483.80
8.98715,303.57,482.34
9.00634,307.10,481.02
9.02686,312.09,482.41
9.04717,319.26,485.92
9.06681,324.54,493.85
9.08683,335.08,498.44
9.10714,344.28,503.60
9.12778,352.15,507.79
9.14673,359.04,514.29
9.16754,368.62,520.41
9.18638,373.99,525.61
9.20750,383.37,531.37
9.22614,389.18,536.62
9.24689,394.99,540.27
9.26706,404.40,541.38
9.28734,408.24,544.98
9.30719,410.99,549.25
9.32565,416.64,551.82
9.34650,420.92,554.53
9.36597,420.00,555.28
9.38821,423.90,554.50
9.40807,426.35,556.78
9.42701,431.05,557.54
9.44753,430.47,561.00
9.46795,432.95,562.67
9.48671,435.54,564.70
9.50691,434.63,565.32
9.52858,436.17,563.94
9.54724,438.65,564.36
9.56773,436.13,563.79
9.58802,436.80,565.46
9.60714,438.35,564.67
9.62816,439.92,565.95
9.64828,436.62,566.84
9.66861,438.08,572.09
9.68919,448.15,578.84
9.70931,458.58,599.34
9.72911,478.04,623.14
9.74829,502.43,664.08
9.76882,523.41,704.01
9.78934,549.96,731.15
9.80798,568.94,740.29
9.82768,583.21,729.77
9.84931,595.50,715.18
9.86925,600.81,690.38
9.88787,599.45,666.85
9.90805,592.59,645.22
9.92820,584.19,621.86
9.94859,571.09,602.17
9.96974,560.45,585.15
9.98796,545.31,572.84
10.00917,532.41,563.36
10.02858,518.94,554.85
10.04966,506.12,549.30
10.06904,499.36,543.08
10.08875,487.00,542.11
10.10832,478.27,542.59
10.12884,470.20,538.40
10.14972,463.79,542.75
10.16815,459.57,542.13
10.18807,458.31,543.88
10.20904,453.50,546.77
10.22943,452.49,547.94
10.24959,450.98,549.37
10.26822,448.16,549.78
10.28947,444.55,551.52
10.30957,444.71,553.21
10.32789,441.98,556.12
10.34953,440.98,556.31
10.36844,441.34,557.78
10.38867,439.65,560.11
10.40795,440.16,562.60
10.42916,441.73,563.66
10.44787,439.26,564.22
10.46792,440.14,565.73
10.48875,441.21,563.34
10.50926,440.79,564.78
10.52861,439.79,565.44
10.54965,439.40,565.51
10.56918,441.61,566.52
10.58795,438.33,565.59
10.60893,440.27,567.08
10.62945,439.74,566.43
10.64782,436.40,568.36
10.66837,438.13,565.25
10.68935,436.23,566.13
10.70926,437.87,569.64
10.72967,435.08,569.84
10.74840,438.07,569.91
10.76809,437.39,570.25
10.78913,435.88,569.94
10.80911,435.30,569.98
10.82919,438.62,569.12
10.84916,436.15,570.43
10.86929,439.48,567.29
10.88820,437.14,569.07
10.90799,438.17,567.04
10.92960,439.00,569.01
10.94889,438.99,571.67
10.96801,439.82,570.98
10.98817,439.31,568.35
11.00911,436.19,567.49
11.03072,434.57,566.72
11.05048,436.27,567.96
11.07007,433.65,568.31
11.09069,436.34,567.45
11.10929,432.33,567.17
11.12860,430.72,566.56
11.14982,431.94,565.87
11.16974,431.27,565.60
11.19062,431.33,567.51
11.21086,429.90,565.85
11.23132,430.96,565.68
11.25149,429.65,564.48
11.27031,428.11,566.70
11.29110,429.00,566.22
11.31131,429.26,564.49
11.32993,427.97,565.53
11.35108,426.07,563.21
11.37183,428.32,565.16
11.39155,430.04,565.13
11.41006,428.35,566.10
11.43114,427.63,566.31
11.44967,428.03,565.92
11.47053,427.47,566.53
11.48983,427.53,566.89
11.51084,426.17,567.66
11.53188,424.88,568.70
11.54975,426.81,568.59
11.57168,425.83,568.17
11.59126,426.37,570.44
11.61097,425.69,570.14
11.63152,428.07,567.82
11.65105,428.21,568.50
11.66964,428.70,568.42
11.69057,430.11,567.47
11.71145,426.84,567.14
11.72994,426.86,567.38
11.75087,429.03,566.41
11.77079,429.32,567.17
11.79021,429.75,567.22
11.81135,428.35,567.67
11.83058,426.27,565.43
11.84984,426.67,566.06
11.87054,426.77,568.32
11.89178,426.70,565.60
11.91148,427.02,567.05
11.93092,428.08,565.60
11.95091,428.76,566.65
11.97121,428.11,564.80
11.99000,427.21,565.56
12.01158,430.48,566.90
12.03092,429.89,565.25
12.04983,427.86,565.26
12.07189,426.85,565.41
12.09129,429.61,565.96
12.10999,426.94,566.12
12.12976,426.71,563.31
12.15136,426.95,564.32
12.17127,426.35,562.89
12.19149,427.12,565.10
12.21007,427.90,566.61
12.22985,426.97,565.34
12.25130,426.43,565.15
12.26995,424.72,567.53
12.29057,426.81,565.66
12.31054,428.10,564.00
12.33064,426.67,565.56
12.35070,424.07,562.79
12.37052,425.13,564.63
12.38971,426.26,562.44
12.40996,427.11,563.03
12.43143,426.09,562.08
12.44988,424.13,562.82
12.47095,425.40,563.15
12.49127,423.77,565.22
12.51076,424.19,565.83
12.53000,423.73,565.32
12.55162,421.39,566.83
12.57076,422.02,567.39
12.59116,422.57,568.41
12.60998,422.93,570.04
12.63060,423.63,568.10
12.65088,421.98,569.66
12.67130,423.09,569.00
12.68999,422.28,567.01
12.71124,421.98,565.74
12.73038,421.31,568.37
12.75035,421.16,566.98
12.76990,422.97,566.16
12.79080,424.69,565.06
12.81115,425.36,564.36
12.83143,423.15,566.36
12.85070,425.24,566.91
12.87136,423.57,566.49
12.89094,423.32,566.47
12.91007,421.07,566.81
12.93016,421.01,564.64
12.95118,423.40,563.59
12.97123,415.64,563.58
12.99077,401.75,559.86
13.01073,387.27,551.51
13.03032,366.52,537.51
13.05140,344.10,530.88
13.07134,325.22,520.35
13.09106,311.39,510.30
13.11101,298.53,506.31
13.13042,290.57,504.71
13.15146,288.40,503.96
13.17155,285.24,503.34
13.19003,291.14,508.61
13.20984,294.95,510.15
13.23157,301.00,512.09
13.25078,305.45,518.21
13.27241,314.81,519.32
13.29183,321.67,525.71
13.31266,333.43,528.06
13.33259,341.97,534.32
13.35243,352.31,537.50
13.37256,360.82,540.23
13.39379,363.39,543.17
13.41233,370.24,546.56
13.43312,378.43,549.38
13.45299,384.40,548.46
13.47332,388.73,553.62
13.49382,390.92,554.69
13.51383,394.52,555.21
13.53346,397.74,556.15
13.55337,399.34,555.62
13.57427,400.10,557.22
13.59349,405.52,559.79
13.61296,403.33,560.69
13.63391,405.07,559.98
13.65459,405.96,561.10
13.67387,407.36,560.67
13.69366,408.99,562.67
13.71344,409.93,561.38
13.73463,408.96,564.03
13.75312,408.82,562.14
13.77372,411.08,561.50
13.79280,411.53,563.51
13.81384,412.39,561.36
13.83484,411.87,563.28
13.85427,413.81,563.83
13.87332,412.67,563.73
13.89280,411.96,560.72
13.91428,412.78,561.11
13.93441,410.36,562.81
13.95451,411.56,562.36
13.97303,410.94,564.27
13.99433,419.80,565.96
14.01393,434.38,575.50
14.03356,454.60,583.98
14.05452,480.90,595.29
14.07297,511.46,602.06
14.09460,534.83,611.55
14.11420,560.37,617.64
14.13336,571.40,618.65
14.15306,577.83,615.95
14.17409,575.52,612.63
14.19263,568.98,607.30
14.21452,556.38,598.53
14.23287,543.55,591.14
14.25352,533.27,586.55
14.27343,518.89,580.75
14.29390,507.24,577.85
14.31324,496.33,573.71
14.33358,489.45,571.14
14.35286,479.91,564.81
14.37468,469.47,563.15
14.39287,463.21,562.53
14.41347,457.96,563.09
14.43439,453.64,562.90
14.45344,448.73,559.98
14.47409,444.70,558.12
14.49437,439.68,560.52
14.51349,435.85,557.96
14.53393,432.73,559.52
14.55476,432.19,556.84
14.57356,429.90,557.25
14.59425,425.37,559.14
14.61420,427.71,559.55
14.63385,426.72,558.16
14.65318,422.62,559.05
14.67412,424.55,559.70
14.69306,422.81,558.28
14.71421,423.38,556.84
14.73334,422.29,561.30
14.75339,419.66,560.67
14.77391,420.17,561.54
14.79289,421.02,558.95
14.81298,420.71,559.82
14.83299,420.32,560.65
14.85258,419.88,557.40
14.87450,420.10,558.20
14.89457,416.75,561.13
14.91364,417.38,559.14
14.93365,417.91,559.60
14.95355,420.14,557.55
14.97313,417.20,560.67
14.99438,415.91,560.18
15.01389,418.26,559.33
15.03396,418.54,560.60
15.05422,417.47,557.95
15.07336,419.52,560.93
15.09403,420.33,559.53
15.11441,416.25,557.67
15.13359,417.54,558.61
15.15423,418.94,559.87
15.17466,414.76,561.28
15.19288,414.17,560.52
15.21351,414.53,558.76
15.23297,415.89,559.07
15.25263,419.24,559.74
15.27319,417.42,558.11
15.29370,417.93,558.03
15.31353,419.85,556.94
15.33444,417.12,559.02
15.35363,418.54,559.55
15.37460,419.06,559.45
15.39418,417.42,557.51
15.41390,416.57,560.72
15.43366,416.44,562.21
15.45305,419.08,561.91
15.47370,417.41,559.86
15.49379,419.68,559.40
15.51262,415.61,559.80
15.53361,417.06,562.21
15.55427,418.18,560.65
15.57442,415.37,558.01
15.59282,416.80,560.75
15.61274,417.32,558.42
15.63435,417.62,559.67
15.65399,417.95,558.07
15.67405,418.00,560.39
15.69298,420.67,558.79
15.71367,419.44,557.60
15.73316,420.32,557.81
15.75304,420.57,559.47
15.77328,419.88,557.35
15.79365,417.37,557.49
15.81263,420.34,557.13
15.83425,418.78,556.79
15.85444,418.49,554.98
15.87553,419.80,558.09
15.89559,419.53,556.89
15.91398,420.00,557.87
15.93494,420.04,558.00
15.95424,422.31,556.52
15.97463,423.02,559.00
15.99458,420.16,559.67
16.01485,421.13,558.27
16.03504,421.14,557.10
16.05411,422.29,557.92
16.07469,420.93,557.20
16.09456,419.25,559.20
16.11820,422.35,555.98
16.13520,418.53,557.59
16.15375,421.88,559.35
16.17414,423.09,557.74
16.19539,423.31,555.29
16.21389,422.52,557.63
16.23467,422.47,559.79
16.25363,423.03,559.73
16.27466,423.61,559.67
16.29389,423.28,558.59
16.31489,426.00,556.41
16.33407,425.79,556.35
16.35404,427.68,556.66
16.37448,429.52,556.36
16.39411,428.73,557.38
16.41473,428.61,559.49
16.43471,428.96,558.82
16.45385,425.19,558.55
16.47519,424.57,559.84
16.49477,422.89,562.12
16.51501,422.24,558.94
16.53353,424.80,559.60
16.55434,425.18,560.65
16.57556,423.92,560.81
16.59537,423.47,560.78
16.61500,423.98,559.09
16.63459,423.35,558.39
16.65373,421.48,560.48
16.67484,419.46,556.70
16.69526,423.41,557.56
16.71527,422.46,559.37
16.73477,423.88,558.77
16.75507,422.44,559.13
16.77408,424.44,557.90
16.79578,422.76,558.45
16.81491,425.78,559.30
16.83451,425.84,558.77
16.85403,425.66,559.67
16.87399,426.28,561.15
16.89467,424.40,560.82
16.91383,422.04,561.78
16.93456,424.02,559.30
16.95550,424.78,563.43
16.97403,426.37,560.16
16.99559,424.92,562.03
17.01374,423.46,561.99
17.03513,426.56,561.94
17.05382,425.46,560.18
17.07390,424.61,557.69
17.09550,426.03,558.88
17.11385,424.47,556.29
17.13468,427.45,556.01
17.15566,421.72,551.80
17.17474,408.64,547.43
17.19450,388.37,543.14
17.21466,365.12,540.45
17.23347,342.12,536.55
17.25522,322.78,534.06
17.27419,308.88,529.12
17.29443,301.20,521.71
17.31468,294.52,517.31
17.33412,292.73,514.54
17.35522,293.06,509.81
17.37428,297.29,509.47
17.39416,302.08,508.29
17.41345,309.59,508.00
17.43554,316.05,512.56
17.45553,325.09,513.46
17.47433,333.23,518.52
17.49392,344.16,519.84
17.51544,351.88,525.32
17.53403,362.95,530.00
17.55465,372.26,532.52
17.57565,377.92,538.22
17.59471,384.11,540.03
17.61485,389.58,544.15
17.63472,395.20,546.49
17.65408,399.29,549.15
17.67434,401.05,548.75
17.69511,405.98,549.86
17.71480,408.30,551.56
17.73345,409.72,551.40
17.75551,410.38,551.21
17.77490,414.40,555.00
17.79544,416.86,553.02
17.81569,418.40,555.55
17.83502,419.41,556.75
17.85469,420.48,554.68
17.87450,419.14,555.06
17.89561,421.08,558.03
17.91464,422.98,555.81
17.93443,423.11,555.54
17.95434,422.42,555.52
17.97516,423.04,558.28
17.99545,427.88,557.77
18.01381,438.88,568.04
18.03388,454.45,585.52
18.05461,468.70,604.55
18.07524,487.73,616.80
18.09437,506.73,623.66
18.11485,529.62,626.69
18.13465,549.28,622.56
18.15506,572.43,619.97
18.17492,582.29,613.07
18.19414,586.96,605.20
18.21373,579.95,596.37
18.23407,573.22,587.57
18.25534,561.42,582.43
18.27353,550.67,575.46
18.29521,535.91,569.25
18.31555,527.68,565.28
18.33538,518.48,563.84
18.35508,507.41,561.78
18.37638,498.19,557.82
18.39519,492.71,556.21
18.41605,486.12,559.02
18.43480,476.97,557.75
18.45580,470.79,555.71
18.47484,464.11,555.64
18.49611,460.39,553.11
18.51511,457.00,556.52
18.53562,455.51,555.65
18.55598,453.56,556.92
18.57572,448.76,555.50
18.59658,447.96,557.14
18.61462,445.12,557.20
18.63504,447.10,558.53
18.65482,445.01,558.31
18.67486,445.24,559.89
18.69533,440.80,562.71
18.71505,441.93,562.74
18.73616,439.31,562.95
18.75470,437.50,562.23
18.77539,438.64,563.40
18.79496,438.75,559.79
18.81613,435.55,560.57
18.83592,437.37,562.85
18.85524,439.13,564.42
18.87519,436.86,563.67
18.89580,437.52,561.39
18.91544,436.84,560.13
18.93481,435.38,562.60
18.95638,434.60,562.32
18.97607,438.15,561.36
18.99502,436.10,563.35
19.01515,437.71,562.25
19.03478,436.62,562.68
19.05607,436.46,564.50
19.07527,436.75,564.44
19.09496,434.07,564.60
19.11662,436.91,562.68
19.13547,433.62,565.36
19.15478,434.13,562.62
19.17462,434.35,563.82
19.19471,435.35,562.83
19.21492,436.78,565.18
19.23648,436.22,565.95
19.25514,438.11,564.27
19.27617,439.87,563.12
19.29557,439.94,563.53
19.31620,440.15,562.20
19.33594,440.32,564.70
19.35488,437.54,562.39
19.37654,436.95,562.12
19.39578,438.11,563.12
19.41488,438.72,560.53
19.43498,436.96,561.11
19.45471,439.91,561.16
19.47549,438.90,561.46
19.49631,438.63,560.75
19.51590,438.64,560.68
19.53569,439.23,562.30
19.55646,437.26,561.43
19.57567,437.25,563.15
19.59463,436.69,561.29
19.61603,437.42,560.63
19.63543,437.61,561.85
19.65479,436.53,561.28
19.67580,437.35,561.39
19.69642,438.36,563.46
19.71478,440.64,562.14
19.73544,441.01,564.02
19.75512,441.91,565.84
19.77580,439.84,562.23
19.79534,442.22,562.61
19.81579,439.51,564.84
19.83486,439.45,564.11
19.85621,437.95,562.48
19.87505,440.29,562.19
19.89525,438.90,563.94
19.91627,435.03,563.11
19.93506,438.47,563.06
19.95555,435.51,561.63
19.97532,436.09,564.02
19.99527,437.22,561.99
20.01640,440.81,566.38
20.03624,438.69,566.90
20.05522,441.62,565.21
20.07541,440.37,565.52
20.09505,435.75,569.60
20.11622,431.44,571.61
20.13785,430.43,570.02
20.15536,427.14,570.34
20.17479,428.51,571.42
20.19471,429.72,571.15
20.21551,426.39,569.66
20.23487,430.05,571.70
20.25468,428.79,571.95
20.27602,429.58,568.82
20.29558,434.10,569.14
20.31525,431.84,566.93
20.33520,431.84,567.26
20.35478,433.45,563.74
20.37616,431.67,566.27
20.39575,431.58,562.03
20.41540,433.35,562.52
20.43629,433.68,561.07
20.45584,434.49,562.87
20.47564,436.30,562.45
20.49555,434.30,561.78
20.51565,436.13,559.44
20.53645,435.92,562.04
20.55572,435.32,560.97
20.57465,435.53,559.57
20.59575,437.45,559.84
20.61612,435.40,560.19
20.63568,437.88,557.29
20.65499,435.58,560.98
20.67621,439.05,558.81
20.69633,435.02,560.30
20.71640,437.77,559.19
20.73607,436.54,560.63
20.75531,439.57,559.86
20.77547,437.07,562.01
20.79619,436.34,562.60
20.81584,439.42,560.72
20.83516,440.94,563.30
20.85641,440.49,562.45
20.87520,436.30,562.24
20.89489,438.18,561.36
20.91629,438.10,562.93
20.93502,435.67,562.69
20.95468,438.82,564.46
20.97503,440.18,563.88
20.99558,437.55,565.15
21.01635,437.93,563.04
21.03603,436.82,563.86
21.05596,440.56,562.54
21.07481,440.05,562.08
21.09524,441.26,564.62
21.11548,440.07,564.79
21.13521,439.66,563.76
21.15633,440.45,565.51
21.17518,441.29,566.86
21.19584,440.98,566.09
21.21529,437.10,566.40
21.23476,439.34,566.13
21.25665,439.80,562.63
21.27706,436.33,566.19
21.29584,440.46,565.14
21.31708,438.84,567.66
21.33642,436.50,565.74
21.35607,437.96,565.05
21.37689,437.79,564.00
21.39690,440.15,565.23
21.41646,438.68,564.36
21.43729,428.76,561.75
21.45601,412.39,549.93
21.47620,388.70,537.92
21.49579,363.70,528.24
21.51562,344.16,515.19
21.53614,327.70,507.40
21.55618,318.83,503.16
21.57686,313.27,501.35
21.59654,307.85,500.44
21.61563,311.00,503.31
21.63699,315.42,505.09
21.65548,325.58,508.42
21.67622,330.72,515.60
21.69570,340.95,516.67
21.71609,351.95,523.41
21.73566,358.06,527.77
21.75695,366.73,532.13
21.77609,376.47,537.50
21.79594,385.12,541.74
21.81683,391.74,545.57
21.83667,398.45,545.01
21.85571,401.17,549.12
21.87606,407.29,554.43
21.89736,414.16,557.57
21.91648,413.54,557.27
21.93737,419.01,561.01
21.95608,418.86,563.22
21.97676,420.45,563.99
21.99649,422.94,563.53
22.01697,426.42,563.69
22.03625,426.89,566.54
22.05648,426.34,564.42
22.07635,426.93,563.30
22.09679,426.98,566.84
22.11669,429.11,565.50
22.13734,428.70,566.96
22.15629,432.70,566.76
22.17585,430.77,563.77
22.19597,433.08,563.72
22.21556,436.24,566.77
22.23588,437.20,563.69
22.25728,435.30,564.67
22.27594,434.92,563.31
22.29592,434.87,563.10
22.31726,435.89,566.14
22.33747,437.85,563.61
22.35662,435.93,562.99
22.37686,437.01,566.12
22.39594,435.77,563.44
22.41689,438.92,564.91
22.43561,439.50,568.65
22.45571,446.75,576.92
22.47730,463.30,587.52
22.49718,488.05,603.93
22.51710,515.55,617.91
22.53663,543.15,628.90
22.55621,566.13,631.16
22.57704,573.60,630.27
22.59565,575.68,629.79
22.61598,573.93,623.75
22.63690,565.52,618.20
22.65677,556.84,613.44
22.67608,545.74,605.33
22.69699,534.48,598.89
22.71658,521.38,594.88
22.73599,517.96,591.57
22.75658,509.70,585.83
22.77730,503.91,582.92
22.79701,497.62,578.89
22.81621,491.10,577.38
22.83565,485.23,573.61
22.85583,477.35,571.23
22.87712,471.38,570.67
22.89591,469.17,568.77
22.91580,461.39,567.29
22.93590,458.14,568.98
22.95712,456.53,566.24
22.97602,453.11,567.24
22.99654,448.66,565.16
23.01581,449.35,565.58
23.03620,447.47,566.21
23.05711,443.77,566.13
23.07555,443.45,564.16
23.09565,443.92,566.13
23.11696,440.01,563.08
23.13575,441.47,563.52
23.15745,438.96,567.43
23.17591,438.27,565.53
23.19721,438.09,563.40
23.21695,436.60,564.21
23.23679,436.87,563.35
23.25725,437.91,565.59
23.27575,438.18,563.02
23.29610,437.64,564.48
23.31671,435.46,561.05
23.33562,433.95,565.01
23.35662,436.27,565.46
23.37677,435.94,564.80
23.39681,431.97,563.76
23.41676,435.54,563.69
23.43672,434.67,565.86
23.45662,434.24,564.41
23.47733,435.42,564.25
23.49724,437.81,566.12
23.51636,444.60,568.83
23.53540,451.17,569.68
23.55582,452.13,567.66
23.57730,454.01,566.60
23.59696,449.76,565.87
23.61629,450.65,564.69
23.63724,448.53,564.96
23.65546,449.07,563.09
23.67726,447.99,564.26
23.69630,446.11,563.07
23.71724,446.70,564.36
23.73657,441.80,564.57
23.75598,442.49,562.85
23.77606,440.38,563.95
23.79663,438.57,563.80
23.81688,437.76,561.81
23.83737,435.73,562.63
23.85628,439.24,560.92
23.87550,435.28,559.98
23.89664,438.08,562.74
23.91627,436.13,561.37
23.93714,434.12,561.01
23.95681,431.53,561.74
23.97589,429.81,560.80
23.99640,429.82,561.77
24.01632,428.90,561.22
24.03670,429.21,560.89
24.05700,430.25,562.95
24.07559,429.95,560.34
24.09693,431.14,562.19
24.11635,430.37,561.97
24.13611,427.95,561.30
24.15650,431.10,562.66
24.17600,431.16,561.79
24.19656,429.75,562.95
24.21594,430.90,564.03
24.23591,433.53,567.99
24.25747,436.95,569.11
24.27579,441.14,573.47
24.29592,440.82,570.05
24.31631,442.27,569.98
24.33700,441.50,573.05
24.35624,442.24,573.60
24.37749,438.41,570.01
24.39714,438.34,569.75
24.41557,439.77,568.70
24.43569,438.44,570.48
24.45662,436.67,565.40
24.47717,437.01,567.65
24.49599,435.99,567.30
24.51607,436.21,565.50
24.53645,431.17,562.68
24.55649,432.98,560.74
24.57697,431.29,559.70
24.59599,434.35,561.98
24.61603,432.61,558.03
24.63694,433.35,559.46
24.65738,431.98,560.59
24.67558,433.83,561.83
24.69718,431.62,558.73
24.71704,432.52,560.16
24.73640,431.80,557.31
24.75692,429.65,561.21
24.77685,429.44,559.77
24.79658,429.47,560.39
24.81658,428.82,561.82
24.83679,427.31,560.89
24.85618,428.21,561.47
24.87559,429.74,560.59
24.89630,429.80,561.02
24.91588,431.16,559.85
24.93739,428.76,560.00
24.95700,430.80,559.28
24.97637,428.66,561.21
24.99627,428.18,559.24
25.01572,427.80,558.27
25.03615,428.94,558.77
25.05635,427.43,559.13
25.07639,428.48,560.24
25.09632,426.63,558.24
25.11631,426.46,558.77
25.13709,426.82,556.97
25.15607,430.11,557.12
25.17638,426.29,559.60
25.19680,428.16,559.80
25.21546,427.65,557.48
25.23639,427.25,558.55
25.25590,425.87,560.78
25.27688,427.80,559.27
25.29655,425.96,562.87
25.31674,426.73,563.47
25.33716,426.81,559.84
25.35548,426.79,561.36
25.37552,427.10,561.69
25.39564,423.89,562.64
25.41552,425.37,563.14
25.43573,423.83,558.33
25.45731,425.74,559.84
25.47730,426.12,562.51
25.49543,424.70,562.07
25.51570,424.61,562.96
25.53578,424.46,559.84
25.55589,422.67,560.72
25.57550,421.34,562.54
25.59598,421.59,561.32
25.61715,421.29,559.21
25.63628,421.35,559.89
25.65642,423.49,562.26
25.67625,422.16,559.15
25.69713,421.82,559.09
25.71631,423.96,559.77
25.73723,424.95,558.14
25.75696,425.34,559.44
25.77675,422.61,561.15
25.79688,424.26,556.16
25.81717,422.85,556.79
25.83588,423.00,555.89
25.85594,423.35,556.85
25.87616,421.61,559.44
25.89607,418.37,560.08
25.91637,405.70,558.63
25.93581,385.73,559.13
25.95634,366.00,562.34
25.97719,343.54,558.82
25.99727,324.64,548.34
26.01592,306.39,537.67
26.03627,294.65,526.36
26.05637,284.21,513.01
26.07706,282.61,506.07
26.09620,281.61,496.71
26.11701,288.00,494.03
26.13596,290.11,488.57
26.15576,302.54,491.07
26.17672,312.12,493.62
26.19675,319.99,500.77
26.21656,331.03,504.01
26.23685,339.45,512.73
26.25737,351.08,517.39
26.27628,358.23,523.66
26.29705,364.63,527.92
26.31593,372.59,534.43
26.33564,377.05,537.51
26.35550,384.58,538.14
26.37749,386.60,542.70
26.39648,390.60,542.77
26.41677,396.86,546.58
26.43683,400.63,547.01
26.45727,403.85,551.78
26.47638,405.97,553.49
26.49578,409.67,550.71
26.51576,409.17,554.54
26.53698,410.26,553.77
26.55720,410.90,555.42
26.57652,411.05,555.87
26.59639,414.40,557.77
26.61629,413.85,560.41
26.63552,413.48,561.66
26.65740,414.45,563.38
26.67738,415.56,560.81
26.69710,416.44,561.39
26.71705,418.32,563.20
26.73635,418.44,563.48
26.75677,419.58,562.10
26.77647,417.78,560.32
26.79673,417.89,561.49
26.81681,417.13,561.12
26.83679,416.95,559.93
26.85638,416.35,557.60
26.87632,415.32,560.21
26.89600,414.07,559.56
26.91575,421.33,569.49
26.93653,436.89,579.26
26.95613,460.61,592.42
26.97729,486.14,603.44
26.99576,513.27,617.57
27.01690,537.56,626.07
27.03606,552.33,627.08
27.05699,559.61,625.01
27.07737,557.85,623.14
27.09596,551.34,615.96
27.11711,548.04,611.48
27.13643,538.61,607.23
27.15604,527.79,599.71
27.17720,515.50,596.93
27.19678,505.04,592.92
27.21685,493.78,587.58
27.23630,483.69,584.48
27.25590,476.59,580.75
27.27578,466.36,577.43
27.29553,458.19,574.08
27.31630,455.34,577.92
27.33558,456.75,579.99
27.35638,458.16,582.84
27.37735,457.00,582.40
27.39630,454.20,581.70
27.41548,453.83,581.69
27.43534,451.86,577.26
27.45648,448.15,576.85
27.47647,445.55,577.21
27.49736,438.88,572.48
27.51611,436.43,571.87
27.53700,433.72,568.03
27.55608,430.27,569.48
27.57605,430.36,566.80
27.59588,429.64,566.44
27.61702,430.14,563.44
27.63683,424.98,564.30
27.65646,424.86,562.35
27.67608,421.54,564.43
27.69702,424.56,566.07
27.71720,423.29,563.48
27.73640,422.85,566.30
27.75663,419.95,564.13
27.77684,422.99,564.97
27.79646,421.52,564.17
27.81709,420.42,562.80
27.83730,420.84,563.70
27.85578,418.21,563.73
27.87646,418.41,561.07
27.89728,419.06,560.31
27.91699,416.83,561.95
27.93574,416.51,560.75
27.95640,415.03,561.40
27.97635,417.68,560.50
27.99672,413.99,562.06
28.01587,414.23,561.07
28.03739,413.47,562.79
28.05581,414.99,562.92
28.07621,412.92,563.25
28.09629,415.09,562.18
28.11608,414.57,560.94
28.13670,413.12,561.71
28.15615,416.99,562.00
28.17689,415.28,559.69
28.19550,417.52,557.89
28.21571,414.38,560.77
28.23696,414.43,560.35
28.25705,415.49,561.45
28.27719,414.46,560.92
28.29655,415.48,561.22
28.31627,412.84,558.57
28.33650,414.44,559.75
28.35551,412.58,558.55
28.37654,415.20,562.73
28.39714,411.97,564.83
28.41687,413.98,562.81
28.43597,414.09,564.99
28.45726,416.56,564.16
28.47675,416.41,564.61
28.49592,413.86,565.93
28.51608,416.51,564.04
28.53543,413.27,565.06
28.55623,416.32,565.22
28.57612,417.64,565.36
28.59657,414.16,564.35
28.61566,414.98,562.81
28.63649,413.06,561.63
28.65676,415.99,559.77
28.67542,412.79,560.77
28.69665,414.01,560.38
28.71712,413.04,560.30
28.73727,414.72,559.76
28.75635,413.20,559.03
28.77624,413.90,557.80
28.79556,411.70,559.82
28.81603,414.61,557.15
28.83695,413.52,555.91
28.85619,414.10,557.55
28.87627,415.01,557.13
28.89656,417.76,559.44
28.91596,414.24,557.23
28.93723,416.43,557.72
28.95693,417.94,557.42
28.97602,413.83,557.46
28.99563,416.54,557.48
29.01587,415.00,556.62
29.03703,412.86,557.80
29.05552,414.03,557.43
29.07605,413.58,558.55
29.09536,416.02,559.16
29.11693,414.63,558.11
29.13567,414.82,559.04
29.15594,414.43,556.61
29.17650,416.24,557.13
29.19692,414.46,557.45
29.21655,415.71,558.61
29.23552,412.75,558.55
29.25593,413.06,556.32
29.27741,413.00,555.49
29.29633,413.04,557.32
29.31513,413.50,557.32
29.33681,417.05,554.77
29.35585,414.11,555.24
29.37573,414.98,556.79
29.39551,413.64,554.90
29.41654,415.48,557.33
29.43687,415.29,557.50
29.45675,415.03,557.65
29.47737,414.30,560.55
29.49542,412.85,560.91
29.51648,413.52,562.08
29.53799,415.63,560.90
29.55808,417.02,559.42
29.57722,415.95,559.23
29.59815,416.85,561.08
29.61840,417.53,561.13
29.63794,417.41,559.58
29.65657,417.96,561.07
29.67714,416.19,557.41
29.69750,415.88,559.00
29.71706,419.69,558.45
29.73781,417.16,558.97
29.75659,415.69,560.93
29.77815,419.79,557.91
29.79848,420.34,559.87
29.81864,418.89,558.47
29.83773,419.06,559.70
29.85870,419.43,557.99
29.87823,419.76,557.02
29.89909,417.24,556.96
29.92024,419.85,556.69
29.93965,420.54,555.97
29.95896,420.13,555.92
29.98011,419.38,556.93
29.99971,422.85,558.19
30.02015,421.61,556.11
30.04008,422.96,555.63
30.06007,418.63,555.15
30.08013,419.77,559.06
30.09856,422.72,555.92
30.11964,421.73,557.89
30.13957,423.76,558.32
30.15890,423.61,554.52
30.17912,424.60,557.91
30.19936,420.44,555.66
30.21871,423.44,557.07
30.23918,424.89,556.89
30.25977,423.04,559.59
30.27948,424.10,561.12
30.29955,425.41,560.15
30.31997,424.44,562.45
30.34003,426.90,560.74
30.36074,427.65,560.27
30.38069,427.95,558.98
30.40186,430.82,562.60
30.42195,431.93,563.13
30.44210,430.19,561.07
30.46194,431.07,560.56
30.48206,432.71,563.69
30.50156,433.14,562.56
30.52126,433.33,562.06
30.54198,432.77,562.71
30.56058,434.37,561.61
30.58173,433.16,560.65
30.60103,435.51,561.68
30.62101,436.01,562.06
30.64168,428.64,558.38
30.66172,416.28,553.72
30.68149,397.78,549.70
30.70200,374.78,547.84
30.72136,355.75,548.86
30.74179,333.98,550.85
30.76053,318.54,542.04
30.78176,303.68,534.56
30.80166,297.92,524.06
30.82194,294.24,514.49
30.84170,296.62,508.22
30.86068,298.79,503.01
30.88187,305.50,499.79
30.90120,312.85,497.69
30.92214,319.45,495.67
30.94216,330.49,496.97
30.96147,337.78,501.78
30.98057,349.22,502.61
31.00050,355.07,507.08
31.02084,362.82,511.33
31.04214,373.23,516.33
31.06126,377.09,523.58
31.08096,385.85,527.59
31.10052,391.18,529.43
31.12165,398.18,535.06
31.14055,401.31,537.27
31.16208,406.00,538.69
31.18175,411.64,541.39
31.20079,415.16,543.76
31.22158,415.50,546.42
31.24064,421.65,548.64
31.26187,423.84,549.56
31.28234,425.82,552.94
31.30065,427.81,551.58
31.32049,432.14,554.66
31.34176,429.98,558.28
31.36146,431.21,556.03
31.38054,433.09,556.97
31.40113,434.83,556.23
31.42196,431.89,559.67
31.44067,435.52,557.87
31.46119,436.59,560.66
31.48081,437.49,559.68
31.50059,436.63,561.71
31.52138,436.58,564.53
31.54107,441.01,569.64
31.56064,447.11,586.21
31.58200,462.76,614.67
31.60165,482.99,642.96
31.62222,506.73,676.75
31.64112,526.63,709.23
31.66076,547.16,722.71
31.68131,567.68,716.97
31.70128,581.38,702.36
31.72231,590.03,679.25
31.74147,593.08,656.75
31.76137,590.80,630.28
31.78096,582.10,606.60
31.80052,569.11,586.75
31.82154,557.26,571.01
31.84198,546.97,556.26
31.86102,535.29,547.41
31.88190,524.35,538.59
31.90157,513.16,535.10
31.92224,501.80,528.32
31.94144,495.56,528.43
31.96125,488.86,529.05
31.98216,483.08,527.95
32.00046,474.43,532.47
32.02093,471.00,534.03
32.04159,468.63,535.68
32.06101,462.04,540.97
32.08124,460.85,540.93
32.10271,455.97,543.21
32.12312,452.85,547.92
32.14224,451.32,549.50
32.16210,448.98,552.68
32.18235,450.86,551.18
32.20179,449.44,553.23
32.22313,447.45,553.65
32.24228,447.67,557.11
32.26276,444.64,558.78
32.28228,443.75,556.88
32.30138,444.49,558.90
32.32159,442.92,559.11
32.34301,443.70,562.78
32.36274,440.90,562.09
32.38114,440.68,562.88
32.40358,442.79,564.16
32.42358,438.67,565.24
32.44403,437.08,563.50
32.46259,436.20,561.97
32.48245,437.99,563.25
32.50423,437.79,565.61
32.52365,437.31,564.97
32.54276,439.32,567.01
32.56296,437.17,566.27
32.58488,440.07,567.57
32.60525,439.62,566.56
32.62528,438.23,563.52
32.64365,437.90,563.75
32.66443,436.23,564.25
32.68376,439.55,564.45
32.70452,439.43,564.18
32.72516,438.81,567.19
32.74376,439.37,566.12
32.76487,440.21,565.86
32.78312,439.07,566.12
32.80462,439.82,567.03
32.82355,440.11,566.27
32.84427,437.92,566.43
32.86519,437.59,564.37
32.88448,440.31,568.02
32.90539,437.21,565.15
32.92427,435.61,567.69
32.94453,436.40,566.57
32.96457,436.08,568.10
32.98339,437.74,567.12
33.00368,438.30,564.30
33.02350,436.18,567.01
33.04388,433.54,567.02
33.06337,435.79,564.47
33.08391,434.21,563.46
33.10363,433.45,566.51
33.12374,433.53,565.63
33.14521,434.24,562.58
33.16381,434.06,564.64
33.18491,435.64,565.50
33.20405,433.12,564.65
33.22338,435.77,565.08
33.24335,434.06,566.15
33.26361,436.49,564.77
33.28406,437.06,564.27
33.30368,437.69,567.90
33.32434,434.50,565.80
33.34518,433.05,563.44
33.36368,435.05,565.20
33.38395,435.81,564.19
33.40439,432.66,566.34
33.42427,434.55,561.87
33.44412,433.63,565.05
33.46373,434.20,564.79
33.48368,434.22,562.43
33.50386,432.64,565.56
33.52418,434.57,564.95
33.54388,435.50,563.87
33.56377,435.17,563.29
33.58449,434.66,563.32
33.60427,433.46,564.49
33.62360,434.51,562.67
33.64461,437.17,565.10
33.66343,435.71,564.56
33.68421,435.64,564.36
33.70486,436.15,564.78
33.72332,434.12,565.63
33.74520,437.68,564.04
33.76470,435.75,565.83
33.78421,434.28,563.64
33.80481,435.02,563.76
33.82353,435.76,561.71
33.84361,435.57,564.41
33.86438,435.59,561.73
33.88380,433.30,561.89
33.90499,435.01,562.91
33.92491,435.58,560.78
33.94417,431.91,561.21
33.96470,431.41,560.86
33.98503,431.59,563.22
34.00398,433.16,562.57
34.02464,433.34,564.19
34.04514,433.19,562.64
34.06395,433.49,563.94
34.08462,435.00,564.89
34.10578,433.40,562.50
34.12536,431.08,563.86
34.14583,430.00,563.12
34.16450,429.42,561.36
34.18613,429.57,562.96
34.20434,430.82,562.51
34.22534,427.30,561.38
34.24528,429.84,561.49
34.26552,429.06,561.76
34.28563,429.86,563.34
34.30504,428.00,564.24
34.32599,426.60,561.19
34.34447,429.47,563.08
34.36607,427.30,561.21
34.38530,429.19,563.52
34.40686,425.42,561.31
34.42698,427.28,560.59
34.44588,427.02,560.16
34.46636,423.34,560.56
34.48677,424.99,560.00
34.50535,423.87,560.46
34.52640,422.25,562.99
34.54666,422.06,562.52
34.56799,421.08,561.18
34.58710,419.51,561.26
34.60782,421.76,563.73
34.62663,421.22,562.43
34.64753,418.55,563.13
34.66706,421.75,560.69
34.68664,420.54,562.51
34.70684,417.89,559.89
34.72705,419.35,561.22
34.74663,418.81,560.17
34.76640,415.93,563.34
34.78721,417.63,560.61
34.80801,419.10,562.11
34.82674,417.66,563.11
34.84735,418.79,564.29
34.86763,419.08,562.38
34.88706,418.09,563.48
34.90716,417.11,560.30
34.92689,418.58,563.92
34.94629,418.25,564.94
34.96635,417.24,563.36
34.98667,416.20,565.02
35.00811,416.78,564.84
35.02650,419.79,564.34
35.04749,418.41,564.35
35.06668,417.91,565.57
35.08807,417.79,564.95
35.10643,419.01,564.80
35.12720,419.59,561.42
35.14650,418.77,562.18
35.16714,415.82,561.92
35.18713,417.31,560.66
35.20810,414.50,562.84
35.22726,414.58,559.86
35.24807,415.06,561.69
35.26707,416.68,559.74
35.28627,415.36,558.66
35.30748,415.07,559.31
35.32734,413.50,559.99
35.34648,415.50,563.00
35.36663,413.46,562.34
35.38707,412.65,563.34
35.40677,411.70,563.41
35.42741,411.71,563.40
35.44789,411.70,561.87
35.46728,414.44,560.24
35.48756,415.15,561.02
35.50816,415.03,557.81
35.52749,415.65,560.98
35.54715,413.52,561.92
35.56739,408.54,561.08
35.58691,393.45,557.41
35.60731,371.43,556.76
35.62718,348.82,554.40
35.64734,326.12,553.07
35.66792,307.73,544.52
35.68639,296.56,535.30
35.70697,287.32,525.38
35.72674,282.77,519.25
35.74672,285.27,513.46
35.76708,287.68,506.52
35.78714,294.69,506.39
35.80708,300.17,508.16
35.82804,306.71,510.99
35.84808,316.52,510.15
35.86792,323.97,511.66
35.88797,330.27,516.34
35.90680,338.02,517.87
35.92784,347.34,522.55
35.94661,355.44,526.40
35.96719,363.87,528.63
35.98776,369.39,531.39
36.00682,374.82,535.69
36.02645,379.76,539.47
36.04811,384.48,540.64
36.06758,388.66,545.48
36.08694,393.80,545.54
36.10754,396.58,547.46
36.12627,398.90,549.22
36.14642,400.64,552.02
36.16745,404.11,551.91
36.18725,405.69,555.21
36.20786,408.75,554.22
36.22665,407.55,558.54
36.24684,408.93,556.33
36.26751,408.26,557.81
36.28615,410.28,559.49
36.30750,411.17,560.53
36.32664,411.10,561.90
36.34732,411.20,564.07
36.36651,411.33,569.04
36.38663,415.84,568.80
36.40717,417.26,563.83
36.42699,418.64,566.45
36.44709,416.07,565.29
36.46805,416.63,564.05
36.48800,419.46,562.44
36.50793,417.71,561.04
36.52677,419.51,563.11
36.54610,418.31,563.05
36.56634,426.36,565.42
36.58674,439.07,574.27
36.60757,462.72,589.04
36.62622,487.77,604.43
36.64645,515.38,614.66
36.66624,540.16,622.49
36.68683,559.90,627.65
36.70652,565.98,629.22
36.72725,563.21,625.39
36.74724,558.19,618.03
36.76862,549.19,612.18
36.78831,538.85,601.96
36.80790,524.17,595.96
36.82841,514.47,591.92
36.84800,505.23,587.15
36.86743,494.93,581.84
36.88910,489.52,581.15
36.90829,485.53,581.95
36.92761,480.22,578.58
36.94844,475.59,576.44
36.96890,469.92,577.02
36.98877,465.08,575.47
37.00740,456.72,576.22
37.02861,455.23,572.18
37.04776,448.84,569.89
37.06898,447.57,571.29
37.08816,443.49,566.69
37.10823,440.71,567.83
37.12853,437.20,565.96
37.14708,430.85,565.38
37.16889,430.16,565.51
37.18748,428.73,564.08
37.20839,427.61,565.44
37.22720,425.80,563.44
37.24746,423.32,561.33
37.26901,423.39,561.32
37.28894,421.11,560.28
37.30804,420.66,561.91
37.32816,419.72,560.29
37.34784,419.33,561.21
37.36741,420.51,562.58
37.38812,422.99,562.07
37.40858,420.69,562.73
37.42878,420.31,561.72
37.44728,419.95,561.54
37.46828,418.93,559.09
37.48895,417.10,560.84
37.50726,416.22,559.70
37.52730,415.02,562.33
37.54776,414.96,560.07
37.56852,416.77,563.53
37.58804,414.99,559.55
37.60762,414.03,562.48
37.62875,416.05,562.64
37.64834,417.81,563.03
37.66759,416.81,564.87
37.68744,414.68,564.91
37.70825,417.76,561.72
37.72876,416.24,564.11
37.74823,418.81,562.47
37.76719,417.33,562.09
37.78837,418.00,567.24
37.80833,420.55,568.03
37.82908,420.42,571.36
37.84812,417.69,571.51
37.86802,418.83,575.02
37.88788,419.16,574.01
37.90733,419.99,570.85
37.92837,418.10,570.18
37.94790,417.71,568.56
37.96899,417.80,570.25
37.98875,419.42,569.76
38.00824,419.32,567.15
38.02739,419.67,564.14
38.04880,420.12,565.02
38.06761,418.49,565.24
38.08781,419.31,563.00
38.10753,418.94,562.34
38.12874,419.16,562.04
38.14713,418.64,564.26
38.16733,420.95,563.80
38.18899,419.31,560.37
38.20886,421.76,559.73
38.22792,419.69,561.31
38.24781,419.46,563.68
38.26836,419.83,562.39
38.28700,418.96,563.17
38.30792,420.66,564.34
38.32737,421.38,564.19
38.34729,418.99,561.37
38.36741,417.54,563.63
38.38901,418.58,563.43
38.40886,417.73,560.58
38.42874,417.12,562.44
38.44706,419.44,561.62
38.46772,416.38,560.76
38.48731,416.00,559.74
38.50845,417.52,561.67
38.52893,416.37,560.82
38.54881,418.81,561.92
38.56900,416.46,560.48
38.58740,417.31,560.56
38.60757,417.16,562.35
38.62829,418.58,561.72
38.64834,418.84,560.62
38.66829,421.98,560.43
38.68797,422.39,563.32
38.70797,421.81,563.22
38.72908,423.00,563.30
38.74757,422.68,561.62
38.76797,422.87,561.96
38.78827,421.00,564.40
38.80724,422.63,564.91
38.82784,423.03,563.51
38.84797,419.87,561.18
38.86749,421.98,563.00
38.88907,419.41,562.21
38.90728,419.10,562.92
38.92770,419.49,561.49
38.94854,420.11,561.85
38.96800,419.66,562.20
38.98872,418.95,560.47
39.00863,419.65,561.18
39.02719,419.53,563.95
39.04771,419.23,559.68
39.06780,419.05,560.43
39.08742,417.93,560.01
39.10843,420.02,563.17
39.12750,418.49,562.87
39.14782,420.97,560.24
39.16760,418.20,561.66
39.18813,421.58,561.37
39.20854,420.69,561.11
39.22789,420.75,561.93
39.24815,423.04,561.92
39.26746,419.99,565.84
39.28903,420.44,565.83
39.30848,420.33,565.39
39.32776,420.46,565.01
39.34806,420.47,566.51
39.36796,422.83,567.70
39.38821,421.54,568.23
39.40822,421.22,567.38
39.42873,420.63,567.20
39.44854,421.48,563.81
39.46770,422.12,563.31
39.48743,420.90,565.33
39.50831,422.14,562.07
39.52735,422.43,563.20
39.54720,422.92,560.10
39.56810,424.27,563.09
39.58727,425.83,560.84
39.60877,422.31,563.64
39.62727,422.71,561.25
39.64860,423.83,562.17
39.66841,423.17,559.12
39.68845,420.69,560.05
39.70795,424.30,560.52
39.72804,422.58,563.09
39.74764,423.76,560.72
39.76889,423.36,560.21
39.78718,422.92,561.00
39.80861,422.40,558.24
39.82835,423.08,559.58
39.84721,426.01,559.90
39.86777,422.28,556.05
39.88909,425.39,559.29
39.90713,422.88,556.31
39.92884,420.21,558.32
39.94736,411.57,557.87
39.96773,396.80,556.45
39.98846,375.35,558.43
40.00740,352.92,555.83
40.02764,334.28,556.04
40.04792,317.58,545.77
40.06780,300.75,536.14
40.08734,291.10,525.75
40.10734,285.76,517.85
40.12730,284.37,510.46
40.14759,288.36,504.59
40.16880,292.32,503.12
40.18882,296.99,501.86
40.20814,305.15,504.89
40.22904,314.93,509.93
40.24786,324.54,512.18
40.26805,333.70,515.72
40.28851,340.72,521.24
40.30735,350.77,525.47
40.32889,360.27,530.42
40.34847,365.18,533.79
40.36878,372.98,536.37
40.38804,382.55,540.38
40.40851,387.30,544.66
40.42873,393.17,547.21
40.44873,398.17,551.33
40.46747,400.18,549.92
40.48888,403.16,551.89
40.50784,409.06,555.27
40.52731,408.65,555.09
40.54846,412.84,559.37
40.56856,416.01,558.28
40.58734,417.46,559.70
40.60835,419.69,563.47
40.62735,418.81,563.89
40.64900,420.08,562.29
40.66875,422.01,565.61
40.68806,422.66,564.31
40.70857,424.71,565.69
40.72871,427.57,563.94
40.74936,427.97,564.92
40.76825,426.58,565.48
40.78795,429.72,565.90
40.81009,427.71,564.88
40.82869,431.36,561.83
40.84852,431.95,565.15
40.86841,432.47,562.87
40.89000,441.23,571.59
40.90908,455.28,583.36
40.92911,478.46,597.77
40.94951,504.98,609.55
40.96981,533.60,615.59
40.98881,559.99,625.59
41.00887,582.77,624.87
41.02907,591.50,624.66
41.04874,591.01,623.75
41.06895,582.20,617.72
41.08970,572.95,608.96
41.10928,560.23,605.93
41.12929,549.02,597.73
41.14896,536.73,591.90
41.16940,527.76,591.21
41.18816,520.47,585.33
41.20892,517.01,582.03
41.22855,509.88,579.46
41.24949,500.64,578.47
41.27079,495.80,574.64
41.28970,489.10,572.39
41.30902,484.24,572.04
41.32995,478.67,570.07
41.35084,469.37,570.05
41.36997,466.59,566.71
41.38952,462.33,566.89
41.41005,457.50,566.10
41.42997,454.27,565.55
41.44943,453.11,566.08
41.46946,450.72,564.11
41.48918,453.41,561.63
41.50887,449.22,560.85
41.52980,447.62,562.29
41.55021,447.43,564.02
41.57074,446.01,562.07
41.59135,446.36,563.92
41.61086,443.83,562.05
41.63195,445.43,562.87
41.65062,443.53,564.36
41.67030,439.65,564.53
41.69026,438.95,565.12
41.71166,441.55,566.81
41.73035,438.64,566.85
41.75101,437.42,566.11
41.77089,438.66,566.94
41.79098,441.15,568.10
41.81158,438.49,571.01
41.83059,440.33,569.12
41.85194,440.25,568.34
41.87166,440.34,572.40
41.89136,440.59,569.98
41.91076,441.24,571.91
41.93191,443.25,573.09
41.95022,440.86,571.32
41.97040,442.53,572.28
41.99080,440.03,571.92
42.01043,439.71,568.37
42.03077,439.26,568.36
42.05171,440.21,567.47
42.07066,441.44,566.41
42.09151,439.40,564.70
42.11119,440.39,567.39
42.13078,438.62,566.54
42.15191,440.00,564.92
42.17120,439.20,565.44
42.19083,441.07,563.17
42.21166,438.61,563.89
42.23087,437.96,565.71
42.25047,441.65,562.09
42.27197,440.84,562.06
42.29032,439.75,564.73
42.31037,440.33,562.71
42.33180,438.69,562.91
42.35124,439.25,564.58
42.37179,439.17,564.65
42.39113,439.65,565.45
42.41109,440.46,565.91
42.43174,437.56,564.78
42.45136,437.52,565.33
42.47044,438.60,564.69
42.49178,436.66,565.20
42.51064,440.57,564.15
42.53095,439.36,567.42
42.55028,441.03,565.65
42.57165,441.01,565.33
42.59076,438.57,565.47
42.61124,437.53,564.39
42.63195,438.29,566.59
42.65105,440.04,563.20
42.67176,437.46,564.18
42.69186,439.51,563.23
42.71099,439.96,562.93
42.73039,440.81,564.00
42.75123,441.42,561.61
42.77008,441.87,562.99
42.79113,439.49,561.58
42.81070,438.78,563.73
42.83177,441.09,562.56
42.85104,439.54,563.38
42.87182,441.11,568.31
42.89090,439.78,580.17
42.91089,442.71,598.70
42.93058,448.52,622.79
42.95032,448.97,641.38
42.97186,453.03,644.71
42.99170,449.80,639.42
43.01026,448.53,638.46
43.03056,445.94,640.25
43.05133,445.56,644.65
43.07086,445.85,654.37
43.09178,445.91,661.09
43.11049,447.53,660.18
43.13083,445.39,656.82
43.15166,444.90,643.61
43.17072,443.91,627.98
43.19198,443.99,605.24
43.21151,441.70,584.57
43.23071,441.67,569.04
43.25152,437.72,552.48
43.27165,433.79,540.20
43.29168,431.16,529.17
43.31029,431.80,523.79
43.33190,428.93,519.44
43.35122,432.79,516.54
43.37149,432.14,513.15
43.39078,428.95,514.33
43.41057,430.03,517.93
43.43120,433.90,520.16
43.45037,439.68,531.51
43.47107,455.68,545.89
43.49198,476.09,559.69
43.51153,489.81,567.82
43.53127,496.82,571.94
43.55096,498.59,574.62
43.57023,494.32,574.02
43.59129,492.30,569.81
43.61136,490.50,569.70
43.63047,485.40,568.48
43.65017,480.75,568.57
43.67030,476.44,569.01
43.69160,479.28,570.32
43.71141,479.03,570.79
43.73014,478.15,567.14
