Program Time [s],data 0,data 1
29.02498,433.43,563.57
29.04419,434.51,563.24
29.06493,437.94,564.98
29.08394,434.43,564.96
29.10431,437.35,565.18
29.12482,436.43,564.16
29.14431,439.46,563.33
29.16428,438.93,564.17
29.18602,439.56,563.35
29.20724,438.11,562.93
29.22659,441.35,563.88
29.24846,441.13,566.42
29.26788,442.95,568.11
29.28795,441.86,567.19
29.30747,442.29,567.28
29.32702,439.55,568.01
29.34715,439.57,567.58
29.36785,441.55,567.55
29.38741,439.61,569.13
29.40698,442.85,573.38
29.42746,445.08,570.42
29.44670,441.67,571.10
29.46708,445.61,567.51
29.48716,445.13,567.69
29.50688,447.76,567.73
29.52725,447.73,567.34
29.54744,448.03,569.82
29.56818,446.96,570.49
29.58811,445.78,569.61
29.60831,447.48,569.07
29.62758,444.38,565.44
29.64660,444.57,563.31
29.66720,446.61,560.17
29.68723,448.53,563.38
29.70681,446.56,567.04
29.72674,439.66,563.01
29.74724,420.23,554.80
29.76687,394.69,545.65
29.78759,373.59,538.75
29.80701,348.74,527.28
29.82658,324.69,512.35
29.84659,308.63,503.31
29.86683,292.67,495.88
29.88680,287.76,495.97
29.90806,283.17,494.82
29.92674,281.05,495.03
29.94786,283.94,493.65
29.96670,285.90,496.53
29.98770,295.94,499.81
30.00850,303.41,503.68
30.02688,313.52,507.64
30.04797,324.56,510.62
30.06698,336.20,515.48
30.08696,348.33,519.84
30.10725,358.76,521.85
30.12832,371.17,526.44
30.14674,378.92,531.97
30.16842,388.43,538.66
30.18694,395.02,540.76
30.20780,404.77,547.20
30.22715,410.00,549.22
30.24787,414.89,552.79
30.26783,419.68,557.68
30.28704,424.65,559.64
30.30679,429.21,562.29
30.32835,434.51,562.21
30.34801,437.66,565.52
30.36730,437.87,568.21
30.38731,443.09,571.00
30.40735,443.38,570.95
30.42661,445.22,570.27
30.44677,446.72,569.08
30.46796,446.44,570.05
30.48849,449.45,568.64
30.50815,451.52,573.26
30.52831,449.39,574.58
30.54739,454.13,578.07
30.56814,453.73,575.68
30.58791,457.28,581.45
30.60745,477.35,585.85
30.62657,500.75,598.72
30.64808,535.86,617.93
30.66789,572.42,632.76
30.68754,608.06,647.17
30.70682,640.27,657.09
30.72809,659.72,658.86
30.74730,662.63,658.82
30.76805,659.07,651.49
30.78714,648.27,643.85
30.80732,634.23,637.80
30.82717,620.05,628.81
30.84691,605.54,624.74
30.86718,588.47,620.16
30.88803,573.43,612.93
30.90703,562.34,604.89
30.92708,549.70,600.23
30.94803,540.46,596.16
30.96675,526.42,591.02
30.98744,521.06,587.83
31.00744,510.22,584.63
31.02673,501.45,582.89
31.04657,496.85,582.05
31.06834,491.11,579.87
31.08825,484.67,576.67
31.10742,482.37,573.90
31.12681,478.54,574.79
31.14770,473.17,573.58
31.16801,470.10,574.75
31.18679,468.12,573.74
31.20704,466.56,572.92
31.22710,462.53,571.31
31.24783,463.63,572.43
31.26709,460.33,570.05
31.28662,460.86,569.08
31.30760,459.82,571.13
31.32694,459.96,573.33
31.34836,458.28,576.20
31.36736,460.52,573.06
31.38710,457.86,575.47
31.40740,457.39,576.46
31.42813,459.23,571.93
31.44861,459.27,573.65
31.47024,455.44,571.96
31.48887,456.35,569.33
31.50991,455.88,572.34
31.53067,453.48,573.01
31.54965,454.74,572.01
31.57134,451.99,568.39
31.59080,452.38,568.60
31.61022,452.29,569.91
31.63031,452.80,568.09
31.65066,450.71,567.18
31.67174,452.38,570.40
31.69183,449.68,571.65
31.71084,449.85,574.41
31.73076,447.72,575.37
31.75070,450.12,573.43
31.77108,451.58,572.59
31.79125,449.73,573.23
31.81097,452.31,573.38
31.83252,450.79,575.74
31.85192,453.44,577.70
31.87078,451.12,576.36
31.89050,452.81,576.38
31.91165,452.16,576.28
31.93214,453.39,574.27
31.95208,451.73,573.33
31.97197,453.19,574.43
31.99080,449.48,575.39
32.01205,451.46,575.22
32.03186,448.58,573.72
32.05099,448.44,573.01
32.07224,446.71,574.18
32.09129,450.39,570.85
32.11159,447.33,573.44
32.13126,449.61,570.97
32.15213,447.26,571.49
32.17300,446.84,572.32
32.19310,445.67,575.28
32.21182,446.41,571.43
32.23317,444.14,573.22
32.25194,443.60,570.92
32.27176,441.74,568.79
32.29418,440.65,570.57
32.31281,443.56,567.73
32.33340,444.08,571.07
32.35398,443.18,569.29
32.37386,440.70,568.68
32.39327,443.22,569.11
32.41362,441.97,567.57
32.43320,441.98,566.70
32.45419,442.12,569.78
32.47366,439.58,569.86
32.49343,438.24,572.56
32.51373,439.25,572.92
32.53392,435.54,572.53
32.55421,436.60,569.52
32.57315,433.51,568.57
32.59383,435.98,568.01
32.61316,434.50,567.82
32.63427,435.39,567.99
32.65279,435.65,569.58
32.67279,434.46,568.62
32.69403,438.57,569.24
32.71262,436.99,567.41
32.73299,437.94,567.08
32.75417,436.36,567.10
32.77269,437.37,566.57
32.79405,435.51,565.36
32.81284,436.87,566.98
32.83354,437.94,570.44
32.85379,435.79,568.78
32.87314,437.71,567.80
32.89427,437.06,567.34
32.91420,435.28,566.95
32.93330,438.52,566.50
32.95248,436.89,568.39
32.97325,436.93,571.65
32.99397,434.51,571.05
33.01400,437.47,567.59
33.03381,436.35,567.27
33.05327,434.82,566.94
33.07396,432.64,567.64
33.09341,431.74,568.56
33.11348,433.66,568.40
33.13277,431.52,572.76
33.15379,434.00,571.21
33.17353,432.54,570.39
33.19285,431.96,567.80
33.21434,433.65,567.16
33.23245,435.03,565.70
33.25401,434.50,567.28
33.27375,432.62,570.84
33.29282,433.57,570.67
33.31259,435.71,567.53
33.33386,433.68,568.23
33.35280,435.16,568.88
33.37388,433.04,565.45
33.39382,435.72,565.26
33.41412,436.33,565.53
33.43315,436.16,568.07
33.45423,436.58,568.38
33.47355,435.53,569.61
33.49264,432.53,569.02
33.51261,437.51,570.08
33.53301,428.28,571.52
33.55360,415.26,573.12
33.57414,398.54,574.25
33.59427,374.16,577.93
33.61310,348.37,575.45
33.63385,327.46,568.59
33.65436,309.89,552.02
33.67502,294.33,537.39
33.69401,286.09,525.61
33.71380,280.86,510.54
33.73506,278.35,501.10
33.75429,280.06,498.61
33.77530,284.50,493.86
33.79594,290.97,490.46
33.81520,301.89,490.72
33.83557,310.90,488.66
33.85550,322.27,489.28
33.87625,328.69,489.85
33.89548,340.18,496.06
33.91583,351.39,502.93
33.93475,361.33,508.57
33.95560,369.48,513.40
33.97555,375.39,520.05
33.99523,384.61,527.30
34.01505,389.15,532.34
34.03595,396.27,536.15
34.05603,403.30,540.22
34.07551,406.99,546.15
34.09629,410.52,547.25
34.11535,417.25,551.71
34.13556,416.78,550.91
34.15551,419.21,555.25
34.17589,424.21,554.28
34.19574,422.91,557.63
34.21498,427.02,561.01
34.23607,428.75,562.59
34.25584,432.46,563.67
34.27467,441.27,571.96
34.29529,459.54,581.83
34.31565,485.25,593.06
34.33456,512.85,609.99
34.35693,550.92,624.67
34.37558,581.52,641.51
34.39697,611.87,645.21
34.41632,625.04,643.54
34.43591,627.99,642.84
34.45692,621.14,637.55
34.47674,610.10,629.77
34.49540,597.55,622.62
34.51647,581.10,619.36
34.53659,570.12,613.14
34.55694,553.96,609.57
34.57595,542.56,607.05
34.59696,531.33,602.48
34.61693,518.65,599.79
34.63610,509.10,595.59
34.65569,500.34,592.23
34.67728,494.14,590.91
34.69845,488.72,586.42
34.71684,483.44,587.86
34.73829,478.61,589.95
34.75791,472.90,586.96
34.77840,468.02,582.62
34.79650,464.30,577.56
34.81695,464.26,577.54
34.83778,460.63,578.23
34.85703,458.23,576.90
34.87712,458.19,576.70
34.89662,459.35,578.49
34.91814,457.36,575.64
34.93824,457.26,575.29
34.95788,453.10,572.60
34.97871,456.77,572.17
34.99819,455.70,574.49
35.01933,454.51,574.97
35.03797,455.07,576.23
35.05930,456.27,576.27
35.07822,455.07,575.42
35.09843,453.64,577.57
35.11752,454.39,575.12
35.13818,456.73,573.60
35.15823,454.87,571.91
35.17906,454.55,574.56
35.19834,452.31,573.62
35.21832,453.25,574.76
35.23779,452.97,575.91
35.25839,454.52,573.97
35.27912,452.88,572.98
35.29750,456.97,573.36
35.31772,456.44,570.97
35.33745,456.78,571.23
35.35748,454.55,573.92
35.37803,452.59,573.32
35.39761,454.58,575.22
35.41749,454.72,571.03
35.43815,454.59,569.33
35.45814,454.59,571.27
35.47889,455.44,569.94
35.49936,452.32,570.60
35.51788,454.79,569.10
35.53760,452.20,571.02
35.55847,455.02,575.69
35.57769,453.54,572.43
35.59939,454.34,575.65
35.61775,453.35,573.88
35.63719,454.18,570.57
35.65917,454.84,570.54
35.67742,454.42,569.92
35.69873,455.08,571.52
35.71890,451.98,573.81
35.73918,449.53,575.47
35.75899,450.28,575.50
35.77798,452.36,572.21
35.79884,450.16,571.41
35.81799,451.11,573.25
35.83834,453.11,571.63
35.85847,454.64,573.92
35.87803,455.83,577.25
35.89841,453.19,575.99
35.91904,453.77,573.32
35.93859,456.51,572.97
35.95874,454.58,569.76
35.97903,456.33,571.19
35.99821,456.77,570.95
36.01760,457.36,570.73
36.03881,460.18,571.76
36.05857,457.67,571.82
36.07878,457.53,572.84
36.09863,457.13,572.43
36.11873,455.03,572.40
36.13907,457.16,570.85
36.15885,452.99,570.41
36.17994,453.91,570.90
36.19928,452.11,571.47
36.22018,453.28,573.21
36.23966,454.55,575.32
36.25935,452.64,576.41
36.28025,453.07,573.48
36.29927,455.97,573.51
36.31899,455.61,574.21
36.33875,454.56,573.67
36.35933,453.91,570.47
36.37945,453.81,573.13
36.39901,455.24,575.81
36.41970,453.88,572.31
36.43993,454.55,572.06
36.45870,455.11,571.91
36.47999,454.27,568.84
36.49928,454.99,571.52
36.51946,456.81,572.13
36.53994,454.06,572.35
36.56000,456.04,576.03
36.57993,456.45,574.20
36.60009,456.26,573.62
36.61937,456.03,571.77
36.64031,455.87,572.95
36.66185,457.88,573.05
36.68124,454.77,571.88
36.70088,454.80,571.18
36.72231,455.26,575.17
36.74319,452.81,573.46
36.76159,453.04,572.77
36.78204,449.09,572.02
36.80227,447.98,569.90
36.82312,450.82,570.62
36.84212,449.96,569.80
36.86269,447.50,567.28
36.88326,446.18,568.81
36.90197,445.18,570.98
36.92157,445.94,571.02
36.94222,446.79,569.30
36.96299,446.98,571.66
36.98317,444.81,570.76
37.00210,446.93,568.36
37.02264,445.68,571.58
37.04298,443.45,571.90
37.06279,443.69,573.69
37.08269,443.13,574.89
37.10342,442.38,574.67
37.12134,444.80,574.98
37.14151,442.64,574.37
37.16232,435.54,584.52
37.18376,418.67,608.00
37.20324,398.16,651.94
37.22391,379.07,684.20
37.24497,358.04,697.66
37.26567,337.43,690.74
37.28593,322.61,671.53
37.30445,308.25,642.60
37.32452,299.61,605.45
37.34532,291.42,565.61
37.36475,292.07,527.10
37.38556,293.01,497.23
37.40594,294.62,474.29
37.42485,300.78,454.83
37.44574,305.69,443.36
37.46486,314.31,441.78
37.48571,323.85,439.91
37.50595,332.42,445.10
37.52460,337.94,450.24
37.54587,350.44,459.55
37.56568,355.20,469.69
37.58503,365.92,482.04
37.60503,371.63,487.98
37.62529,378.31,498.98
37.64444,385.63,503.19
37.66523,395.39,513.02
37.68599,399.76,517.91
37.70436,404.92,526.22
37.72569,409.54,534.61
37.74515,411.27,540.68
37.76454,413.07,543.53
37.78629,415.64,547.16
37.80526,416.74,551.00
37.82629,420.09,554.32
37.84518,423.39,553.10
37.86553,424.36,556.64
37.88553,426.00,558.43
37.90417,427.66,564.96
37.92561,428.69,564.49
37.94522,429.75,564.39
37.96457,429.71,564.83
37.98437,432.44,562.38
38.00582,432.06,565.44
38.02413,431.00,564.72
38.04460,432.71,566.40
38.06567,437.97,571.92
38.08519,453.54,574.26
38.10440,478.17,584.57
38.12596,509.76,596.98
38.14464,539.65,606.31
38.16605,571.45,618.60
38.18537,599.04,625.64
38.20460,613.40,632.27
38.22469,617.54,632.00
38.24454,616.03,630.04
38.26411,605.17,624.03
38.28541,593.71,616.92
38.30464,580.72,611.80
38.32616,564.68,605.15
38.34509,549.83,597.78
38.36625,538.40,596.14
38.38543,524.02,592.38
38.40534,511.34,592.07
38.42565,502.65,588.38
38.44439,493.15,585.79
38.46559,484.41,581.73
38.48509,478.95,581.68
38.50480,471.95,577.76
38.52624,468.68,574.35
38.54413,462.33,577.67
38.56592,460.45,576.20
38.58603,455.80,576.93
38.60576,452.44,574.52
38.62471,450.95,576.01
38.64504,448.39,572.88
38.66634,448.22,575.37
38.68590,446.23,570.49
38.70663,443.82,572.10
38.72546,445.84,572.70
38.74584,442.42,570.35
38.76526,441.45,569.24
38.78641,441.53,569.09
38.80672,439.69,569.08
38.82696,438.24,565.91
38.84627,439.46,567.64
38.86562,439.51,566.96
38.88658,440.27,566.98
38.90686,440.73,571.86
38.92703,439.27,571.39
38.94686,441.05,566.00
38.96646,438.63,567.53
38.98586,437.77,565.38
39.00673,441.18,564.27
39.02534,439.51,566.68
39.04719,439.65,567.07
39.06554,440.75,571.20
39.08538,437.79,572.93
39.10699,441.27,570.22
39.12679,439.47,567.70
39.14661,436.80,563.67
39.16725,438.09,560.98
39.18901,441.10,562.80
39.20865,440.25,561.73
39.22961,443.20,565.92
39.24965,447.24,565.36
39.26806,447.44,565.37
39.28960,447.19,563.12
39.30840,446.66,559.65
39.32909,449.03,559.44
39.34958,450.38,562.39
39.36849,450.15,560.90
39.38991,451.93,563.84
39.40813,451.76,565.55
39.42861,450.66,565.86
39.44976,452.41,564.99
39.46947,452.04,561.55
39.48960,453.44,562.21
39.50918,454.77,561.15
39.53107,453.86,561.25
39.55194,457.44,564.60
39.57245,454.07,568.55
39.59184,458.59,567.36
39.61392,454.35,569.64
39.63304,457.85,568.37
39.65313,456.47,567.17
39.67390,456.85,565.99
39.69414,456.97,569.17
39.71371,457.13,567.43
39.73272,456.92,572.63
39.75229,455.23,571.50
39.77367,454.93,570.92
39.79364,456.47,567.42
39.81413,454.82,567.22
39.83247,458.12,564.01
39.85396,458.15,565.22
39.87439,457.09,564.94
39.89562,455.23,567.86
39.91557,455.19,571.88
39.93688,450.68,571.41
39.95783,449.57,573.46
39.97806,449.84,573.12
39.99745,447.05,571.81
40.01656,448.75,568.47
40.03728,446.17,569.26
40.05623,447.54,570.37
40.07737,444.34,569.33
40.09741,443.42,571.62
40.11757,442.02,570.61
40.13821,441.73,567.23
40.15804,443.29,567.70
40.17876,441.23,565.28
40.19835,441.77,563.04
40.21895,437.39,562.52
40.23875,437.05,564.56
40.25776,436.28,569.86
40.27742,438.08,566.87
40.29785,437.94,563.77
40.31850,434.90,566.33
40.33965,437.80,564.72
40.35941,435.51,562.34
40.38080,435.94,561.93
40.40017,436.39,563.59
40.42077,434.82,567.63
40.44029,434.28,567.80
40.46112,432.99,564.91
40.48066,431.14,566.47
40.50017,430.93,566.72
40.51939,432.04,566.04
40.54073,431.83,563.35
40.55979,428.70,562.30
40.57973,430.89,563.18
40.60020,430.27,564.32
40.62127,432.05,568.33
40.64102,431.39,566.12
40.66067,427.12,565.01
40.68087,426.93,563.05
40.70099,426.92,561.07
40.72055,429.96,561.06
40.73979,427.21,562.00
40.76058,429.24,561.61
40.77989,429.32,565.22
40.79947,429.48,563.94
40.82086,425.95,562.51
40.84030,428.75,563.65
40.85994,428.42,564.44
40.87945,426.93,560.32
40.90079,429.05,559.57
40.92053,428.38,560.37
40.93934,431.53,564.02
40.96050,428.46,565.92
40.98115,426.97,563.29
41.00118,424.83,562.45
41.02072,411.69,556.26
41.04039,388.96,548.31
41.06037,359.58,535.49
41.07936,336.84,525.59
41.10050,316.34,515.37
41.11974,298.85,507.19
41.14002,284.77,507.20
41.15956,276.19,504.81
41.18062,270.62,505.13
41.19976,273.86,505.71
41.21980,281.36,508.47
41.24020,286.62,507.51
41.26048,299.15,511.08
41.27971,309.25,513.16
41.30090,319.09,516.45
41.32098,326.40,520.85
41.33959,338.39,524.59
41.36127,348.25,524.85
41.38041,358.40,524.91
41.39973,366.12,531.09
41.42094,373.77,532.61
41.44024,379.74,535.03
41.45956,389.09,540.62
41.47994,395.11,543.73
41.49930,400.49,547.25
41.52036,404.46,549.91
41.54117,408.92,552.48
41.56082,413.18,553.66
41.58164,417.83,551.37
41.60062,421.87,556.23
41.62030,421.72,554.64
41.64128,423.66,558.71
41.66217,428.08,564.22
41.68040,427.94,566.27
41.70100,430.26,563.31
41.72156,432.46,563.52
41.74164,433.18,563.89
41.76106,432.30,562.66
41.78151,438.34,566.80
41.80173,459.25,573.77
41.82277,482.81,584.66
41.84216,512.31,599.26
41.86169,542.76,614.03
41.88134,574.40,626.52
41.90271,600.02,629.26
41.92379,615.66,633.98
41.94254,624.00,632.41
41.96394,619.97,627.99
41.98489,612.58,624.76
42.00506,603.68,623.15
42.02441,592.24,617.17
42.04585,577.10,614.82
42.06582,566.81,609.09
42.08491,552.40,602.72
42.10550,540.01,594.71
42.12477,532.40,592.89
42.14495,523.75,588.97
42.16519,511.29,588.65
42.18424,505.88,588.54
42.20572,499.64,586.19
42.22532,493.83,583.60
42.24463,488.06,579.83
42.26543,484.66,577.66
42.28528,483.70,576.41
42.30523,479.36,572.87
42.32584,477.85,571.80
42.34711,475.72,571.44
42.36596,472.82,572.47
42.38651,471.04,574.09
42.40691,467.78,575.23
42.42691,466.17,573.83
42.44550,463.45,572.79
42.46709,462.19,574.52
42.48645,461.66,572.84
42.50640,460.86,569.86
42.52553,460.03,571.65
42.54717,457.64,573.79
42.56537,461.02,575.56
42.58688,459.78,575.19
42.60538,457.76,576.50
42.62661,456.83,574.66
42.64560,454.79,573.42
42.66679,455.39,570.71
42.68660,454.43,568.86
42.70537,455.78,570.24
42.72599,455.50,572.98
42.74555,455.41,572.09
42.76676,454.32,575.60
42.78733,457.18,574.68
42.80590,456.58,573.61
42.82540,455.48,573.09
42.84689,455.91,572.44
42.86583,454.58,569.01
42.88534,457.17,570.02
42.90687,458.04,573.61
42.92520,455.12,573.65
42.94586,458.96,575.75
42.96508,456.78,575.29
42.98621,457.22,574.66
43.00501,455.19,570.46
43.02548,456.00,569.73
43.04621,456.33,572.60
43.06660,456.02,572.06
43.08565,453.13,575.01
43.10590,457.03,574.24
43.12710,454.52,578.19
43.14553,457.99,576.29
43.16663,455.59,575.33
43.18542,455.89,576.30
43.20703,455.75,573.41
43.22550,456.92,571.97
43.24653,457.19,572.15
43.26592,454.19,574.73
43.28687,456.11,575.78
43.30559,453.44,577.48
43.32639,452.52,573.50
43.34540,452.34,573.22
43.36531,454.80,573.84
43.38640,453.40,571.39
43.40666,454.69,570.36
43.42523,452.65,572.68
43.44710,453.10,575.32
43.46688,453.78,577.97
43.48648,456.37,579.19
43.50557,454.37,576.22
43.52618,457.74,575.10
43.54709,455.65,575.43
43.56586,456.62,574.16
43.58561,457.49,571.78
43.60610,455.85,572.53
43.62665,453.78,574.38
43.64681,453.81,576.55
43.66624,453.33,577.19
43.68714,455.29,576.63
43.70682,454.69,578.27
43.72601,454.40,576.46
43.74701,451.77,573.97
43.76640,454.63,574.87
43.78545,452.24,572.65
43.80647,454.85,571.80
43.82631,455.46,576.11
43.84592,455.70,576.57
43.86679,454.75,576.34
43.88627,457.43,575.10
43.90709,456.08,574.50
43.92636,453.59,572.77
43.94638,453.03,573.07
43.96683,451.65,570.75
43.98718,452.96,572.00
44.00613,453.20,571.69
44.02678,452.37,572.84
44.04708,449.12,575.42
44.06604,450.60,573.09
44.08532,451.60,573.04
44.10508,450.35,570.29
44.12723,450.23,570.79
44.14618,449.67,568.24
44.16770,451.79,568.17
44.18775,452.74,570.91
44.20673,451.30,573.20
44.22676,449.28,572.37
44.24621,450.82,573.60
44.26694,450.47,572.03
44.28665,450.77,572.82
44.30743,451.59,569.94
44.32689,451.60,569.93
44.34810,449.93,569.46
44.36625,449.10,571.17
44.38633,449.47,570.08
44.40711,449.51,572.80
44.42744,448.43,574.12
44.44738,449.18,571.32
44.46715,447.72,572.37
44.48635,450.71,569.64
44.50724,449.41,571.92
44.52720,449.59,570.57
44.54778,447.96,566.59
44.56607,447.45,569.24
44.58810,448.92,570.06
44.60634,446.34,570.67
44.62730,447.04,572.75
44.64755,446.93,569.14
44.66761,448.61,569.14
44.68749,445.44,570.92
44.70671,444.25,571.16
44.72767,443.79,567.91
44.74702,447.65,568.51
44.76845,446.23,568.38
44.78814,445.60,570.27
44.80737,446.62,571.98
44.82894,447.26,571.10
44.84877,443.13,567.58
44.86734,425.27,562.03
44.88765,401.80,558.23
44.90803,375.02,553.67
44.92878,346.14,549.38
44.94792,328.76,545.72
44.96914,311.54,539.76
44.98799,301.18,533.31
45.00907,291.65,524.87
45.02904,289.76,517.76
45.04863,292.88,514.86
45.06716,298.07,507.88
45.08725,304.74,505.87
45.10808,314.92,509.35
45.12853,320.63,507.72
45.14802,330.28,510.12
45.16955,335.98,513.54
45.18847,346.42,519.37
45.20887,352.75,521.73
45.22966,363.18,522.91
45.24905,370.66,528.43
45.26989,378.09,528.85
45.28918,386.64,534.54
45.30818,391.56,537.60
45.32972,395.19,543.98
45.34915,401.48,549.72
45.36897,405.20,553.90
45.38979,409.96,555.76
45.40928,413.64,559.34
45.42941,416.54,560.83
45.45032,417.86,558.37
45.46922,422.85,559.76
45.48937,426.57,561.53
45.51041,425.96,564.74
45.52915,426.66,566.02
45.54977,429.79,569.87
45.57043,429.80,572.13
45.58995,430.16,571.57
45.60953,430.52,570.21
45.63053,432.53,570.72
45.64924,437.50,573.39
45.66969,447.65,574.08
45.68968,466.78,585.26
45.70942,494.53,602.38
45.73091,525.96,618.54
45.75010,553.40,630.30
45.77023,578.73,638.54
45.79050,599.33,645.53
45.81108,614.60,648.04
45.83047,622.69,645.94
45.84996,615.73,641.23
45.86987,605.91,635.73
45.89078,595.08,625.01
45.91007,582.38,622.99
45.93024,564.99,615.66
45.95182,552.94,609.58
45.97161,539.73,602.66
45.99019,529.16,595.22
46.01138,518.28,592.08
46.03265,507.54,588.49
46.05356,499.81,582.02
46.07307,493.82,579.21
46.09344,486.78,580.07
46.11267,479.71,581.39
46.13367,478.06,579.72
46.15217,473.07,580.51
46.17235,469.46,578.72
46.19365,464.99,574.07
46.21320,461.52,574.09
46.23380,458.88,571.38
46.25466,458.57,569.71
46.27325,461.20,568.90
46.29336,458.21,570.32
46.31470,457.99,573.01
46.33320,458.08,571.58
46.35421,459.82,573.22
46.37468,458.66,571.38
46.39406,457.74,571.49
46.41424,458.49,567.95
46.43414,458.16,569.06
46.45418,455.95,567.28
46.47458,453.30,565.29
46.49544,452.49,565.29
46.51588,452.87,567.16
46.53446,450.67,568.11
46.55450,452.16,566.06
46.57541,450.76,565.32
46.59554,452.82,562.88
46.61559,453.30,563.93
46.63576,453.17,561.87
46.65468,452.74,560.55
46.67414,452.94,560.90
46.69532,453.31,567.83
46.71587,452.65,566.96
46.73528,454.67,568.55
46.75564,456.66,570.70
46.77587,458.07,571.55
46.79619,457.19,567.91
46.81594,454.58,567.13
46.83477,456.05,567.67
46.85543,457.30,567.56
46.87554,458.70,568.78
46.89535,458.65,569.51
46.91562,458.72,572.04
46.93542,461.43,573.71
46.95546,460.22,572.90
46.97425,459.42,571.53
46.99579,458.11,572.60
47.01546,459.89,570.94
47.03519,458.11,570.30
47.05543,457.46,567.92
47.07501,455.90,570.91
47.09403,458.08,572.56
47.11507,456.50,571.92
47.13457,456.60,574.27
47.15433,456.59,572.95
47.17420,456.55,571.07
47.19590,455.12,568.71
47.21607,457.26,568.19
47.23559,456.28,567.14
47.25690,457.35,569.39
47.27622,455.33,571.92
47.29587,454.99,574.07
47.31618,456.53,574.53
47.33634,455.22,575.26
47.35622,457.43,570.88
47.37706,457.44,571.51
47.39684,457.06,566.30
47.41670,456.76,565.96
47.43614,457.66,565.62
47.45663,458.24,568.41
47.47624,458.10,570.15
47.49627,456.32,573.41
47.51664,456.33,571.82
47.53702,456.19,573.29
47.55580,459.28,574.40
47.57701,455.39,574.28
47.59624,455.83,570.70
47.61575,455.96,570.93
47.63707,457.29,569.39
47.65734,456.17,567.01
47.67860,457.63,568.98
47.69824,455.60,570.59
47.71792,455.50,572.00
47.73734,456.05,572.89
47.75751,453.85,575.27
47.77839,453.39,570.61
47.79893,454.24,570.71
47.81743,455.95,572.24
47.83843,454.85,569.58
47.85726,455.03,572.01
47.87892,455.92,574.82
47.89813,453.77,576.62
47.91745,454.79,576.38
47.93788,454.91,574.89
47.95693,453.02,575.31
47.97766,451.03,572.50
47.99865,452.35,572.06
48.01807,450.18,568.64
48.03729,453.00,566.35
48.05744,450.27,566.87
48.07823,450.70,564.88
48.09798,451.41,570.09
48.11833,454.96,571.36
48.13835,451.89,574.46
48.15771,451.87,575.36
48.17776,449.27,574.64
48.19800,449.63,572.77
48.21802,451.55,570.26
48.23844,449.64,571.16
48.25788,449.31,568.53
48.27691,449.50,569.20
48.29729,449.43,568.59
48.31875,447.27,572.18
48.33736,447.79,572.69
48.35779,449.84,572.35
48.37871,449.39,573.10
48.39841,449.74,573.21
48.41708,447.71,570.99
48.43871,448.50,571.90
48.45831,447.59,567.72
48.47806,446.26,569.85
48.49849,445.00,571.29
48.51800,446.66,570.89
48.53800,445.51,571.75
48.55786,446.49,574.00
48.57773,447.69,575.28
48.59761,449.81,576.09
48.61836,448.13,573.49
48.63720,448.91,573.93
48.65727,448.50,571.33
48.67811,446.00,571.54
48.69754,446.33,569.70
48.71876,447.91,568.67
48.73770,448.76,573.32
48.75820,446.96,573.07
48.77820,446.25,576.37
48.79721,448.36,575.98
48.81714,446.83,573.50
48.83873,447.64,574.82
48.85862,447.45,570.88
48.87712,448.39,569.66
48.89882,447.02,569.68
48.91747,448.60,568.21
48.93693,448.68,572.09
48.95684,448.58,572.75
48.97691,446.00,574.77
48.99872,449.80,576.36
49.01722,447.26,576.14
49.03716,451.54,573.01
49.05787,441.41,571.61
49.07901,418.86,564.70
49.09912,393.51,558.40
49.12005,364.68,553.91
49.13987,337.20,546.20
49.16200,316.95,540.98
49.18232,304.30,534.21
49.20214,295.17,525.63
49.22183,289.47,517.94
49.24105,285.53,508.36
49.26123,291.02,505.59
49.28167,295.21,500.59
49.30276,304.37,500.54
49.32224,310.64,500.25
49.34210,320.77,500.51
49.36205,329.09,506.85
49.38171,337.92,514.16
49.40164,349.53,516.05
49.42117,355.24,522.96
49.44113,364.01,527.60
49.46261,371.65,528.86
49.48148,379.35,529.32
49.50164,388.03,533.58
49.52102,392.25,534.33
49.54247,398.87,540.25
49.56219,402.77,541.81
49.58105,408.44,542.38
49.60155,411.08,549.00
49.62192,416.54,553.96
49.64294,418.81,558.59
49.66117,419.60,562.36
49.68102,422.48,561.66
49.70297,424.91,562.16
49.72169,426.44,564.40
49.74190,429.09,563.49
49.76182,428.91,562.39
49.78161,427.88,564.62
49.80082,427.49,562.34
49.82172,428.25,567.02
49.84199,440.12,572.83
49.86253,457.50,589.12
49.88265,486.19,603.34
49.90349,517.63,621.59
49.92482,553.72,631.30
49.94424,583.12,638.13
49.96544,606.16,640.31
49.98599,615.71,641.79
50.00498,617.06,635.94
50.02568,610.71,630.52
50.04591,600.32,625.75
50.06422,587.73,620.48
50.08583,576.22,616.10
50.10489,563.44,611.32
50.12543,547.95,603.90
50.14436,534.77,596.10
50.16514,524.91,593.51
50.18562,512.87,586.19
50.20485,503.15,581.83
50.22500,496.80,582.45
50.24550,488.03,579.26
50.26551,485.67,580.28
50.28572,481.47,580.47
50.30571,478.16,581.80
50.32423,476.66,584.94
50.34602,475.15,584.25
50.36681,472.26,581.49
50.38584,470.59,579.43
50.40606,467.24,573.47
50.42603,465.86,572.21
50.44773,463.62,571.06
50.46687,462.83,568.48
50.48794,458.25,567.36
50.50614,457.94,573.43
50.52691,458.71,575.16
50.54785,459.66,572.67
50.56802,460.54,574.37
50.58793,460.64,575.75
50.60969,460.14,572.17
50.62919,457.40,570.22
50.64857,459.71,571.35
50.66979,460.64,571.01
50.68841,460.42,569.70
50.70912,457.48,568.56
50.72825,457.83,570.35
50.74957,456.06,574.44
50.76781,456.84,577.98
50.78824,458.26,577.32
50.80889,458.40,576.07
50.82848,456.61,577.02
50.84956,456.68,572.65
50.86886,458.00,571.22
50.88852,459.38,570.79
50.90811,459.19,566.40
50.92790,456.51,566.27
50.94959,458.47,565.96
50.96961,457.04,567.64
50.98851,459.56,568.15
51.00940,456.16,567.93
51.02947,457.09,567.03
51.04786,457.81,566.92
51.06965,459.51,567.22
51.08829,455.96,565.82
51.11051,455.43,562.57
51.13097,456.26,561.22
51.15026,455.71,559.28
51.17149,454.61,562.47
51.19092,456.28,564.20
51.21038,453.64,564.58
51.23142,453.43,565.52
51.25174,453.21,565.91
51.27130,452.13,569.33
51.29390,450.39,564.57
51.31221,450.50,561.95
51.33339,447.99,563.78
51.35313,445.85,560.00
51.37339,445.95,560.10
51.39240,445.60,561.35
51.41340,443.74,564.99
51.43346,444.69,565.74
51.45346,444.82,565.73
51.47452,443.31,568.47
51.49401,442.29,568.96
51.51527,439.52,566.74
51.53457,440.39,567.88
51.55587,440.29,565.55
51.57553,438.88,567.17
51.59536,438.57,564.67
51.61515,437.80,562.48
51.63405,438.49,562.79
51.65447,441.29,564.92
51.67574,438.73,568.30
51.69418,440.02,569.01
51.71543,439.76,572.83
51.73433,437.41,571.54
51.75451,437.63,572.67
51.77502,437.27,568.71
51.79575,436.09,570.68
51.81553,436.50,570.14
51.83439,437.54,567.94
51.85472,434.28,566.60
51.87416,434.85,569.63
51.89529,435.82,568.64
51.91529,436.33,573.29
51.93450,434.69,571.07
51.95519,434.76,573.31
51.97676,435.67,574.46
51.99638,436.80,570.03
52.01630,436.03,568.44
52.03620,435.78,568.23
52.05727,437.58,566.80
52.07696,435.60,565.27
52.09771,439.42,563.62
52.11754,438.51,565.31
52.13712,439.50,568.53
52.15729,437.10,567.06
52.17871,438.62,566.95
52.19789,440.39,567.70
52.21887,439.69,569.93
52.23762,440.69,568.98
52.25839,441.17,565.29
52.27993,440.43,565.23
52.29861,440.90,565.71
52.31831,439.28,561.92
52.33941,439.93,561.54
52.35834,441.63,561.08
52.37979,438.46,564.14
52.39801,440.74,564.75
52.41933,438.77,564.66
52.43933,437.99,567.15
52.45908,441.07,564.73
52.47915,441.08,567.42
52.49964,440.30,564.39
52.51889,442.04,564.80
52.53876,440.72,563.49
52.55961,442.77,564.52
52.57916,441.31,561.69
52.59865,440.28,562.00
52.61876,441.21,565.34
52.63879,443.70,569.44
52.65817,442.54,567.29
52.67869,443.31,569.23
52.69972,441.68,567.50
52.71814,443.46,567.00
52.73924,440.15,565.78
52.75803,442.93,563.16
52.77902,441.51,561.47
52.79817,443.16,561.69
52.81995,440.52,562.78
52.83911,441.04,561.45
52.85901,443.42,563.25
52.87941,441.55,563.95
52.89987,441.09,564.91
52.92009,442.41,569.28
52.93854,440.44,568.16
52.95846,442.57,569.33
52.97808,443.05,569.57
52.99917,440.06,565.34
53.01967,440.54,566.84
53.03903,440.69,561.31
53.05911,439.53,560.24
53.07808,440.48,559.74
53.09786,440.15,562.65
53.11845,441.65,563.42
53.13946,440.54,567.27
53.15871,444.02,565.97
53.17938,444.84,570.26
53.19860,445.91,567.12
53.21825,445.41,569.18
53.23913,446.59,568.73
53.25952,447.02,567.70
53.27918,445.83,566.27
53.29781,444.28,565.43
53.31895,442.43,562.07
53.33962,441.94,563.99
53.35805,442.94,562.55
53.37904,442.63,565.15
53.39971,440.79,566.79
53.41784,443.89,569.39
53.43816,445.12,569.15
53.45883,445.96,570.66
53.47865,443.60,568.38
53.49824,447.46,566.86
53.51936,447.67,564.38
53.53928,446.63,563.36
53.55801,446.31,560.08
53.57819,442.22,560.28
53.59829,428.20,559.83
53.61866,405.96,557.00
53.63920,377.50,562.36
53.65878,349.03,557.39
53.67776,326.37,546.74
53.69849,312.69,535.01
53.71900,301.04,526.08
53.73775,295.36,515.91
53.75944,293.73,511.74
53.77793,298.73,502.92
53.79929,303.76,499.62
53.81804,308.84,498.40
53.83979,318.76,499.47
53.85866,328.57,500.50
53.87899,340.47,503.16
53.89912,347.78,510.41
53.91899,358.24,513.56
53.93794,368.61,521.47
53.95986,376.63,527.80
53.97943,385.62,534.13
53.99911,396.49,538.70
54.01898,403.11,542.10
54.03978,408.58,544.66
54.05839,413.20,546.97
54.07939,418.00,544.96
54.09888,422.88,547.01
54.11843,427.43,549.86
54.13981,433.31,550.11
54.15831,433.97,551.97
54.17835,436.04,555.16
54.19819,437.75,559.68
54.21808,441.80,561.21
54.23916,443.48,561.52
54.25979,442.19,565.62
54.27792,443.59,567.34
54.29860,443.34,567.84
54.31906,442.27,565.70
54.33921,443.19,563.15
54.35950,442.59,564.74
54.37839,443.40,565.74
54.39974,444.14,562.92
54.41847,444.81,561.72
54.43897,447.08,565.43
54.45962,448.42,568.12
54.47895,448.26,569.12
54.49830,447.40,569.59
54.51818,447.41,571.36
54.53958,452.23,573.78
54.55818,458.51,586.10
54.57928,478.57,603.50
54.59936,500.10,615.98
54.61851,523.71,626.04
54.63977,557.62,635.63
54.65867,587.66,639.77
54.67971,610.51,640.83
54.69871,625.88,634.45
54.71800,626.14,631.75
54.73892,620.44,628.45
54.75978,609.56,625.30
54.77807,596.86,616.70
54.79960,582.15,613.82
54.81976,573.41,605.75
54.83810,560.01,601.29
54.85902,549.43,599.21
54.87833,543.93,592.43
54.89949,534.81,592.68
54.91986,529.42,588.02
54.93944,521.84,583.65
54.95940,514.46,580.04
54.98041,504.41,579.34
55.00065,500.78,577.59
55.02050,494.37,577.06
55.04052,488.46,577.44
55.05933,484.65,580.05
55.08104,482.09,578.46
55.10024,478.29,580.05
55.12000,476.89,578.72
55.14193,473.86,578.56
55.16036,471.85,577.25
55.18141,469.77,576.50
55.19984,469.81,573.50
55.22096,466.82,571.55
55.24166,465.68,568.54
55.26143,464.76,569.53
55.28199,461.46,570.70
55.30192,460.88,568.82
55.32267,457.73,573.94
55.34264,457.87,575.71
55.36309,456.21,576.99
55.38546,451.36,577.05
55.40573,450.34,577.03
55.42718,445.26,577.15
55.44675,444.30,575.47
55.46822,442.55,573.79
55.48972,442.19,569.74
55.50980,440.64,566.82
55.53001,439.57,567.92
55.55187,441.15,562.70
55.57144,436.85,563.60
55.59152,438.36,564.57
55.61115,438.80,567.87
55.63295,440.47,569.60
55.65205,439.52,573.83
55.67331,439.26,571.98
55.69200,439.40,570.29
55.71200,439.89,569.62
55.73225,441.14,569.43
55.75375,441.24,567.79
55.77385,440.19,569.48
55.79261,443.77,565.08
55.81273,441.15,564.06
55.83332,442.47,565.79
55.85387,438.41,563.61
55.87198,441.70,565.28
55.89290,440.47,565.30
55.91323,442.98,567.85
55.93384,440.80,568.86
55.95317,442.10,572.67
55.97355,444.37,573.43
55.99272,440.13,574.20
56.01241,442.19,575.44
56.03199,444.37,573.02
56.05314,444.29,574.22
56.07324,442.50,572.33
56.09274,445.29,572.47
56.11285,444.42,568.64
56.13424,446.81,566.07
56.15348,446.65,567.84
56.17352,447.48,563.85
56.19429,443.99,564.62
56.21396,444.46,562.47
56.23354,446.91,567.32
56.25382,446.08,570.80
56.27387,447.63,569.43
56.29325,445.33,572.76
56.31449,446.61,570.97
56.33286,448.33,570.27
56.35485,447.35,571.49
56.37411,450.98,572.71
56.39522,449.61,569.47
56.41543,451.94,567.85
56.43523,452.90,567.43
56.45574,451.97,565.99
56.47550,453.13,563.62
56.49504,453.14,562.77
56.51666,455.83,563.79
56.53781,456.71,565.82
56.55873,454.86,569.38
56.57780,453.99,573.04
56.59848,453.98,573.37
56.61748,456.91,573.32
56.63781,456.16,574.78
56.65943,453.81,578.31
56.67851,456.98,575.60
56.69913,454.32,574.80
56.71945,452.89,574.61
56.73899,454.76,571.90
56.75843,452.72,571.09
56.77917,457.57,570.88
56.79776,456.26,569.49
56.81940,455.08,566.95
56.83953,456.52,566.58
56.85940,455.99,567.73
56.87822,453.57,569.14
56.89894,452.50,573.08
56.91832,451.75,574.60
56.93846,454.76,574.85
56.95873,453.23,576.24
56.97898,453.37,575.41
56.99793,453.12,576.92
57.01938,453.71,578.44
57.03771,451.83,577.12
57.06034,451.87,575.47
57.08019,451.73,576.69
57.09883,450.13,575.37
57.11940,449.74,575.13
57.14010,451.71,571.41
57.15971,443.44,569.53
57.17929,426.90,563.91
57.19881,403.99,563.99
57.21996,378.06,566.62
57.23973,355.28,566.96
57.26160,338.05,563.35
57.27991,320.74,557.01
57.30022,310.86,552.60
57.32000,307.81,539.35
57.34161,304.71,534.35
57.36263,307.42,524.56
57.38356,306.66,517.87
57.40478,309.64,515.03
57.42476,317.05,508.50
57.44370,322.10,509.41
57.46470,331.41,505.63
57.48665,340.12,508.17
57.50723,349.24,507.83
57.52661,355.96,505.90
57.54942,364.62,510.07
57.56875,377.70,512.94
57.58918,385.30,519.00
57.60904,391.92,523.18
57.63004,399.76,530.83
57.65106,409.23,537.53
57.67160,416.75,544.91
57.69125,419.09,547.28
57.71209,427.19,552.19
57.73255,430.57,557.59
57.75253,431.93,558.65
57.77267,435.78,561.30
57.79186,438.54,564.25
57.81175,440.19,563.97
57.83218,443.44,565.21
57.85215,444.87,567.18
57.87271,445.16,566.26
57.89091,445.17,566.08
57.91262,448.81,568.12
57.93070,453.32,564.76
57.95195,452.44,562.67
57.97136,455.14,560.22
57.99193,456.04,559.31
58.01325,456.84,559.63
58.03406,453.05,560.78
58.05271,454.09,565.46
58.07415,456.77,566.97
58.09513,455.23,567.59
58.11510,457.88,572.13
58.13549,465.51,572.66
58.15504,476.55,582.64
58.17490,496.66,598.47
58.19651,525.47,617.20
58.21643,554.09,630.84
58.23505,584.73,638.89
58.25553,610.69,646.24
58.27582,627.00,649.27
58.29502,631.39,645.05
58.31483,626.03,638.78
58.33612,616.59,631.55
58.35609,606.14,622.66
58.37590,591.97,612.80
58.39539,576.43,605.16
58.41639,566.01,600.66
58.43523,553.57,598.16
58.45669,540.13,595.21
58.47511,531.38,595.85
58.49630,521.40,592.45
58.51633,509.84,591.19
58.53498,503.77,587.30
58.55533,497.33,585.37
58.57533,489.59,583.33
58.59517,482.83,581.37
58.61615,479.08,580.72
58.63505,474.12,583.13
58.65652,468.56,579.66
58.67470,465.23,579.01
58.69515,464.11,578.29
58.71491,460.74,576.60
58.73541,458.07,576.54
58.75537,458.04,578.44
58.77511,459.53,576.94
58.79570,460.48,573.34
58.81606,459.48,571.21
58.83617,461.78,573.48
58.85613,460.53,568.28
58.87727,455.36,567.74
58.89718,451.02,569.34
58.91714,450.83,568.65
58.93693,450.25,573.39
58.95640,447.44,574.37
58.97710,447.89,575.31
58.99766,449.40,574.12
59.01646,449.21,576.31
59.03766,444.35,575.18
59.05608,447.28,577.60
59.07613,446.75,575.97
59.09716,447.03,575.42
59.11587,444.54,573.05
59.13771,447.95,572.82
59.15606,448.18,573.11
59.17685,447.52,573.40
59.19663,449.44,571.49
59.21754,449.39,571.20
