Program Time [s],data 0,data 1
6.43835,435.37,551.56
6.45936,435.14,551.52
6.47898,435.38,555.90
6.49873,436.96,556.71
6.51988,434.65,561.95
6.54073,433.56,565.45
6.56246,435.68,572.14
6.58276,434.38,574.86
6.60245,437.63,577.77
6.62150,439.12,579.45
6.64209,437.88,579.19
6.66267,441.92,575.53
6.68374,443.77,573.14
6.70468,444.65,571.03
6.72373,447.58,570.96
6.74482,449.91,567.85
6.76534,450.04,569.77
6.78526,451.08,570.72
6.80508,452.62,570.08
6.82603,451.89,571.78
6.84537,454.48,576.39
6.86516,451.23,575.46
6.88592,450.60,576.52
6.90682,452.32,575.51
6.92732,451.50,576.13
6.94559,453.83,575.97
6.96822,450.41,576.08
6.98841,450.49,578.09
7.00817,450.58,575.94
7.02923,451.54,576.03
7.04971,447.24,573.45
7.06961,447.93,574.69
7.08980,445.26,573.42
7.11018,447.86,572.33
7.13099,445.16,575.87
7.15109,447.59,571.97
7.16970,444.53,573.57
7.19135,442.71,573.72
7.21005,444.78,571.59
7.23066,441.90,570.29
7.25044,444.43,574.46
7.26966,437.27,572.14
7.29128,421.89,570.69
7.31090,400.19,570.88
7.33194,377.57,568.38
7.35074,354.72,559.87
7.37154,335.34,554.58
7.39157,315.10,540.22
7.41216,304.33,531.38
7.43152,295.06,518.78
7.45151,291.77,510.73
7.47168,292.50,503.24
7.49048,296.30,496.41
7.51186,303.52,493.77
7.53205,311.71,492.60
7.55060,318.74,496.93
7.57089,329.07,498.38
7.59072,337.19,499.90
7.61138,349.92,504.69
7.63072,357.59,513.41
7.65175,365.63,515.83
7.67222,373.35,521.25
7.69125,384.11,529.39
7.71144,390.77,533.75
7.73083,396.47,536.56
7.75141,404.74,542.76
7.77167,406.06,543.14
7.79169,412.96,547.69
7.81255,415.75,548.98
7.83133,420.23,554.09
7.85050,422.55,554.78
7.87215,424.31,556.15
7.89065,425.64,559.25
7.91143,426.99,560.09
7.93076,431.08,561.90
7.95134,430.50,562.30
7.97094,433.66,561.57
7.99130,433.94,563.63
8.01218,433.42,563.67
8.03157,434.48,566.44
8.05365,441.10,569.22
8.07310,450.92,575.74
8.09404,473.60,586.80
8.11554,498.93,597.72
8.13398,526.64,607.94
8.15443,554.01,617.61
8.17376,582.58,624.22
8.19451,603.98,629.71
8.21435,617.90,633.34
8.23496,619.66,633.84
8.25459,615.20,630.80
8.27381,602.97,622.66
8.29380,590.30,617.72
8.31427,576.74,611.44
8.33460,564.56,607.37
8.35437,551.96,600.84
8.37515,536.05,596.42
8.39361,523.07,592.09
8.41393,509.77,589.71
8.43434,500.76,587.49
8.45631,491.31,585.32
8.47648,485.73,581.12
8.49535,480.28,580.48
8.51466,471.72,576.20
8.53580,467.99,577.59
8.55505,461.87,575.18
8.57464,461.10,574.41
8.59473,456.28,569.67
8.61564,454.40,569.51
8.63454,448.58,570.00
8.65485,446.47,568.81
8.67570,444.58,567.76
8.69657,444.83,564.96
8.71621,443.70,567.39
8.73618,441.67,565.60
8.75502,441.57,565.34
8.77541,439.61,564.92
8.79608,441.97,566.33
8.81455,437.77,564.93
8.83487,432.38,564.81
8.85627,431.16,562.17
8.87598,428.22,561.32
8.89635,428.23,562.50
8.91548,428.08,562.42
8.93559,428.77,561.77
8.95641,425.68,562.13
8.97571,422.88,557.30
8.99510,424.15,554.56
9.01509,421.80,555.11
9.03460,423.84,553.02
9.05475,423.46,555.22
9.07594,425.61,554.33
9.09628,424.93,554.47
9.11577,428.47,554.66
9.13635,428.29,554.67
9.15477,432.55,555.24
9.17555,431.00,556.17
9.19505,433.57,558.23
9.21605,431.38,556.57
9.23631,435.03,557.81
9.25558,433.08,562.77
9.27488,432.01,560.79
9.29514,435.43,563.09
9.31567,435.94,565.17
9.33463,433.93,564.07
9.35478,434.03,565.02
9.37578,434.87,564.61
9.39592,433.03,563.71
9.41660,433.68,566.01
9.43491,435.04,563.56
9.45542,431.34,565.12
9.47574,431.84,566.57
9.49444,431.19,566.11
9.51591,434.44,565.31
9.53448,435.43,564.51
9.55556,434.36,563.72
9.57650,434.90,567.19
9.59450,435.43,566.10
9.61489,435.57,564.88
9.63482,435.94,565.96
9.65559,435.68,564.02
9.67605,433.30,564.55
9.69472,434.70,565.30
9.71495,434.99,566.23
9.73568,436.48,565.77
9.75585,436.63,568.53
9.77475,433.62,568.14
9.79585,435.59,567.57
9.81493,434.05,568.11
9.83489,434.82,566.64
9.85552,433.87,568.55
9.87641,435.11,567.16
9.89449,435.39,567.43
9.91547,438.02,568.57
9.93543,439.06,568.36
9.95505,439.37,566.75
9.97491,435.53,567.51
9.99615,435.78,568.13
10.01528,436.97,566.65
10.03521,435.16,567.54
10.05509,434.85,567.17
10.07475,434.68,565.65
10.09467,437.56,568.18
10.11532,434.84,567.58
10.13518,436.93,565.68
10.15522,437.66,566.98
10.17578,437.06,563.18
10.19553,437.63,563.18
10.21628,436.23,564.36
10.23550,437.99,566.55
10.25586,436.14,567.66
10.27463,438.17,564.72
10.29449,436.08,568.84
10.31502,437.18,567.92
10.33530,436.46,567.91
10.35667,439.86,567.79
10.37628,440.48,567.17
10.39591,442.65,567.21
10.41607,442.40,566.98
10.43621,442.14,568.49
10.45676,442.22,567.69
10.47714,444.43,567.17
10.49702,446.18,566.60
10.51735,446.08,565.45
10.53592,442.03,565.71
10.55641,444.17,566.09
10.57565,445.32,564.87
10.59589,441.49,567.01
10.61669,442.92,565.63
10.63746,440.86,564.01
10.65603,441.44,564.89
10.67684,441.47,564.11
10.69626,443.47,562.46
10.71567,444.45,562.33
10.73663,445.89,562.12
10.75681,444.79,563.68
10.77644,440.66,563.90
10.79652,430.18,561.10
10.81725,411.83,560.38
10.83673,392.03,559.79
10.85581,368.70,562.64
10.87662,353.03,563.64
10.89571,337.40,562.69
10.91743,321.80,559.39
10.93742,313.81,550.99
10.95613,311.98,544.13
10.97637,308.04,537.69
10.99553,312.84,531.26
11.01717,315.43,525.41
11.03748,322.36,521.39
11.05673,326.44,519.34
11.07536,334.87,516.26
11.09636,344.23,517.35
11.11729,353.63,521.53
11.13584,365.54,521.81
11.15621,375.66,524.64
11.17594,381.58,528.41
11.19621,391.86,533.16
11.21616,397.66,538.39
11.23621,403.87,541.22
11.25632,411.00,544.40
11.27636,416.62,544.12
11.29591,419.65,545.58
11.31597,421.66,547.92
11.33702,427.69,551.06
11.35683,427.57,553.49
11.37716,428.75,554.78
11.39679,435.02,555.87
11.41750,436.61,560.52
11.43586,441.19,560.65
11.45553,439.59,560.96
11.47616,445.15,560.84
11.49656,442.79,561.23
11.51625,444.98,562.12
11.53589,446.98,563.40
11.55697,444.80,563.04
11.57554,445.37,565.46
11.59626,443.05,564.58
11.61622,443.01,562.53
11.63656,446.45,565.32
11.65713,456.89,574.62
11.67567,471.25,587.59
11.69666,497.87,599.13
11.71649,523.16,606.68
11.73592,552.28,610.84
11.75723,578.39,609.63
11.77617,604.01,609.56
11.79704,612.17,603.09
11.81757,617.42,597.80
11.83636,613.87,594.88
11.85553,603.27,592.12
11.87640,594.83,584.77
11.89585,580.32,582.71
11.91721,568.42,581.58
11.93675,554.42,580.18
11.95715,543.74,577.85
11.97728,532.57,577.09
11.99650,524.57,577.16
12.01561,516.72,575.68
12.03649,504.76,574.03
12.05627,497.63,573.90
12.07621,494.12,571.60
12.09694,484.65,572.68
12.11646,479.61,572.41
12.13667,476.93,574.74
12.15732,471.62,571.74
12.17576,470.07,571.49
12.19541,467.41,573.22
12.21735,465.86,570.62
12.23577,462.04,570.69
12.25563,460.04,572.81
12.27634,460.88,572.21
12.29617,457.05,572.43
12.31676,457.40,569.06
12.33647,458.61,570.17
12.35619,458.96,570.55
12.37575,456.46,570.79
12.39593,456.55,572.75
12.41710,456.02,571.30
12.43707,457.09,571.78
12.45732,456.09,572.51
12.47606,457.76,568.91
12.49719,456.33,568.51
12.51709,457.30,570.34
12.53712,455.18,570.05
12.55735,457.33,568.14
12.57680,455.77,570.46
12.59615,457.06,569.78
12.61714,455.51,569.24
12.63545,454.39,568.41
12.65625,455.26,568.36
12.67728,455.83,568.48
12.69555,455.58,571.18
12.71674,454.40,567.03
12.73650,455.78,568.76
12.75677,455.73,567.34
12.77712,454.64,570.17
12.79567,454.86,569.63
12.81732,454.74,570.55
12.83641,454.85,568.09
12.85636,454.16,569.45
12.87575,454.75,570.67
12.89679,452.95,570.87
12.91732,455.86,569.14
12.93566,454.54,570.06
12.95589,456.64,572.31
12.97588,452.39,571.22
12.99682,454.96,571.84
13.01566,456.38,570.14
13.03556,453.50,571.66
13.05673,453.41,570.01
13.07578,452.69,573.06
13.09691,452.62,570.86
13.11596,453.93,573.05
13.13621,450.81,570.02
13.15596,450.60,570.94
13.17640,451.99,571.80
13.19573,452.63,572.15
13.21660,450.28,568.78
13.23550,455.64,570.39
13.25582,452.53,569.10
13.27749,453.45,568.91
13.29635,455.42,568.77
13.31651,452.26,572.06
13.33651,455.97,570.57
13.35670,455.87,569.82
13.37640,452.63,568.45
13.39661,455.53,569.17
13.41616,453.96,570.14
13.43594,454.89,566.91
13.45649,455.71,569.07
13.47581,457.00,570.48
13.49578,457.76,569.88
13.51691,453.66,570.34
13.53575,455.76,569.30
13.55582,453.04,566.97
13.57737,452.55,569.45
13.59719,451.94,568.69
13.61663,455.05,566.35
13.63571,452.46,567.63
13.65685,454.35,568.59
13.67609,451.84,568.62
13.69722,452.63,570.02
13.71715,451.17,567.54
13.73645,453.43,568.26
13.75743,454.49,569.02
13.77652,451.81,569.33
13.79720,453.52,568.17
13.81613,451.48,569.79
13.83737,450.71,567.92
13.85589,453.84,570.94
13.87617,452.96,568.11
13.89744,452.58,571.24
13.91613,453.63,571.68
13.93637,453.98,572.26
13.95671,452.49,571.97
13.97556,452.38,571.06
13.99676,452.58,573.49
14.01595,452.47,574.59
14.03543,450.84,571.98
14.05670,451.61,571.96
14.07565,452.01,572.26
14.09660,451.80,572.09
14.11622,453.29,569.65
14.13562,452.51,573.08
14.15685,453.00,573.22
14.17792,453.72,571.86
14.19645,450.26,572.58
14.21744,453.81,574.04
14.23822,451.06,573.96
14.25651,454.07,572.79
14.27809,453.46,569.84
14.29657,454.03,573.51
14.31683,454.27,570.34
14.33757,454.46,571.77
14.35651,451.59,573.40
14.37774,452.07,571.27
14.39742,455.19,572.34
14.41725,452.82,571.14
14.43815,453.52,574.02
14.45736,452.92,573.50
14.47682,451.63,572.90
14.49708,454.29,572.17
14.51656,452.26,573.40
14.53821,453.26,572.89
14.55710,455.51,571.39
14.57769,455.58,569.97
14.59689,455.91,572.95
14.61748,453.59,570.70
14.63793,455.25,573.37
14.65701,455.60,570.51
14.67834,453.37,571.59
14.69800,452.50,572.41
14.71739,451.27,569.31
14.73733,451.31,570.47
14.75822,450.84,572.26
14.77632,450.20,570.45
14.79813,448.93,570.06
14.81664,451.26,572.50
14.83816,451.86,573.23
14.85758,450.50,570.97
14.87803,453.58,572.29
14.89766,453.37,570.19
14.91773,454.34,572.11
14.93703,453.02,570.88
14.95697,451.32,570.03
14.97668,452.12,568.47
14.99749,452.31,568.27
15.01671,445.05,569.16
15.03816,431.97,568.17
15.05817,408.74,565.89
15.07661,390.11,558.55
15.09661,364.01,555.19
15.11642,346.52,547.89
15.13691,331.87,540.57
15.15713,317.95,529.19
15.17820,311.20,523.38
15.19785,304.57,517.63
15.21679,306.26,518.57
15.23690,305.79,516.24
15.25823,313.55,518.01
15.27645,321.27,520.95
15.29846,327.27,525.48
15.31817,335.77,527.51
15.33683,345.35,533.41
15.35666,354.49,534.93
15.37732,361.62,539.89
15.39806,369.55,545.75
15.41723,379.44,546.99
15.43789,386.66,551.20
15.45799,397.82,549.89
15.47795,403.53,553.80
15.49697,409.25,556.31
15.51848,413.55,559.27
15.53739,417.83,561.32
15.55780,422.10,563.31
15.57645,429.01,564.53
15.59771,429.95,567.89
15.61633,431.75,566.48
15.63814,436.67,570.00
15.65874,434.40,567.54
15.68005,439.24,569.33
15.69946,437.23,570.75
15.71951,439.31,569.64
15.73965,441.42,571.95
15.75920,441.19,570.04
15.77946,440.81,573.05
15.79983,442.60,573.01
15.81969,442.90,570.61
15.83910,442.98,573.77
15.85889,447.17,575.81
15.87992,448.70,580.96
15.90003,455.78,587.92
15.91949,462.88,589.69
15.93898,477.68,594.95
15.95866,497.57,598.86
15.97838,520.69,603.23
15.99959,547.01,607.11
16.01886,571.29,603.69
16.04032,593.48,601.17
16.05850,609.70,599.31
16.07976,619.27,596.04
16.09858,616.02,594.80
16.11920,604.52,592.83
16.13862,595.57,594.47
16.15892,583.59,590.81
16.17939,568.85,590.72
16.19985,556.28,587.88
16.21839,543.34,587.55
16.24012,531.44,587.28
16.25822,519.49,587.01
16.27944,509.12,582.57
16.29842,500.13,584.48
16.31955,490.31,583.55
16.33942,483.28,579.06
16.35980,478.75,581.35
16.37875,476.99,582.56
16.39882,478.15,588.66
16.41999,475.08,591.76
16.44003,474.69,592.67
16.46012,471.34,590.27
16.47869,467.44,587.06
16.49858,464.56,586.12
16.51964,462.15,583.38
16.53945,461.08,582.92
16.55908,455.18,581.23
16.57904,453.01,580.56
16.60004,452.45,577.37
16.61871,451.93,574.74
16.64029,446.96,574.57
16.65867,447.71,575.38
16.67903,447.40,571.46
16.69933,445.45,572.05
16.71856,445.76,570.99
16.73911,444.33,569.88
16.75990,443.36,572.50
16.77993,443.28,573.63
16.79952,442.11,572.00
16.81956,443.66,571.60
16.84026,441.59,571.33
16.85925,441.56,571.07
16.87989,441.54,571.05
16.89903,442.70,572.21
16.91991,441.81,572.83
16.93828,441.98,571.76
16.95911,441.95,572.95
16.97890,444.34,574.50
16.99985,443.98,574.89
17.01918,439.08,571.27
17.03906,437.65,574.27
17.06020,440.34,571.49
17.07959,440.52,571.15
17.09864,440.33,574.03
17.11995,440.93,573.65
17.14042,439.44,574.37
17.16086,438.20,575.50
17.17986,437.17,573.15
17.20047,439.65,573.66
17.22081,439.61,571.17
17.24113,439.28,571.60
17.26078,437.46,575.09
17.28120,436.07,573.49
17.30127,436.16,572.96
17.32018,435.13,571.47
17.33943,435.51,572.35
17.35983,435.82,569.41
17.38087,438.05,569.62
17.40062,436.16,572.66
17.41949,436.45,570.27
17.43987,435.33,572.25
17.45989,436.24,570.51
17.47957,434.68,572.40
17.50062,434.24,572.90
17.52001,433.80,571.64
17.54112,433.28,571.39
17.56137,435.51,572.07
17.58093,436.03,572.78
17.59915,436.15,570.55
17.61943,436.03,571.25
17.63983,436.80,572.00
17.65971,435.63,573.42
17.68104,434.58,575.28
17.70012,433.65,572.05
17.71990,432.80,575.60
17.74069,434.38,573.51
17.76076,432.30,572.58
17.77988,431.98,571.82
17.80091,433.13,570.66
17.82106,434.44,573.13
17.84069,433.27,572.61
17.86034,434.42,574.42
17.87958,432.50,574.46
17.90097,432.36,572.86
17.92022,434.37,570.53
17.94048,434.15,568.65
17.96006,433.00,571.32
17.98034,431.88,570.67
18.00126,433.88,569.56
18.02219,431.55,571.18
18.04182,433.88,569.89
18.06169,431.97,570.67
18.08039,430.08,570.71
18.10086,432.34,572.82
18.12210,432.02,570.73
18.14037,431.56,572.40
18.16236,434.32,573.17
18.18238,434.22,574.69
18.20048,436.52,575.27
18.22150,435.67,571.72
18.24224,437.79,574.76
18.26132,436.24,574.13
18.28170,437.78,573.86
18.30296,434.83,571.87
18.32279,436.00,570.25
18.34167,435.08,568.80
18.36313,435.65,568.00
18.38255,437.11,566.83
18.40276,434.46,567.39
18.42168,436.39,569.24
18.44175,436.66,570.50
18.46246,434.95,569.54
18.48269,434.78,568.63
18.50156,434.80,568.01
18.52277,434.97,567.39
18.54138,436.98,568.11
18.56282,434.93,568.70
18.58247,435.30,568.34
18.60123,435.01,569.53
18.62152,437.64,569.25
18.64244,433.38,565.97
18.66310,434.46,567.82
18.68319,436.92,567.56
18.70301,436.16,568.68
18.72167,437.82,566.83
18.74197,436.38,568.83
18.76286,438.22,564.85
18.78178,435.64,567.15
18.80241,436.54,567.53
18.82151,435.93,569.00
18.84133,436.86,567.95
18.86181,438.95,566.98
18.88315,436.01,568.18
18.90174,437.56,566.66
18.92146,426.77,567.53
18.94326,409.78,566.62
18.96137,385.12,565.74
18.98184,361.26,567.29
19.00330,335.85,562.91
19.02339,318.99,555.70
19.04202,302.65,547.26
19.06246,296.16,535.05
19.08256,290.86,527.73
19.10301,290.08,517.74
19.12237,289.37,514.15
19.14277,296.46,512.19
19.16142,299.99,512.89
19.18258,311.08,514.89
19.20182,319.39,515.64
19.22398,331.10,517.42
19.24259,338.89,521.98
19.26361,351.74,524.69
19.28236,359.71,527.07
19.30414,371.52,530.66
19.32344,378.00,536.09
19.34317,385.00,541.99
19.36389,392.85,544.65
19.38302,401.11,546.70
19.40340,403.87,550.53
19.42281,412.27,551.91
19.44280,415.78,554.86
19.46394,419.12,558.13
19.48333,424.21,558.13
19.50268,423.80,560.08
19.52299,428.35,563.40
19.54346,429.85,565.71
19.56325,434.23,565.92
19.58293,434.77,567.02
19.60233,434.35,566.02
19.62423,437.69,566.81
19.64325,438.46,567.45
19.66325,436.36,568.91
19.68345,438.47,566.09
19.70405,439.13,567.46
19.72314,438.07,567.20
19.74430,437.79,568.62
19.76428,438.05,570.19
19.78233,437.19,568.34
19.80317,439.47,569.31
19.82302,453.01,572.15
19.84370,471.22,581.49
19.86391,500.63,588.16
19.88295,531.37,595.49
19.90382,564.96,604.21
19.92298,597.12,607.44
19.94272,617.16,612.11
19.96289,623.55,613.95
19.98436,620.45,612.59
20.00324,615.20,611.85
20.02407,600.56,607.30
20.04401,590.86,604.11
20.06295,575.16,602.62
20.08299,559.94,597.65
20.10432,546.40,596.75
20.12345,536.46,592.48
20.14400,525.59,588.37
20.16240,512.56,586.82
20.18308,503.54,584.52
20.20212,494.46,582.43
20.22246,489.59,582.29
20.24263,483.46,581.44
20.26296,477.21,580.80
20.28318,471.95,577.53
20.30281,470.03,579.53
20.32405,463.87,575.72
20.34340,462.87,575.04
20.36326,460.83,573.37
20.38362,455.95,574.23
20.40255,456.31,572.30
20.42322,454.92,572.78
20.44347,449.82,574.24
20.46274,449.51,571.30
20.48365,449.22,572.09
20.50344,448.14,570.04
20.52419,447.95,571.59
20.54235,445.47,569.25
20.56289,445.78,571.40
20.58266,448.54,571.21
20.60386,446.92,572.15
20.62361,446.13,572.97
20.64313,445.49,571.66
20.66370,446.03,569.95
20.68244,446.48,570.52
20.70358,446.04,572.50
20.72401,446.30,572.22
20.74410,446.60,570.70
20.76278,445.96,569.04
20.78296,448.20,571.25
20.80376,447.07,572.02
20.82333,444.36,570.26
20.84273,445.83,570.38
20.86283,443.67,569.94
20.88419,444.70,569.99
20.90386,443.03,568.72
20.92280,444.75,570.09
20.94245,448.14,567.52
20.96389,445.70,570.74
20.98330,446.14,571.11
21.00283,444.03,572.51
21.02250,442.91,571.27
21.04423,443.81,571.72
21.06302,446.04,571.07
21.08421,445.94,573.74
21.10290,443.68,570.67
21.12360,444.89,572.54
21.14307,446.22,569.55
21.16385,445.39,573.05
21.18296,444.19,571.11
21.20231,445.21,570.23
21.22394,448.61,569.79
21.24398,446.37,570.99
21.26358,446.83,571.12
21.28329,449.68,570.61
21.30501,450.27,571.27
21.32412,450.34,570.35
21.34372,449.89,571.86
21.36379,447.75,568.68
21.38499,447.79,570.27
21.40330,451.04,571.12
21.42430,451.65,569.35
21.44353,451.50,568.99
21.46349,453.03,566.55
21.48413,451.83,565.87
21.50497,453.14,569.10
21.52441,449.91,567.87
21.54344,449.45,568.56
21.56429,449.23,567.73
21.58440,450.24,569.60
21.60353,453.26,567.07
21.62489,451.77,570.26
21.64336,450.74,568.89
21.66365,453.18,569.81
21.68381,450.96,568.89
21.70382,450.98,567.79
21.72452,451.79,569.69
21.74472,451.77,568.40
21.76499,450.62,571.23
21.78436,450.24,570.10
21.80442,448.43,570.40
21.82501,448.99,571.98
21.84367,449.41,571.81
21.86383,452.30,569.65
21.88509,452.39,570.37
21.90443,450.94,570.75
21.92405,453.12,570.49
21.94472,452.51,570.49
21.96457,450.97,568.35
21.98389,451.08,569.31
22.00415,450.41,568.75
22.02512,448.85,568.56
22.04504,450.54,566.90
22.06388,451.46,569.90
22.08577,448.89,571.55
22.10445,451.40,568.92
22.12589,451.58,570.42
22.14523,448.52,569.37
22.16462,449.41,568.46
22.18571,449.55,566.99
22.20501,450.68,566.80
22.22471,451.74,567.41
22.24541,450.61,566.57
22.26590,452.05,568.36
22.28447,452.28,567.78
22.30584,450.62,568.46
22.32518,451.99,568.21
22.34473,452.72,569.06
22.36546,449.78,569.06
22.38491,452.94,571.17
22.40464,453.05,571.09
22.42581,451.47,570.20
22.44568,451.07,569.17
22.46460,453.32,570.65
22.48531,450.00,572.94
22.50551,450.98,570.28
22.52439,451.41,572.25
22.54430,450.58,569.73
22.56436,452.26,567.48
22.58588,452.53,567.93
22.60434,449.93,569.07
22.62564,450.79,567.76
22.64638,450.75,569.98
22.66529,450.66,568.42
22.68543,451.74,568.02
22.70722,447.74,566.79
22.72664,447.59,565.16
22.74545,438.07,563.79
22.76530,420.62,564.30
22.78619,397.05,565.14
22.80525,371.13,564.54
22.82543,346.12,561.96
22.84680,326.47,560.57
22.86679,315.71,555.66
22.88601,308.14,550.65
22.90786,300.11,545.43
22.92807,302.99,536.71
22.94639,303.76,532.58
22.96709,309.69,529.31
22.98666,317.82,524.93
23.00783,325.16,521.93
23.02666,333.81,521.68
23.04737,341.29,522.60
23.06678,349.93,521.97
23.08760,361.05,525.53
23.10761,370.29,531.27
23.12782,376.86,531.64
23.14721,387.76,535.58
23.16656,393.88,538.18
23.18636,400.42,543.61
23.20647,405.52,548.26
23.22800,411.91,549.49
23.24635,415.23,554.26
23.26636,419.45,559.34
23.28714,425.34,560.41
23.30716,427.75,563.10
23.32760,431.26,567.76
23.34876,434.62,568.56
23.36837,432.87,568.41
23.38897,435.25,570.01
23.40855,434.22,570.12
23.42889,434.24,570.72
23.45019,437.57,573.51
23.46903,437.24,572.61
23.48857,436.92,573.56
23.50928,437.90,574.60
23.52892,439.13,574.66
23.54984,440.13,573.95
23.56811,439.06,572.63
23.58850,440.40,573.11
23.60868,437.29,575.62
23.62982,440.61,575.80
23.65015,439.52,575.20
23.66936,441.89,577.15
23.68847,448.81,578.93
23.70853,468.30,589.44
23.72988,492.56,597.75
23.74950,522.96,608.15
23.76941,555.37,619.38
23.78903,584.42,626.36
23.80878,609.65,631.57
23.82980,618.57,630.41
23.85001,620.31,630.05
23.86976,613.83,627.15
23.89002,605.01,622.10
23.90929,589.56,616.38
23.92968,577.16,610.15
23.94833,564.15,605.22
23.96882,548.92,599.08
23.99078,536.53,593.30
24.01043,523.53,587.71
24.02958,511.60,587.61
24.04964,499.70,580.39
24.07015,490.52,576.38
24.09080,484.50,573.26
24.10920,477.64,571.71
24.12924,473.86,571.20
24.14968,469.76,571.84
24.17056,463.90,571.26
24.19034,457.40,570.91
24.20931,456.17,567.28
24.23000,453.94,567.88
24.25057,450.33,568.51
24.26978,448.81,565.07
24.28968,447.13,567.99
24.31133,443.61,566.32
24.33085,441.38,567.11
24.35019,439.84,565.28
24.37153,438.99,568.15
24.39002,440.17,569.04
24.41144,437.47,565.67
24.43187,438.70,567.73
24.45191,439.00,567.43
24.47120,435.44,568.17
24.49173,435.17,568.95
24.51186,436.81,568.22
24.53128,438.45,571.76
24.55169,435.21,571.47
24.57063,435.71,570.08
24.59142,436.59,566.62
24.61077,439.13,569.13
24.63202,436.93,566.18
24.65094,436.20,567.56
24.67022,434.38,569.05
24.69009,435.82,568.74
24.71136,437.70,566.84
24.73012,434.70,566.43
24.75060,436.42,564.72
24.77172,435.08,564.64
24.79047,434.80,565.07
24.81033,438.33,563.99
24.83161,435.19,565.22
24.85118,437.45,564.94
24.87116,434.43,564.36
24.89073,437.75,565.15
24.91112,436.55,565.77
24.93190,438.57,565.16
24.95032,436.02,567.99
24.97046,437.10,566.57
24.99192,437.90,568.03
25.01035,438.45,565.17
25.03086,440.45,564.49
25.05186,440.13,566.84
25.07205,437.67,565.57
25.09135,436.06,565.10
25.11063,434.89,567.69
25.13034,436.55,565.11
25.15197,434.03,566.98
25.17043,436.92,565.56
25.19131,435.61,566.44
25.21057,434.02,564.78
25.23094,437.88,565.20
25.25016,437.18,566.09
25.27043,436.60,566.08
25.29096,436.07,567.29
25.31126,439.48,566.26
25.33142,435.32,566.28
25.35174,433.20,567.45
25.37100,433.76,569.21
25.39035,434.87,568.19
25.41198,436.90,565.44
25.43081,438.37,565.65
25.45148,434.82,566.91
25.47069,435.18,566.49
25.49001,434.64,566.95
25.51179,437.56,568.20
25.53124,435.87,569.51
25.55152,438.35,568.26
25.57089,435.44,571.14
25.59171,435.10,570.58
25.61183,437.29,568.41
25.63218,437.88,568.12
25.65187,437.28,570.85
25.67160,438.85,571.40
25.69173,435.41,568.75
25.71285,438.42,568.82
25.73289,439.62,570.83
25.75277,438.52,570.19
25.77167,440.27,570.12
25.79126,435.72,572.48
25.81164,436.72,570.40
25.83200,436.14,569.63
25.85283,434.99,571.94
25.87179,438.11,571.47
25.89263,436.70,570.59
25.91243,440.18,568.85
25.93187,437.90,570.30
25.95132,438.53,570.36
25.97192,435.90,570.11
25.99184,436.75,568.95
26.01201,434.62,568.95
26.03209,435.98,570.44
26.05174,434.79,567.66
26.07144,437.12,568.56
26.09290,436.66,569.86
26.11134,438.99,567.28
26.13207,438.28,570.06
26.15150,435.84,568.67
26.17244,438.19,568.06
26.19264,436.71,565.88
26.21303,437.68,566.68
26.23248,439.29,567.49
26.25332,436.27,566.83
26.27344,438.17,569.85
26.29222,436.47,567.76
26.31382,440.40,567.33
26.33304,440.55,570.24
26.35242,437.83,565.19
26.37266,424.20,564.18
26.39372,403.50,560.68
26.41224,377.51,553.96
26.43233,353.49,550.66
26.45235,332.18,550.14
26.47261,317.93,546.48
26.49203,305.89,545.85
26.51385,302.40,539.77
26.53214,295.40,535.37
26.55230,298.68,531.02
26.57317,301.91,529.22
26.59345,309.75,525.23
26.61420,318.67,524.46
26.63343,327.52,526.55
26.65267,335.77,525.27
26.67212,344.91,527.58
26.69346,355.98,529.89
26.71402,366.30,530.67
26.73280,372.04,534.93
26.75406,383.05,535.52
26.77279,390.40,542.12
26.79309,394.87,543.77
26.81326,404.47,548.77
26.83306,410.25,550.90
26.85192,414.47,554.06
26.87212,418.51,557.59
26.89396,422.93,557.96
26.91360,428.04,560.68
26.93207,429.46,560.02
26.95341,433.18,561.93
26.97343,433.45,563.00
26.99287,434.61,561.46
27.01256,435.88,563.67
27.03410,434.95,564.98
27.05375,440.27,565.00
27.07408,439.50,566.61
27.09506,441.23,567.93
27.11351,444.16,565.05
27.13350,445.86,569.56
27.15409,446.26,569.34
27.17509,444.14,568.68
27.19519,447.34,571.08
27.21322,445.88,569.38
27.23317,451.03,569.40
27.25461,451.53,571.64
27.27397,451.50,569.76
27.29347,452.35,571.59
27.31483,452.43,572.16
27.33352,450.19,571.21
27.35328,453.67,573.12
27.37467,452.95,570.22
27.39475,453.96,572.50
27.41364,451.36,572.56
27.43383,452.55,572.47
27.45453,454.96,574.56
27.47507,455.08,572.91
27.49401,453.17,573.76
27.51443,450.61,572.94
27.53349,451.00,570.61
27.55328,450.29,571.32
27.57355,453.32,572.36
27.59368,452.30,572.36
27.61421,451.53,572.23
27.63388,459.18,576.45
27.65420,465.02,581.12
27.67389,468.04,591.93
27.69313,477.75,602.37
27.71477,491.08,613.00
27.73467,514.47,620.21
27.75382,539.14,627.62
27.77338,565.24,630.91
27.79424,588.17,635.91
27.81503,603.38,636.99
27.83477,610.83,630.93
27.85391,608.98,624.83
27.87438,601.83,618.54
27.89428,595.04,613.84
27.91397,583.45,607.27
27.93433,571.24,598.87
27.95483,558.08,593.51
27.97597,544.31,588.64
27.99550,533.42,584.06
28.01439,526.80,583.64
28.03454,516.38,580.96
28.05432,507.93,580.46
28.07493,501.11,577.62
28.09548,494.98,578.01
28.11582,488.60,577.46
28.13396,483.12,573.13
28.15549,478.00,575.12
28.17483,476.67,573.82
28.19459,472.39,575.10
28.21491,468.77,571.69
28.23509,469.24,574.30
28.25460,466.84,571.00
28.27482,464.36,574.36
28.29477,460.57,571.90
28.31444,459.89,574.85
28.33582,455.55,573.53
28.35472,455.77,574.58
28.37512,455.18,574.03
28.39594,456.16,575.29
28.41439,456.02,572.42
28.43400,454.79,574.46
28.45543,453.09,573.69
28.47585,453.40,572.63
28.49660,454.41,573.45
28.51604,453.99,574.60
28.53513,453.74,574.23
28.55545,453.26,575.24
28.57639,452.65,575.65
28.59595,452.15,573.91
28.61570,453.47,573.15
28.63589,451.43,572.80
28.65676,451.60,573.88
28.67698,450.04,576.00
28.69667,449.90,574.29
28.71618,452.02,576.90
28.73620,451.60,576.77
28.75581,447.75,575.40
28.77616,449.30,574.96
28.79503,447.75,578.63
28.81579,449.67,578.08
28.83573,447.30,579.19
28.85758,450.66,579.69
28.87679,447.34,576.91
28.89673,447.94,577.06
28.91757,449.54,577.36
28.93654,446.14,578.61
28.95784,446.37,578.80
28.97691,446.95,576.05
28.99704,443.75,574.21
29.01641,442.71,573.89
29.03662,443.43,575.82
29.05775,442.44,574.18
29.07651,445.04,576.57
29.09795,447.09,572.64
29.11754,446.52,574.85
29.13693,445.60,573.09
29.15759,444.60,574.31
29.17664,447.86,572.24
29.19674,447.42,572.85
29.21593,447.77,573.20
29.23788,447.11,574.23
29.25630,445.34,572.80
29.27753,446.40,573.98
29.29661,446.24,571.68
29.31768,450.54,571.93
29.33737,447.13,573.28
29.35901,448.89,571.00
29.37838,445.97,570.14
29.39807,446.92,570.50
29.41872,445.51,572.21
29.43943,445.32,574.54
29.45899,443.48,573.65
29.47949,445.55,572.92
29.49818,442.52,572.38
29.51873,443.64,573.80
29.53854,440.92,573.99
29.55886,440.47,571.92
29.57857,439.71,575.89
29.59944,443.02,575.05
29.61986,442.25,572.79
29.63989,439.44,575.86
29.65874,443.60,573.93
29.67951,438.51,574.96
29.69909,439.56,575.83
29.71988,439.28,577.45
29.73861,440.68,577.18
29.75925,441.51,578.73
29.77949,441.27,578.60
29.79954,440.38,576.87
29.81895,438.39,578.38
29.83932,439.74,578.36
29.85889,438.99,579.32
29.87967,441.86,579.66
29.89946,440.99,578.43
29.91987,441.83,576.83
29.93821,442.79,577.84
29.95932,441.99,576.94
29.97963,442.06,576.72
29.99899,441.26,576.74
30.01961,440.47,579.16
30.03939,443.30,579.29
30.05822,442.45,578.95
30.07883,440.51,577.29
30.09973,440.51,578.11
30.11935,442.73,578.17
30.13920,439.80,577.79
30.15907,441.96,574.81
30.17890,441.75,577.71
30.19927,442.34,575.89
30.21945,442.66,574.44
30.23856,438.51,575.32
30.25930,441.39,578.10
30.27906,441.30,577.96
30.29810,439.35,575.68
30.31984,440.49,576.34
30.33952,439.28,577.11
30.35934,438.40,576.96
30.37966,424.41,579.38
30.39964,406.18,574.14
30.41911,381.68,566.75
30.43917,358.29,562.43
30.45830,337.62,557.16
30.47995,321.07,549.89
30.49985,305.96,540.27
30.52020,301.26,536.76
30.53814,296.14,531.70
30.55845,297.01,530.39
30.58004,301.73,526.14
30.59873,305.62,525.05
30.61903,313.84,526.35
30.63866,320.17,525.72
30.65825,331.41,525.23
30.67966,340.98,530.26
30.69859,350.00,529.99
30.71819,357.02,534.78
30.73835,364.33,538.92
30.75829,371.65,542.35
30.77814,378.71,545.98
30.79953,388.53,545.90
30.81920,391.82,548.44
30.83945,397.29,550.58
30.85885,402.97,555.51
30.87968,408.30,558.28
30.89901,410.60,559.95
30.91929,415.98,561.35
30.93984,415.45,563.22
30.96012,416.13,564.81
30.97972,421.67,565.02
30.99958,422.22,566.73
31.02058,422.12,570.98
31.03912,424.59,571.03
31.05950,427.31,568.82
31.07884,427.60,571.89
31.10033,427.54,572.49
31.11934,425.99,573.60
31.14082,428.86,575.75
31.16052,427.58,574.67
31.17956,430.21,577.85
31.20000,430.22,578.23
31.22043,428.92,576.56
31.24022,431.05,577.43
31.25935,430.56,578.43
31.28063,430.58,578.25
31.30035,432.68,579.68
31.31987,431.53,579.47
31.33907,433.97,576.99
31.35999,436.47,582.93
31.37926,439.90,593.81
31.40117,458.56,615.80
31.42158,478.03,646.64
31.44057,502.78,678.65
31.46169,526.43,702.84
31.48261,553.85,714.24
31.50100,577.58,708.46
31.52243,595.35,691.92
31.54134,605.61,669.84
31.56227,610.14,648.71
31.58179,603.73,626.08
31.60168,594.88,605.67
31.62224,581.54,593.17
31.64289,564.85,578.87
31.66154,553.48,568.68
31.68105,538.81,558.57
31.70146,527.87,554.68
31.72213,517.94,549.06
31.74156,507.44,548.12
31.76191,496.95,547.01
31.78265,487.53,547.34
31.80278,481.84,547.62
31.82224,477.32,545.89
31.84250,468.54,549.63
31.86375,465.71,551.43
31.88312,464.38,552.89
31.90364,457.98,552.27
31.92283,453.76,551.88
31.94262,452.09,553.33
31.96266,450.58,556.31
31.98295,448.02,558.61
32.00389,446.88,557.89
32.02272,444.22,557.00
32.04393,445.35,558.07
32.06372,441.87,560.16
32.08280,444.36,558.38
32.10274,441.57,558.42
32.12230,441.31,560.62
32.14299,442.18,559.40
32.16364,441.01,561.83
32.18233,440.33,561.13
32.20307,442.52,564.34
32.22415,439.08,566.72
32.24367,437.49,566.49
32.26393,437.46,565.56
32.28192,440.87,566.75
32.30359,440.03,565.18
32.32289,441.78,566.04
32.34326,439.14,565.73
32.36212,439.27,565.27
32.38208,439.20,563.70
32.40201,436.69,564.73
32.42297,436.25,565.21
32.44351,434.30,564.47
32.46236,437.47,561.85
32.48260,438.27,562.25
32.50334,437.29,561.40
32.52313,437.16,564.07
32.54272,437.77,561.47
32.56214,436.50,561.75
32.58234,434.60,561.97
32.60309,436.41,561.44
32.62310,437.33,563.10
32.64312,438.58,562.96
32.66365,438.21,563.25
32.68348,438.58,560.88
32.70209,438.49,562.41
32.72361,439.07,563.46
32.74345,438.14,561.79
32.76344,440.65,560.59
32.78242,438.23,563.71
32.80377,439.52,563.18
32.82207,437.24,563.79
32.84338,438.28,561.76
32.86356,440.85,563.43
32.88343,440.59,564.20
32.90256,440.18,563.87
32.92194,437.97,565.51
32.94254,439.09,565.36
32.96280,439.28,564.81
32.98303,439.66,563.09
33.00330,440.12,564.74
33.02265,438.35,563.98
33.04181,439.18,562.71
33.06357,439.98,563.84
33.08379,438.54,566.06
33.10306,437.35,567.70
33.12383,439.26,567.21
33.14272,439.16,565.40
33.16345,439.21,568.08
33.18256,439.58,565.96
33.20350,439.74,565.84
33.22312,437.82,567.52
33.24234,438.58,566.11
33.26321,442.01,568.17
33.28347,442.53,564.83
33.30315,441.67,564.42
33.32376,439.86,565.64
33.34235,441.17,564.66
33.36205,439.57,565.47
33.38186,441.80,566.57
33.40221,440.76,569.42
33.42195,439.02,567.27
33.44231,440.17,567.98
33.46219,440.08,568.22
33.48215,439.51,568.98
33.50348,439.43,566.93
33.52354,439.66,568.52
33.54234,441.78,570.26
33.56220,439.27,569.05
33.58199,441.10,566.31
33.60236,440.60,566.42
33.62273,442.10,565.27
33.64207,440.21,565.76
33.66314,443.87,568.74
33.68328,443.31,567.80
33.70304,441.34,570.21
33.72183,443.12,567.10
33.74279,442.07,570.07
33.76276,441.87,569.81
33.78183,441.52,569.01
33.80360,442.39,568.33
33.82200,441.02,568.47
33.84359,440.83,568.24
33.86222,443.57,569.15
33.88221,442.45,567.03
33.90284,443.63,565.81
33.92339,447.17,566.31
33.94291,443.82,568.26
33.96433,444.25,567.27
33.98406,443.14,567.66
34.00367,446.73,566.43
34.02481,444.77,564.84
34.04475,446.44,565.05
34.06350,445.05,566.44
34.08446,443.89,566.44
34.10452,446.10,566.29
34.12341,443.29,564.11
34.14341,443.95,564.75
34.16370,443.02,565.65
34.18456,443.76,566.36
34.20370,445.55,563.22
34.22376,445.93,564.52
34.24462,446.33,566.04
34.26341,446.12,562.21
34.28378,448.39,562.68
34.30380,446.17,562.72
34.32415,446.75,564.04
34.34317,449.86,560.09
34.36363,449.20,563.23
34.38426,448.92,563.85
34.40295,449.97,560.59
34.42412,449.07,560.94
34.44314,449.83,562.03
34.46395,450.63,558.44
34.48316,449.88,560.82
34.50387,441.03,559.60
34.52408,420.28,553.45
34.54360,394.91,550.77
34.56389,369.76,549.99
34.58302,346.19,549.78
34.60331,327.74,542.00
34.62381,314.46,534.14
34.64447,306.09,525.82
34.66485,300.06,518.11
34.68429,302.05,519.09
34.70423,303.33,513.73
34.72317,307.55,514.47
34.74463,313.77,513.18
34.76442,324.19,516.24
34.78309,330.49,519.64
34.80341,339.28,521.90
34.82393,349.39,525.42
34.84357,360.34,527.60
34.86292,366.74,532.86
34.88417,374.26,534.59
34.90315,383.61,536.79
34.92382,392.25,541.06
34.94431,399.74,546.39
34.96414,405.97,548.83
34.98333,412.76,549.36
35.00351,419.15,553.88
35.02452,422.21,553.30
35.04366,427.41,555.87
35.06392,427.66,556.13
35.08504,432.24,559.01
35.10465,433.21,558.08
35.12323,435.34,558.10
35.14338,435.94,556.57
35.16417,439.98,559.82
35.18421,439.34,560.89
35.20360,440.82,559.64
35.22451,441.46,558.04
35.24406,445.96,559.98
35.26446,447.90,557.29
35.28384,446.30,557.79
35.30415,450.35,556.72
35.32349,446.27,555.26
35.34378,449.30,553.92
35.36483,449.68,553.24
35.38487,445.81,549.71
35.40400,448.44,549.86
35.42412,450.64,551.25
35.44465,447.17,554.73
35.46454,449.97,558.43
35.48273,447.55,558.95
35.50316,449.15,560.45
35.52302,452.10,561.85
35.54396,451.08,562.98
35.56472,451.12,563.88
35.58460,451.70,567.26
35.60477,452.85,567.26
35.62297,452.74,566.73
35.64309,456.65,571.49
35.66368,468.23,578.57
35.68485,483.58,588.37
35.70426,511.77,601.11
35.72461,542.98,610.76
35.74291,577.71,623.05
35.76389,607.03,629.99
35.78303,630.49,630.34
35.80343,635.59,629.47
35.82319,636.25,628.09
35.84332,629.39,622.55
35.86457,615.23,616.47
35.88424,602.22,611.58
35.90388,588.55,601.46
35.92426,575.65,599.35
35.94325,559.34,590.84
35.96364,548.56,588.50
35.98424,538.16,583.08
36.00452,529.74,578.58
36.02332,519.26,578.45
36.04414,511.32,574.48
36.06477,504.87,572.42
36.08297,495.44,571.33
36.10473,491.08,570.02
36.12472,486.35,568.37
36.14465,483.12,564.51
36.16362,479.39,563.76
36.18356,476.99,562.15
36.20309,473.59,561.76
36.22441,468.80,559.62
36.24323,467.89,558.99
36.26339,467.38,559.27
36.28468,463.47,561.03
36.30304,462.89,560.78
36.32425,460.78,559.15
36.34319,458.77,560.15
36.36529,460.04,560.01
36.38567,456.71,558.98
36.40546,455.93,562.80
36.42511,456.61,559.79
36.44553,456.52,560.38
36.46536,455.64,561.03
36.48467,453.86,563.06
36.50490,454.09,560.24
36.52439,454.22,562.41
36.54532,453.02,561.35
36.56592,454.58,559.17
36.58645,453.85,560.92
36.60698,450.79,557.94
36.62692,451.25,558.19
36.64674,450.93,555.07
36.66514,450.59,555.76
36.68508,450.87,556.45
36.70489,452.23,553.63
36.72664,452.29,555.32
36.74530,452.00,553.08
36.76530,449.78,553.29
36.78485,450.48,554.12
36.80524,453.00,555.75
36.82630,450.60,554.88
36.84546,450.44,555.03
36.86615,450.65,558.30
36.88521,453.41,559.24
36.90621,452.82,560.52
36.92619,453.52,557.66
36.94728,451.31,561.06
36.96640,451.70,559.96
36.98711,450.12,559.91
37.00757,451.86,560.47
37.02627,451.00,562.46
37.04736,452.16,562.88
37.06592,452.08,562.15
37.08710,449.38,563.43
37.10774,450.33,565.78
37.12705,448.61,563.77
37.14878,445.73,562.90
37.16784,444.51,564.59
37.18707,445.18,564.36
37.20752,445.07,566.32
37.22840,444.14,566.65
37.24857,443.59,567.30
37.26734,442.57,563.52
37.28847,444.11,565.76
37.30820,444.00,566.21
37.32962,446.29,570.15
37.34858,443.27,569.14
37.36911,444.03,568.53
37.38969,442.10,568.28
37.40936,443.04,569.23
37.42846,444.79,567.69
37.44984,446.42,567.48
37.46822,443.26,569.52
37.48928,442.96,566.26
37.50974,446.15,566.64
37.52936,445.63,568.06
37.54870,446.23,566.07
37.56800,442.45,569.29
37.58870,441.74,569.14
37.60807,443.73,569.00
37.62857,444.67,567.82
37.64926,443.35,567.72
37.66969,444.20,569.98
37.68883,441.86,567.19
37.70802,443.56,568.08
37.72891,443.70,566.55
37.74840,444.66,569.20
37.76890,445.97,567.30
37.78916,442.21,567.87
37.80903,443.33,567.87
37.82999,439.93,570.36
37.85143,438.86,567.99
37.86995,439.71,568.99
37.89262,436.74,566.01
37.91159,438.48,568.30
37.93203,434.27,568.78
37.95193,435.06,569.56
37.97233,437.65,568.47
37.99155,433.66,568.96
38.01095,432.97,565.23
38.03265,433.16,568.82
38.05182,435.19,565.99
38.07086,434.66,568.30
38.09160,433.82,568.37
38.11128,433.97,564.80
38.13258,434.71,566.14
38.15078,436.84,565.83
38.17111,434.19,566.34
38.19274,436.14,562.64
38.21092,434.47,561.24
38.23261,433.91,563.40
38.25319,434.24,562.67
38.27232,434.92,563.82
38.29230,435.02,563.39
38.31259,432.33,563.13
38.33219,434.27,563.68
38.35357,433.92,564.66
38.37309,434.64,565.52
38.39190,433.68,564.61
38.41311,434.42,565.90
38.43367,433.12,565.33
38.45339,434.47,564.93
38.47211,433.28,563.85
38.49388,434.51,564.54
38.51217,433.19,565.07
38.53298,431.61,565.08
38.55225,432.09,562.52
38.57456,434.57,562.99
38.59412,432.17,559.40
38.61338,434.06,561.51
38.63262,435.07,558.60
38.65389,435.12,556.98
38.67391,428.42,556.71
38.69391,408.57,555.57
38.71439,383.49,552.75
38.73310,356.67,548.73
38.75395,334.27,543.06
38.77470,315.45,539.03
38.79399,301.63,532.82
38.81428,292.62,525.59
38.83325,290.22,519.74
38.85410,288.59,517.89
38.87463,290.30,513.38
38.89538,293.81,516.17
38.91465,303.54,514.22
38.93471,311.18,512.19
38.95482,320.18,513.15
38.97404,328.29,515.82
38.99453,337.57,520.58
39.01550,346.42,520.42
39.03532,357.23,524.32
39.05496,363.63,527.51
39.07512,370.26,529.43
39.09417,380.30,532.33
39.11459,387.18,534.42
39.13522,394.85,536.13
39.15419,401.47,538.73
39.17516,405.86,541.21
39.19560,410.50,545.03
39.21496,413.42,545.64
39.23410,417.19,550.61
39.25381,419.59,549.65
39.27400,422.73,554.36
39.29451,422.76,553.41
39.31441,425.11,553.60
39.33378,428.05,556.28
39.35452,428.96,558.13
39.37416,431.86,558.79
39.39439,430.56,559.30
39.41507,433.00,560.09
39.43413,432.38,559.18
39.45413,434.39,558.15
39.47400,433.37,561.51
39.49633,432.88,561.33
39.51516,434.72,560.83
39.53654,436.52,561.45
39.55586,437.54,561.33
39.57597,439.14,562.37
39.59493,436.61,563.97
39.61518,437.04,565.73
39.63528,437.77,565.06
39.65627,436.94,566.16
39.67656,439.18,565.04
39.69689,436.75,570.08
39.71642,449.31,576.78
39.73664,464.65,587.01
39.75657,492.54,600.17
39.77664,521.18,608.02
39.79529,556.34,616.89
39.81672,582.86,622.84
39.83646,604.90,626.01
39.85503,614.62,626.83
39.87599,613.01,621.94
39.89548,605.87,617.70
39.91552,595.48,615.02
39.93475,582.93,610.87
39.95609,570.76,604.57
39.97506,556.82,602.80
39.99662,547.04,599.09
40.01494,536.61,592.98
40.03608,532.23,595.03
40.05639,523.03,592.67
40.07647,517.52,589.66
40.09539,510.01,587.41
40.11502,503.83,583.59
40.13478,495.88,581.18
40.15514,488.85,576.38
40.17602,482.53,577.96
40.19577,478.73,575.50
40.21601,474.38,573.27
40.23559,469.94,572.54
40.25537,467.91,570.58
40.27599,460.20,570.32
40.29516,461.44,571.82
40.31581,458.37,570.51
40.33486,453.22,569.44
40.35513,452.26,566.86
40.37654,452.83,566.48
40.39571,450.44,566.33
40.41579,447.96,565.54
40.43469,447.18,569.32
40.45603,448.37,566.88
40.47483,448.19,565.83
40.49628,447.11,564.89
40.51500,443.50,567.34
40.53584,445.80,567.35
40.55646,444.42,566.16
40.57563,443.04,566.71
40.59535,443.47,567.00
40.61507,447.56,565.87
40.63630,446.88,568.15
40.65585,444.29,566.42
40.67634,443.94,566.49
40.69608,445.61,565.45
40.71636,441.46,567.10
40.73576,443.50,568.42
40.75672,444.80,568.25
40.77697,446.32,568.52
40.79769,446.23,568.48
40.81591,447.72,568.41
40.83690,447.80,569.60
40.85608,447.19,566.75
40.87735,447.33,570.65
40.89659,448.63,568.24
40.91690,447.79,569.09
40.93829,451.30,570.12
40.95784,451.51,566.77
40.97780,449.01,567.40
40.99821,451.11,567.65
41.01822,450.58,565.80
41.03710,450.80,566.19
41.05690,448.71,567.95
41.07733,449.85,566.65
41.09870,450.44,565.58
41.11777,449.38,567.61
41.13904,451.95,569.13
41.15894,451.26,566.94
41.17821,455.69,568.30
41.19790,452.84,569.81
41.21868,452.64,567.99
41.23961,454.31,569.26
41.25919,451.07,567.96
41.27812,451.01,569.55
41.29953,452.72,568.74
41.31855,453.06,570.29
41.33846,453.66,567.60
41.35956,456.82,568.95
41.37887,455.83,566.31
41.39918,454.13,566.43
41.41887,455.04,569.23
41.43900,453.20,565.45
41.45796,453.78,567.85
41.47900,452.01,567.30
41.49771,452.88,566.59
41.51965,454.19,567.15
41.53813,450.33,566.83
41.55822,450.78,565.98
41.57903,454.00,566.97
41.59918,451.83,567.17
41.61807,454.03,567.51
41.63920,450.51,567.05
41.65892,450.68,565.79
41.67842,450.10,566.57
41.69938,451.16,565.97
41.71933,451.01,566.62
41.73806,451.23,566.63
41.75883,454.17,564.64
41.78001,453.40,566.04
41.79957,453.09,564.92
41.81928,451.87,565.43
41.84168,452.49,569.87
41.86086,450.97,571.01
41.88074,451.31,571.19
41.89976,451.01,572.19
41.92133,451.20,571.26
41.93989,449.61,569.37
41.96013,448.60,570.80
41.98046,448.52,571.23
42.00044,448.94,569.86
42.02137,448.01,570.15
42.04002,448.69,568.63
42.06056,446.62,570.21
42.08063,446.61,567.86
42.10130,447.92,571.21
42.12134,449.00,568.92
42.14134,450.53,568.50
42.16072,448.54,569.33
42.18081,451.64,566.14
42.20125,449.13,567.30
42.22063,449.89,565.72
42.23980,451.43,566.59
42.26106,448.26,568.17
42.28073,448.50,568.17
42.30117,449.51,565.18
42.31992,450.66,565.81
42.34109,450.31,565.79
42.36216,452.29,565.35
42.38248,449.41,567.80
42.40285,450.34,567.46
42.42234,448.49,567.71
42.44088,450.13,566.82
42.46274,449.85,566.72
42.48104,450.18,565.34
42.50069,446.23,568.96
42.52150,445.39,567.48
42.54107,445.39,568.04
42.56203,444.83,567.53
42.58269,448.41,567.61
42.60210,443.55,568.99
42.62092,431.55,566.89
42.64191,407.82,568.71
42.66234,377.38,567.13
42.68113,351.71,564.14
42.70134,327.26,560.42
42.72141,309.20,554.86
42.74220,299.29,543.01
42.76211,292.46,537.16
42.78217,288.04,527.52
42.80174,289.71,522.81
42.82084,292.76,516.59
42.84148,299.16,513.15
42.86175,310.23,512.73
42.88139,317.03,512.14
42.90188,331.15,510.16
42.92196,341.60,508.85
42.94101,349.99,512.17
42.96148,360.41,516.07
42.98243,370.91,520.57
43.00253,377.85,524.25
43.02170,386.15,526.26
43.04175,396.27,530.77
43.06079,401.85,536.99
43.08072,406.87,539.96
43.10186,410.42,542.74
43.12339,414.91,545.17
43.14307,418.32,546.63
43.16196,420.70,551.41
43.18290,425.19,554.89
43.20201,428.62,553.75
43.22221,428.93,558.49
43.24454,430.85,558.73
43.26427,433.25,559.12
43.28344,430.42,558.42
43.30368,432.54,559.85
43.32328,432.22,559.90
43.34403,434.53,559.64
43.36386,435.38,562.04
43.38420,433.74,561.74
43.40523,435.02,563.63
43.42438,433.73,564.79
43.44436,435.90,563.34
43.46423,436.35,564.91
43.48427,433.04,562.64
43.50466,433.40,564.31
43.52457,436.04,563.26
43.54389,432.81,563.48
43.56435,438.18,570.30
43.58443,449.79,581.95
43.60389,468.64,598.15
43.62439,492.77,613.97
43.64514,521.72,628.00
43.66549,551.02,636.37
43.68396,575.98,634.56
43.70511,601.13,633.35
43.72534,612.18,629.15
43.74385,612.37,624.00
43.76394,610.31,617.33
43.78426,599.79,609.27
43.80630,585.77,598.13
43.82529,570.09,592.67
43.84567,555.88,590.14
43.86483,547.30,586.71
43.88572,533.86,579.16
43.90556,519.52,576.10
43.92580,510.68,573.49
43.94528,501.10,572.03
43.96663,493.79,571.89
43.98597,485.33,572.82
44.00656,477.58,571.83
44.02608,470.78,569.70
44.04500,464.26,569.50
44.06635,461.93,566.15
44.08586,457.62,563.69
44.10507,453.42,564.47
44.12653,452.30,567.07
44.14624,449.36,564.62
44.16577,445.98,566.06
44.18608,445.52,563.98
44.20640,440.58,562.12
44.22586,440.70,564.53
44.24618,438.81,566.03
44.26638,440.41,564.48
44.28488,439.66,565.00
44.30660,438.11,567.94
44.32619,438.73,564.46
44.34594,434.94,566.43
44.36516,435.96,564.97
44.38486,436.02,567.53
44.40519,434.48,564.53
44.42636,433.66,564.40
44.44483,436.52,565.41
44.46615,435.58,564.97
44.48556,433.61,564.07
44.50509,434.78,562.94
44.52558,431.05,561.91
44.54489,431.32,563.69
44.56562,433.24,564.67
44.58494,431.49,564.33
44.60653,433.24,562.53
44.62533,432.72,563.33
44.64539,432.32,563.82
44.66509,434.42,563.83
44.68565,432.14,564.40
44.70474,431.36,564.24
44.72559,431.64,566.03
44.74644,430.64,564.89
44.76519,433.07,565.88
44.78461,431.85,563.65
44.80516,428.49,561.62
44.82520,430.73,563.71
44.84661,431.33,561.76
44.86591,432.45,562.30
44.88606,429.81,564.38
44.90516,432.27,563.25
44.92555,432.69,562.94
44.94511,432.93,565.19
44.96518,432.63,562.60
44.98579,433.02,565.54
45.00559,432.42,564.60
45.02533,430.75,563.52
45.04543,431.50,563.14
45.06527,433.68,566.36
45.08552,433.98,563.63
45.10529,431.68,565.14
45.12546,434.39,565.36
45.14553,432.73,564.50
45.16661,432.29,561.63
45.18586,433.32,563.55
45.20554,432.70,564.25
45.22473,435.20,562.37
45.24472,433.69,563.55
45.26521,433.65,563.62
45.28615,434.29,560.71
45.30534,432.15,562.86
45.32645,434.69,562.95
45.34635,435.10,562.20
45.36584,434.56,562.86
45.38525,434.10,561.70
45.40573,435.92,560.43
45.42567,432.90,561.59
45.44603,432.41,563.84
45.46502,433.33,562.16
45.48469,432.79,564.29
45.50615,429.87,564.99
45.52663,432.22,563.86
45.54545,432.85,560.71
45.56482,432.00,562.85
45.58511,432.61,560.41
45.60630,433.49,559.96
45.62659,434.32,559.80
45.64560,434.23,559.59
45.66632,436.91,558.03
45.68633,436.99,561.63
45.70513,433.11,561.38
45.72604,436.61,562.21
45.74515,440.14,562.53
45.76633,443.53,566.00
45.78486,443.07,566.81
45.80497,442.76,566.47
45.82522,440.94,564.52
45.84573,442.17,564.08
45.86678,441.45,561.63
45.88597,437.91,565.09
45.90612,437.50,563.97
45.92568,439.68,563.23
45.94513,436.75,569.07
45.96491,438.76,578.30
45.98619,437.56,593.08
46.00603,445.04,616.30
46.02613,454.67,650.56
46.04567,461.37,673.83
46.06641,468.68,685.90
46.08532,470.01,687.38
46.10478,468.30,671.21
46.12595,458.91,636.83
46.14743,450.24,594.01
46.16614,436.88,547.61
46.18640,431.43,518.19
46.20753,425.88,492.73
46.22664,420.58,477.04
46.24659,420.57,466.15
46.26697,419.02,463.03
46.28638,416.73,463.10
46.30728,416.45,466.77
46.32572,416.96,472.49
46.34642,417.72,477.08
46.36628,418.08,481.09
46.38708,421.45,488.68
46.40823,423.77,497.42
46.42684,423.96,504.65
46.44713,426.48,510.55
46.46793,428.38,517.46
46.48694,431.20,519.11
46.50704,429.71,527.64
46.52826,431.95,537.59
46.54810,425.75,551.67
46.56698,433.22,557.94
46.58834,434.27,561.13
46.60684,440.58,566.93
46.62737,442.61,572.34
46.64708,445.25,580.79
46.66861,446.77,590.51
46.68936,452.28,603.21
46.70930,457.82,620.94
46.72782,463.64,655.30
46.74909,475.99,688.62
46.76812,489.85,713.77
46.78860,497.54,730.99
46.80759,500.73,751.38
46.82809,504.18,769.44
46.84836,502.33,772.85
46.86793,499.72,777.84
46.88909,498.23,778.02
46.90895,489.32,769.94
46.92947,482.54,762.42
46.94813,477.62,758.02
46.96879,475.53,738.19
46.98885,464.36,724.04
47.00955,459.47,711.15
47.02808,457.59,696.40
47.04959,453.17,683.01
47.06943,456.57,668.45
47.08925,454.98,669.51
47.10842,457.58,666.08
47.12957,455.03,656.94
47.14915,455.67,655.22
47.16761,461.11,647.32
47.18807,458.72,635.57
47.20834,457.74,639.90
47.22859,459.16,630.15
47.24859,456.47,633.17
47.26809,451.65,631.14
47.28819,451.49,617.46
47.30903,455.50,615.87
47.32783,451.87,604.68
47.34902,450.31,595.51
47.36949,449.85,592.38
47.38926,450.41,581.41
47.40863,446.20,576.37
47.42817,445.74,570.41
47.44876,455.22,562.32
47.46950,450.55,564.74
47.48857,454.11,563.22
47.50965,453.89,553.75
47.52808,452.21,538.82
47.54863,449.35,519.02
47.56830,445.18,515.58
47.58900,443.55,501.44
47.60767,443.33,513.83
47.62919,443.45,519.48
47.64780,445.03,520.10
