Program Time [s],data 0,data 1
4.03828,550.68,596.59
4.05772,550.66,596.99
4.07889,549.96,597.96
4.09784,549.13,595.65
4.11966,550.40,599.42
4.13908,548.68,598.90
4.15935,550.81,597.65
4.17810,550.09,599.32
4.19764,553.78,597.25
4.21761,551.23,597.09
4.23768,552.89,599.49
4.25911,554.05,597.74
4.27897,553.00,596.25
4.29935,554.73,597.70
4.31949,553.09,597.65
4.33841,552.19,599.33
4.35753,550.11,594.47
4.37949,550.12,596.48
4.39937,547.11,597.61
4.41875,549.16,595.91
4.43830,551.41,595.20
4.45799,550.42,596.29
4.47896,549.77,594.10
4.49929,551.25,594.85
4.51920,549.88,594.79
4.54094,547.14,593.86
4.56096,549.43,595.20
4.58016,547.77,594.96
4.59980,547.58,595.53
4.62161,549.68,595.99
4.64246,547.08,592.44
4.66253,546.87,594.58
4.68353,548.44,595.30
4.70236,545.11,591.33
4.72281,546.05,591.09
4.74253,544.27,592.34
4.76186,546.46,591.56
4.78179,546.35,593.76
4.80298,546.93,597.16
4.82330,544.33,595.02
4.84349,542.55,595.83
4.86235,543.48,591.75
4.88249,543.87,590.65
4.90226,545.19,601.17
4.92184,552.84,622.14
4.94187,556.69,647.72
4.96327,562.14,655.88
4.98360,562.34,655.96
5.00336,558.39,651.11
5.02282,558.15,647.85
5.04371,554.84,639.71
5.06373,555.32,634.44
5.08449,552.00,629.83
5.10280,552.36,625.24
5.12307,551.80,620.13
5.14412,551.06,617.26
5.16367,549.49,614.01
5.18448,547.97,610.11
5.20314,546.98,607.55
5.22413,545.41,603.33
5.24268,545.06,605.97
5.26372,545.29,601.94
5.28308,543.93,605.33
5.30262,541.16,604.42
5.32416,542.39,603.25
5.34318,543.01,605.16
5.36269,556.32,604.31
5.38425,583.88,605.83
5.40373,615.69,612.22
5.42402,642.57,619.69
5.44439,670.43,628.87
5.46453,692.87,632.93
5.48333,712.20,631.90
5.50347,724.10,629.17
5.52309,724.43,622.63
5.54295,718.92,618.14
5.56424,712.17,610.49
5.58346,703.98,609.45
5.60389,695.03,603.58
5.62371,680.46,601.99
5.64287,666.62,597.57
5.66464,654.26,596.13
5.68623,641.57,595.87
5.70518,630.02,593.90
5.72529,621.96,594.48
5.74525,611.81,595.43
5.76681,601.44,596.84
5.78745,591.91,594.14
5.80623,587.34,593.65
5.82630,581.04,597.58
5.84686,575.67,598.70
5.86582,569.19,596.77
5.88669,564.95,598.59
5.90687,563.90,598.69
5.92710,559.85,596.75
5.94711,559.47,599.04
5.96803,555.97,600.75
5.98729,556.57,598.98
6.00710,554.52,600.66
6.02801,551.97,603.85
6.04826,550.03,601.30
6.06748,549.02,603.45
6.08743,545.81,601.13
6.10779,546.28,602.67
6.12700,545.58,603.67
6.14842,546.67,603.97
6.16761,544.42,605.20
6.18804,547.47,605.32
6.20738,546.14,603.91
6.22684,547.45,603.53
6.24748,546.56,602.68
6.26817,547.60,602.52
6.28679,547.62,604.70
6.30662,546.69,600.80
6.32665,545.78,601.50
6.34713,544.75,601.54
6.36796,546.74,600.36
6.38825,545.61,602.52
6.40841,547.57,600.53
6.42847,544.71,602.16
6.44864,546.08,602.86
6.46714,548.00,600.57
6.48727,547.78,600.88
6.50679,538.17,598.80
6.52826,517.68,599.93
6.54775,485.75,599.30
6.56683,448.37,596.70
6.58772,412.31,589.99
6.60855,375.01,579.83
6.62697,356.65,571.27
6.64755,350.07,565.96
6.66791,351.30,565.29
6.68811,357.13,565.54
6.70680,370.67,565.89
6.72815,383.65,568.84
6.74659,399.25,570.86
6.76664,411.47,573.61
6.78670,424.41,576.75
6.80822,438.12,580.44
6.82695,450.84,579.96
6.84725,465.25,582.79
6.86762,474.60,585.82
6.88670,481.92,588.14
6.90793,490.73,590.25
6.92774,500.15,591.25
6.94954,506.19,589.18
6.96957,512.63,591.18
6.98827,517.23,592.44
7.00854,522.94,591.89
7.02761,524.66,594.30
7.04848,526.27,593.39
7.06984,528.09,594.27
7.09129,532.24,592.34
7.11096,534.27,594.63
7.12967,537.50,594.15
7.15251,539.67,592.75
7.17234,542.01,594.26
7.19165,542.23,593.31
7.21221,544.69,594.76
7.23224,544.11,592.95
7.25191,543.95,591.24
7.27114,544.62,589.88
7.29117,548.02,591.30
7.31231,548.37,591.58
7.33218,547.56,591.46
7.35246,549.27,587.99
7.37152,549.95,590.47
7.39291,547.60,587.98
7.41286,549.86,590.36
7.43196,550.26,589.18
7.45323,547.28,590.42
7.47176,551.28,590.36
7.49433,549.94,591.94
7.51260,551.34,588.88
7.53413,550.55,591.65
7.55306,549.91,588.82
7.57327,549.73,591.17
7.59324,550.06,593.18
7.61399,551.78,593.56
7.63247,552.05,593.00
7.65330,551.84,593.07
7.67360,551.30,594.11
7.69331,549.22,595.62
7.71438,552.00,594.85
7.73302,552.54,593.30
7.75277,550.04,592.47
7.77298,550.04,592.55
7.79376,549.99,594.76
7.81442,553.12,592.64
7.83295,553.28,593.84
7.85306,549.55,593.83
7.87471,551.12,592.91
7.89359,552.04,593.35
7.91454,551.86,591.01
7.93472,549.15,593.31
7.95547,551.44,591.20
7.97467,552.00,590.65
7.99522,549.79,593.68
8.01373,553.75,593.29
8.03444,551.31,593.45
8.05455,553.73,592.00
8.07476,551.70,590.90
8.09369,551.86,589.60
8.11342,549.74,592.72
8.13374,549.21,589.85
8.15438,550.29,589.43
8.17532,549.29,589.71
8.19389,549.19,589.93
8.21407,552.54,590.29
8.23384,552.03,589.79
8.25373,553.16,591.40
8.27413,551.43,594.70
8.29508,550.20,592.67
8.31506,553.89,593.66
8.33562,552.68,593.57
8.35346,552.95,593.11
8.37367,551.06,593.95
8.39549,552.09,596.06
8.41468,554.46,598.60
8.43479,554.23,597.57
8.45468,552.06,599.00
8.47397,551.52,597.49
8.49556,551.09,598.57
8.51361,552.14,595.80
8.53374,550.98,595.46
8.55471,550.40,593.38
8.57434,553.08,594.23
8.59520,553.59,597.98
8.61385,552.88,593.79
8.63434,550.93,597.01
8.65417,550.05,598.39
8.67379,553.62,594.85
8.69485,553.11,594.52
8.71527,553.11,594.06
8.73457,553.39,595.87
8.75501,551.00,594.08
8.77506,553.13,594.47
8.79454,552.02,596.31
8.81458,551.42,595.54
8.83508,551.35,596.20
8.85496,551.20,595.90
8.87408,551.38,596.98
8.89544,550.04,595.35
8.91402,550.55,594.01
8.93431,552.33,594.95
8.95411,550.48,598.56
8.97529,549.13,596.68
8.99430,552.22,595.63
9.01358,549.47,598.27
9.03436,550.00,596.89
9.05472,552.42,596.25
9.07443,551.74,595.15
9.09441,549.97,596.06
9.11504,552.32,597.86
9.13526,549.50,596.83
9.15364,549.58,597.12
9.17418,551.69,593.54
9.19486,551.09,596.11
9.21481,550.74,594.13
9.23534,550.58,595.11
9.25463,553.55,595.66
9.27540,555.52,593.96
9.29491,570.49,598.55
9.31391,601.05,602.46
9.33457,631.09,612.16
9.35468,664.50,617.52
9.37400,690.52,619.14
9.39487,708.76,620.69
9.41522,716.47,621.03
9.43480,723.26,621.06
9.45476,724.06,618.87
9.47410,720.43,615.99
9.49618,712.72,613.87
9.51525,705.70,610.22
9.53674,695.87,611.03
9.55587,683.23,609.96
9.57536,669.45,609.08
9.59550,658.83,611.61
9.61505,648.46,608.02
9.63483,636.35,611.22
9.65638,625.13,610.23
9.67586,615.48,608.71
9.69528,609.05,609.63
9.71595,600.61,607.82
9.73592,592.83,604.79
9.75524,588.23,605.79
9.77480,583.23,603.21
9.79482,576.36,603.87
9.81631,575.33,603.93
9.83650,570.86,604.91
9.85619,566.99,605.21
9.87457,565.10,606.59
9.89581,564.48,604.37
9.91631,559.03,603.35
9.93635,556.84,602.44
9.95581,555.66,603.76
9.97507,552.88,603.07
9.99504,553.03,600.72
10.01569,555.30,604.49
10.03500,554.54,604.52
10.05611,550.95,603.53
10.07486,553.43,606.07
10.09491,552.74,604.81
10.11468,552.34,606.32
10.13516,553.95,604.32
10.15525,553.09,606.48
10.17610,551.48,606.66
10.19605,546.11,605.71
10.21726,535.08,603.13
10.23742,518.25,600.75
10.25594,492.55,593.20
10.27759,460.16,585.26
10.29636,428.01,575.28
10.31627,396.23,562.64
10.33677,366.13,550.83
10.35698,349.09,541.52
10.37722,343.43,537.68
10.39730,348.58,538.05
10.41730,357.16,538.47
10.43748,369.34,541.47
10.45856,382.66,548.25
10.47668,400.61,554.85
10.49768,415.17,561.21
10.51659,430.25,566.47
10.53770,442.95,573.61
10.55684,457.62,578.40
10.57836,471.36,580.63
10.59814,477.81,586.47
10.61656,487.85,587.44
10.63832,493.94,591.26
10.65781,500.96,590.76
10.67848,504.42,592.12
10.69821,510.53,593.52
10.71694,516.95,595.30
10.73762,521.33,596.06
10.75764,524.32,596.24
10.77698,530.35,598.53
10.79693,530.83,602.49
10.81794,532.29,601.52
10.83778,535.18,601.99
10.85803,536.86,602.30
10.87814,537.71,602.23
10.89705,538.19,603.46
10.91650,541.25,600.78
10.93778,543.05,601.04
10.95693,543.33,601.43
10.97640,542.74,604.18
10.99818,543.21,604.28
11.01810,543.97,605.37
11.03894,544.67,606.93
11.05791,541.07,608.76
11.07916,544.38,606.86
11.09890,543.35,608.98
11.11897,542.73,607.30
11.13826,544.83,607.09
11.15813,544.56,607.26
11.17929,543.27,608.01
11.19779,545.26,611.41
11.21797,545.14,609.87
11.23876,547.38,608.61
11.25778,547.33,608.29
11.27835,547.80,607.82
11.29802,546.47,609.23
11.31867,549.56,608.31
11.33804,546.70,607.73
11.35810,549.41,606.84
11.37882,547.48,606.36
11.39919,550.16,607.38
11.41928,548.83,607.52
11.43770,550.43,607.72
11.45792,548.72,605.34
11.47870,546.27,605.90
11.49802,545.99,609.24
11.51907,546.08,606.77
11.53766,547.29,610.07
11.55767,546.54,609.87
11.57842,550.08,608.45
11.59920,547.28,607.20
11.61836,547.45,607.14
11.63824,548.41,610.54
11.65845,547.74,610.56
11.67854,547.98,608.62
11.69797,545.81,610.33
11.71787,545.13,611.38
11.73908,546.45,610.31
11.75812,548.89,611.37
11.77814,547.18,611.90
11.79924,549.39,613.28
11.81807,548.04,613.41
11.83781,548.03,610.95
11.85943,548.67,613.75
11.88026,547.19,614.30
11.89850,549.66,609.79
11.91870,549.06,611.10
11.93913,550.18,610.84
11.96001,551.61,610.83
11.97902,552.44,610.88
11.99966,552.31,607.68
12.02012,551.56,607.88
12.03994,550.48,609.47
12.06030,550.54,606.81
12.08009,552.06,609.46
12.10018,553.75,608.19
12.12027,553.70,610.44
12.14131,551.29,609.75
12.16104,550.29,609.84
12.18133,552.69,609.60
12.20044,550.72,608.14
12.22143,550.10,610.29
12.24099,553.34,609.48
12.26179,551.92,609.88
12.28061,552.45,608.30
12.30091,551.04,607.48
12.32177,552.97,607.47
12.34165,552.69,608.61
12.36132,549.99,607.05
12.38130,549.34,607.13
12.40190,549.89,605.35
12.42232,549.40,605.84
12.44213,552.65,607.40
12.46095,550.78,608.31
12.48227,548.90,607.34
12.50212,548.59,606.73
12.52113,550.01,608.45
12.54128,548.28,606.48
12.56189,550.95,605.88
12.58142,549.38,607.23
12.60222,549.77,606.34
12.62209,550.76,605.99
12.64240,552.72,607.61
12.66136,549.94,608.32
12.68174,552.68,606.61
12.70241,550.02,606.53
12.72231,550.36,604.42
12.74063,552.42,603.97
12.76131,548.48,605.78
12.78125,549.70,604.84
12.80239,549.65,605.22
12.82286,550.22,604.24
12.84265,546.97,605.80
12.86172,548.64,606.18
12.88199,551.72,601.79
12.90231,550.90,600.46
12.92298,552.25,601.46
12.94289,549.69,603.42
12.96246,552.78,602.93
12.98309,550.38,601.99
13.00330,549.98,602.62
13.02150,552.04,600.70
13.04254,552.42,601.66
13.06242,551.42,602.76
13.08334,550.78,599.29
13.10142,551.70,600.48
13.12180,552.42,599.42
13.14220,551.76,598.67
13.16258,550.81,601.73
13.18310,548.55,600.37
13.20344,552.44,597.07
13.22221,549.27,599.26
13.24261,552.87,596.89
13.26412,549.55,595.07
13.28333,552.06,596.38
13.30407,551.53,596.89
13.32305,549.71,595.04
13.34418,550.15,596.21
13.36323,550.25,593.31
13.38443,551.53,593.03
13.40249,550.64,595.32
13.42422,552.16,595.33
13.44433,549.87,593.58
13.46366,549.85,592.38
13.48325,552.06,594.98
13.50280,549.54,593.16
13.52496,551.09,594.99
13.54397,548.63,592.80
13.56481,548.72,595.14
13.58508,549.34,591.79
13.60423,550.87,592.28
13.62488,551.06,591.57
13.64419,550.07,589.42
13.66438,551.23,591.52
13.68487,553.73,589.71
13.70502,554.26,587.24
13.72366,551.94,588.78
13.74438,555.29,588.55
13.76393,552.65,588.04
13.78470,553.18,586.67
13.80382,552.44,585.53
13.82412,551.32,585.13
13.84397,551.75,582.70
13.86537,551.16,583.31
13.88395,553.07,581.20
13.90519,553.75,580.91
13.92427,552.50,577.55
13.94410,560.43,584.77
13.96525,581.31,593.91
13.98467,612.34,608.29
14.00345,648.81,624.02
14.02550,679.32,633.19
14.04382,705.96,640.56
14.06539,722.34,639.26
14.08429,732.18,637.39
14.10499,736.87,635.12
14.12443,732.22,627.20
14.14553,728.36,624.21
14.16426,721.03,620.49
14.18490,708.23,617.88
14.20409,693.66,610.37
14.22494,680.34,610.91
14.24410,664.53,607.26
14.26420,653.90,603.50
14.28515,639.02,604.05
14.30498,631.13,602.33
14.32481,621.64,602.25
14.34427,611.26,599.25
14.36372,603.68,600.43
14.38383,595.58,597.35
14.40389,589.30,596.15
14.42343,584.05,596.67
14.44444,580.35,594.38
14.46515,574.75,596.93
14.48547,575.45,593.73
14.50467,572.52,592.91
14.52353,570.36,592.11
14.54446,567.60,594.90
14.56514,563.34,595.88
14.58439,564.87,593.59
14.60401,563.30,594.64
14.62460,563.69,593.33
14.64441,559.85,596.60
14.66523,560.66,594.61
14.68362,557.84,594.58
14.70435,557.94,598.09
14.72423,556.03,595.57
14.74373,554.21,593.48
14.76440,555.30,595.67
14.78513,551.95,593.48
14.80403,550.99,594.19
14.82375,552.46,593.76
14.84500,551.16,594.43
14.86390,549.33,595.71
14.88388,552.59,593.63
14.90548,549.92,592.75
14.92457,552.21,592.06
14.94416,553.87,594.44
14.96373,553.06,592.05
14.98492,554.73,592.58
15.00388,551.99,592.75
15.02543,553.00,591.62
15.04419,553.46,593.01
15.06410,555.59,592.28
15.08529,545.59,599.85
15.10406,522.67,602.27
15.12535,493.04,594.89
15.14357,454.64,585.34
15.16374,416.20,575.84
15.18431,384.05,562.68
15.20420,362.10,550.67
15.22451,357.29,545.29
15.24433,357.98,545.72
15.26489,366.90,546.36
15.28474,376.20,545.01
15.30375,393.09,547.33
15.32362,407.04,549.39
15.34450,423.64,553.54
15.36407,436.59,559.14
15.38525,451.26,560.86
15.40555,463.36,564.52
15.42473,474.60,567.48
15.44510,484.81,572.48
15.46504,493.75,574.67
15.48361,501.81,575.40
15.50498,508.13,580.22
15.52512,512.81,581.07
15.54539,519.21,585.06
15.56387,525.86,585.98
15.58415,529.93,589.65
15.60524,532.20,590.01
15.62530,533.68,592.03
15.64482,534.95,590.58
15.66418,539.78,592.22
15.68351,540.82,590.86
15.70449,544.54,592.31
15.72452,545.45,590.49
15.74447,547.28,594.33
15.76462,546.70,593.67
15.78537,549.22,595.41
15.80444,549.07,593.24
15.82445,546.42,594.54
15.84438,547.13,593.23
15.86411,548.67,596.97
15.88464,546.66,594.67
15.90506,548.04,597.85
15.92404,548.82,595.25
15.94435,548.75,592.95
15.96487,549.71,595.31
15.98457,549.49,596.38
16.00343,552.78,593.51
16.02358,551.40,595.24
16.04395,551.58,595.07
16.06463,550.20,593.53
16.08388,551.17,596.23
16.10458,552.68,594.79
16.12513,548.97,590.91
16.14440,549.32,592.05
16.16528,551.10,594.40
16.18485,550.49,591.91
16.20512,549.80,592.75
16.22416,551.39,592.52
16.24451,550.14,593.96
16.26485,552.63,592.35
16.28492,551.66,595.11
16.30380,552.41,592.56
16.32414,553.05,592.93
16.34418,551.65,592.55
16.36513,550.04,594.11
16.38351,551.28,594.53
16.40529,549.19,595.16
16.42467,550.52,595.60
16.44362,549.04,595.94
16.46465,550.04,595.61
16.48535,550.14,593.74
16.50398,551.20,596.58
16.52478,547.04,596.56
16.54380,549.84,594.85
16.56481,552.37,594.71
16.58429,552.28,597.47
16.60366,550.03,593.88
16.62383,551.33,596.39
16.64520,553.59,594.92
16.66419,551.37,598.10
16.68484,550.82,595.48
16.70381,553.66,595.10
16.72549,550.59,598.16
16.74370,553.50,596.94
16.76435,554.53,598.37
16.78535,551.42,595.38
16.80459,552.78,596.78
16.82423,553.29,595.73
16.84372,553.91,596.89
16.86454,554.99,595.46
16.88440,553.40,595.00
16.90425,554.23,594.26
16.92390,554.21,596.43
16.94415,553.92,598.80
16.96503,553.03,599.04
16.98474,550.96,597.27
17.00443,551.41,595.52
17.02371,551.23,596.28
17.04517,552.45,593.54
17.06505,550.74,595.97
17.08454,552.92,594.95
17.10521,552.98,596.86
17.12451,550.32,593.61
17.14406,553.54,595.88
17.16418,552.43,592.72
17.18549,553.52,592.09
17.20462,553.25,592.99
17.22400,552.74,591.31
17.24514,552.16,592.11
17.26443,549.97,593.91
17.28546,551.45,594.67
17.30407,550.33,592.06
17.32418,551.47,593.26
17.34377,549.46,592.36
17.36358,550.90,593.26
17.38489,552.36,597.15
17.40415,549.39,596.77
17.42482,550.22,596.88
17.44373,550.66,595.01
17.46470,552.52,596.22
17.48369,550.55,596.42
17.50522,547.94,595.34
17.52354,550.24,593.13
17.54409,550.88,593.30
17.56391,548.71,591.70
17.58473,549.72,594.68
17.60348,547.88,593.88
17.62347,550.20,596.31
17.64363,551.99,592.36
17.66432,548.40,593.53
17.68344,551.45,596.29
17.70536,550.04,595.13
17.72365,552.52,595.49
17.74405,550.84,594.58
17.76457,550.97,595.13
17.78534,553.42,595.63
17.80552,551.60,596.00
17.82525,550.67,593.47
17.84526,549.96,591.96
17.86529,551.63,592.61
17.88555,554.15,593.39
17.90507,554.52,594.22
17.92620,554.99,592.17
17.94476,552.58,590.34
17.96444,550.12,591.32
17.98460,551.23,590.02
18.00601,550.89,592.96
18.02541,551.27,590.91
18.04490,549.05,593.57
18.06453,549.96,593.95
18.08523,552.96,594.76
18.10481,548.45,590.78
18.12503,546.66,592.51
18.14515,549.08,592.34
18.16621,549.38,592.37
18.18506,548.44,593.98
18.20597,550.17,592.52
18.22524,546.86,593.32
18.24611,557.90,596.10
18.26578,586.75,605.50
18.28637,619.68,614.09
18.30624,652.50,621.75
18.32549,683.48,623.03
18.34553,703.89,623.23
18.36636,720.69,623.97
18.38546,728.28,621.01
18.40568,730.55,619.67
18.42584,727.11,618.71
18.44701,716.23,616.75
18.46556,706.39,617.45
18.48618,693.01,615.13
18.50610,681.34,613.50
18.52721,666.24,612.66
18.54559,654.66,612.69
18.56563,640.60,610.05
18.58531,631.02,611.06
18.60635,617.72,607.74
18.62745,610.11,607.37
18.64642,603.64,608.45
18.66722,594.78,607.67
18.68688,587.31,603.59
18.70563,585.29,603.33
18.72712,579.69,604.98
18.74737,576.82,601.70
18.76621,572.46,602.79
18.78716,569.72,601.65
18.80542,566.01,601.99
18.82680,566.92,601.28
18.84677,566.22,602.29
18.86577,564.57,603.65
18.88555,563.43,600.17
18.90741,558.86,599.06
18.92692,556.48,602.44
18.94694,555.17,601.57
18.96732,556.88,602.81
18.98619,555.85,600.53
19.00674,555.43,600.07
19.02661,552.24,600.39
19.04721,552.84,601.20
19.06652,552.64,601.11
19.08681,553.88,597.78
19.10662,554.08,597.78
19.12592,550.99,600.59
19.14681,554.13,597.50
19.16688,551.75,599.78
19.18684,549.60,596.67
19.20621,552.01,597.62
19.22632,550.57,600.27
19.24724,550.80,599.19
19.26721,551.62,600.93
19.28800,551.70,600.70
19.30835,549.83,600.95
19.32669,550.30,599.26
19.34791,549.84,599.12
19.36789,550.53,600.59
19.38814,549.91,601.29
19.40760,550.62,601.47
19.42839,554.13,603.21
19.44898,544.00,602.48
19.46745,518.47,600.00
19.48766,486.21,591.20
19.50777,449.01,586.22
19.52791,411.18,578.08
19.54864,381.74,571.08
19.56752,362.42,567.74
19.58771,355.67,564.28
19.60883,354.88,562.44
19.62777,363.17,563.71
19.64838,377.03,566.57
19.66900,389.31,568.01
19.68843,403.54,570.27
19.70875,420.50,573.62
19.72763,433.78,576.31
19.74830,446.78,582.45
19.76803,457.63,582.23
19.78871,468.33,585.40
19.80807,478.01,585.43
19.82772,489.45,589.60
19.84886,494.19,587.67
19.86771,501.46,589.10
19.88911,507.81,590.57
19.90925,514.93,594.00
19.92926,519.72,595.95
19.94869,524.45,598.66
19.96864,522.95,601.39
19.98783,526.69,602.33
20.00903,530.15,601.01
20.02889,534.62,602.84
20.04805,535.06,603.49
20.06835,538.07,602.57
20.08896,540.12,603.24
20.10955,540.73,604.88
20.13011,540.54,606.68
20.14923,541.91,606.45
20.16870,542.66,605.70
20.18968,543.65,605.71
20.21025,544.96,602.76
20.22843,543.39,602.81
20.24871,543.14,603.74
20.26880,543.28,604.62
20.28998,542.02,605.81
20.30847,545.95,602.62
20.32861,544.33,606.98
20.34898,541.56,603.88
20.37012,543.17,605.78
20.39025,541.14,606.17
20.40854,541.48,605.70
20.42977,543.07,605.82
20.44825,540.06,603.43
20.46932,542.24,605.75
20.48841,543.82,606.65
20.50847,541.92,605.98
20.53021,543.67,603.88
20.54869,544.68,604.68
20.56931,544.71,606.83
20.58948,546.09,605.97
20.60966,545.68,605.84
20.62997,543.39,606.26
20.64932,543.83,606.54
20.66908,544.42,606.60
20.68854,546.53,605.40
20.70946,546.00,604.95
20.72998,546.27,606.27
20.74894,546.35,607.47
20.76967,543.08,606.22
20.78854,542.91,604.19
20.80852,541.89,603.49
20.82881,540.80,606.28
20.84850,540.66,607.41
20.86987,541.56,604.64
20.89028,542.75,603.51
20.90925,541.61,604.87
20.92970,543.04,603.31
20.94843,542.52,607.01
20.96971,545.06,605.21
20.98873,544.84,605.64
21.00952,542.16,605.41
21.02885,544.13,604.88
21.04899,542.98,606.11
21.06860,544.24,603.75
21.08858,546.54,604.76
21.11029,545.84,608.13
21.12855,545.72,605.55
21.14855,545.45,606.78
21.16985,546.03,605.80
21.18859,546.74,603.29
21.20914,545.35,603.39
21.22915,546.59,604.89
21.24832,546.46,606.18
21.26883,547.12,606.74
21.28904,546.84,604.31
21.30944,546.99,603.76
21.32932,546.91,606.32
21.34940,547.39,605.65
21.36992,547.04,605.56
21.38902,543.90,606.25
21.40928,546.27,606.25
21.42989,546.29,609.28
21.45011,544.64,609.30
21.46934,545.40,608.50
21.48877,547.95,606.99
21.51021,545.75,608.38
21.52937,545.59,609.65
21.55028,545.76,607.39
21.56860,543.31,606.25
21.58950,545.82,604.18
21.60880,545.52,604.18
21.62932,544.93,604.89
21.65010,543.79,603.92
21.66957,545.69,604.93
21.69009,544.77,606.19
21.70848,546.03,607.64
21.72874,546.00,608.87
21.74843,546.40,608.50
21.76845,546.46,604.21
21.78975,546.70,606.80
21.81066,544.84,606.76
21.83050,549.17,605.04
21.84932,548.13,606.59
21.87073,549.82,606.34
21.89178,548.60,606.02
21.91067,548.11,605.36
21.93084,550.65,604.80
21.95087,547.59,606.18
21.97318,550.28,607.58
21.99151,547.65,610.17
22.01307,549.26,609.25
22.03203,546.67,606.61
22.05128,549.30,607.90
22.07228,546.50,608.39
22.09225,546.39,605.56
22.11310,548.91,606.55
22.13219,549.94,607.80
22.15180,548.37,605.81
22.17233,551.23,607.39
22.19239,550.48,608.21
22.21222,549.22,606.42
22.23226,548.02,606.21
22.25307,549.80,609.21
22.27165,548.36,607.04
22.29270,549.42,606.51
22.31152,546.50,607.52
22.33226,547.91,610.34
22.35204,548.55,608.86
22.37336,547.08,608.41
22.39252,545.93,609.42
22.41150,548.43,608.07
22.43239,546.80,607.74
22.45308,547.78,609.07
22.47266,546.32,607.70
22.49152,549.77,605.85
22.51283,550.46,606.09
22.53243,551.02,605.77
22.55237,548.83,605.43
22.57319,551.81,605.62
22.59214,551.66,604.71
22.61325,552.06,605.71
22.63263,553.25,606.14
22.65409,553.37,606.70
22.67392,551.66,605.73
22.69366,548.70,602.96
22.71374,547.75,603.18
22.73244,548.61,602.55
22.75301,546.31,605.81
22.77428,549.32,605.85
22.79419,548.58,605.27
22.81428,548.29,606.19
22.83396,549.60,606.05
22.85307,550.36,602.66
22.87463,548.86,605.03
22.89442,549.59,603.38
22.91329,548.83,604.08
22.93517,549.21,599.79
22.95456,548.99,598.40
22.97375,550.34,599.51
22.99453,549.29,599.70
23.01501,552.05,598.82
23.03398,551.06,598.28
23.05363,552.43,597.97
23.07417,550.46,599.28
23.09444,548.79,598.49
23.11411,551.48,598.53
23.13334,549.86,598.05
23.15401,549.13,599.86
23.17501,551.65,598.91
23.19430,549.53,596.51
23.21457,550.73,598.05
23.23440,553.79,596.77
23.25427,552.41,598.74
23.27484,552.38,601.05
23.29362,551.52,600.12
23.31489,547.92,601.05
23.33498,550.89,599.08
23.35333,550.40,599.48
23.37415,550.54,601.33
23.39458,549.78,602.41
23.41316,551.69,597.64
23.43486,550.11,597.95
23.45418,550.14,597.70
23.47539,552.12,595.79
23.49599,550.80,598.19
23.51529,552.06,596.04
23.53498,549.98,594.83
23.55444,549.42,594.12
23.57458,552.06,593.17
23.59466,549.31,593.63
23.61527,549.86,592.43
23.63451,552.27,593.54
23.65579,549.63,593.55
23.67592,554.19,592.53
23.69619,554.40,592.96
23.71631,554.48,592.08
23.73525,549.63,592.47
23.75474,548.94,592.15
23.77465,555.85,595.38
23.79462,579.06,607.27
23.81531,617.30,624.54
23.83575,660.29,643.80
23.85492,695.04,655.56
23.87474,726.74,656.49
23.89425,741.71,650.29
23.91463,749.73,638.89
23.93624,748.62,630.22
23.95585,744.23,619.53
23.97479,734.13,611.90
23.99634,721.71,603.99
24.01544,710.81,598.26
24.03603,697.13,594.07
24.05572,680.79,590.85
24.07581,665.28,591.18
24.09456,651.46,591.14
24.11500,639.63,590.77
24.13604,629.38,589.54
24.15476,618.92,590.40
24.17603,609.04,588.84
24.19573,601.54,592.35
24.21467,596.31,589.80
24.23475,592.43,594.04
24.25567,586.63,593.29
24.27544,580.65,592.03
24.29534,578.47,595.53
24.31596,572.27,593.75
24.33528,571.76,592.87
24.35454,568.00,592.19
24.37622,565.68,595.09
24.39583,561.68,595.46
24.41586,559.61,595.09
24.43600,559.54,598.52
24.45548,557.10,598.79
24.47465,559.06,598.02
24.49472,555.30,595.66
24.51443,555.12,598.52
24.53464,555.46,595.60
24.55583,557.00,593.56
24.57609,556.26,595.40
24.59537,556.65,591.21
24.61432,555.93,595.59
24.63519,552.71,597.20
24.65545,554.93,595.69
24.67553,554.12,598.45
24.69476,552.43,594.37
24.71459,551.35,595.79
24.73447,552.83,594.25
24.75517,549.29,598.11
24.77432,532.48,599.09
24.79518,505.97,597.82
24.81431,475.26,592.23
24.83443,437.92,581.11
24.85598,401.57,567.32
24.87459,374.05,556.35
24.89478,357.30,545.71
24.91463,355.00,543.20
24.93523,359.57,541.95
24.95549,367.55,543.27
24.97525,380.87,544.56
24.99528,395.35,547.38
25.01531,411.03,548.93
25.03579,425.83,553.67
25.05535,437.82,556.51
25.07574,453.39,561.01
25.09627,464.45,565.96
25.11486,476.12,570.34
25.13554,485.55,571.64
25.15587,496.24,571.99
25.17514,502.85,576.48
25.19537,507.46,578.94
25.21575,515.06,579.18
25.23450,521.57,580.79
25.25511,524.66,585.67
25.27439,528.61,586.84
25.29572,531.58,587.89
25.31628,531.12,587.52
25.33620,533.86,586.02
25.35502,533.39,589.64
25.37553,535.48,591.42
25.39612,539.58,589.99
25.41448,540.83,590.29
25.43599,541.34,591.01
25.45490,539.86,589.21
25.47475,540.34,590.45
25.49474,543.73,591.55
25.51473,543.85,590.75
25.53603,545.76,588.21
25.55563,549.76,589.55
25.57477,550.03,586.89
25.59525,549.24,590.68
25.61421,549.69,589.54
25.63531,550.79,590.23
25.65595,547.53,588.90
25.67485,549.71,592.81
25.69444,551.86,590.50
25.71541,552.22,593.40
25.73432,554.93,594.98
25.75468,549.99,592.66
25.77496,550.49,594.32
25.79419,551.38,592.74
25.81496,547.94,592.82
25.83612,549.84,591.48
25.85547,549.72,591.44
25.87483,552.42,589.29
25.89583,550.19,589.68
25.91595,553.36,591.35
25.93495,551.05,590.25
25.95449,550.59,592.88
25.97491,552.04,590.81
25.99413,551.26,592.48
26.01518,551.98,591.57
26.03486,550.46,589.78
26.05624,550.19,592.27
26.07520,549.65,588.17
26.09528,549.89,587.97
26.11466,549.72,590.06
26.13442,552.30,589.31
26.15497,550.34,585.45
26.17466,551.67,587.35
26.19577,550.73,587.91
26.21608,549.42,589.59
26.23422,552.59,590.09
26.25513,551.70,590.73
26.27577,552.00,592.12
26.29471,550.04,588.95
26.31424,549.41,590.25
26.33561,549.94,590.41
26.35477,547.71,593.36
26.37464,547.67,592.01
26.39521,547.21,593.38
26.41617,547.72,590.65
26.43529,549.06,592.92
26.45565,550.34,592.57
26.47558,549.08,593.29
26.49468,549.92,590.42
26.51551,550.13,591.62
26.53611,552.29,592.54
26.55514,552.08,590.96
26.57479,554.11,594.16
26.59514,550.31,593.00
26.61553,548.94,594.47
26.63556,551.16,594.31
26.65482,549.62,591.40
26.67527,550.45,591.64
26.69431,547.70,590.46
26.71555,549.49,588.32
26.73452,548.76,590.02
26.75593,550.97,589.05
26.77461,551.44,588.67
26.79442,551.11,589.65
26.81583,550.08,592.17
26.83500,552.56,592.60
26.85557,550.15,590.27
26.87515,550.62,590.49
26.89596,549.66,592.64
26.91512,550.70,592.65
26.93476,548.52,592.60
26.95436,551.15,588.83
26.97524,551.12,592.20
26.99494,551.71,590.36
27.01510,551.14,590.76
27.03509,551.06,592.13
27.05602,549.45,591.10
27.07471,549.31,592.82
27.09559,551.82,591.41
27.11508,552.64,594.11
27.13593,551.18,590.97
27.15476,551.24,591.86
27.17520,549.36,590.91
27.19435,551.44,592.22
27.21483,550.99,591.63
27.23580,551.91,589.72
27.25455,551.51,592.93
27.27473,551.15,592.33
27.29599,549.95,591.32
27.31457,548.43,593.67
27.33565,549.78,592.01
27.35603,552.03,593.36
27.37593,551.92,591.94
27.39548,549.84,594.94
27.41524,552.24,593.98
27.43460,548.61,590.83
27.45562,551.91,593.81
27.47600,552.19,593.07
27.49415,550.41,590.58
27.51432,550.45,591.72
27.53500,549.81,591.53
27.55530,548.52,587.25
27.57540,550.90,589.20
27.59629,551.13,585.51
27.61548,549.85,586.71
27.63464,550.86,585.34
27.65545,547.93,588.71
27.67490,546.96,587.11
27.69477,548.31,589.04
27.71591,550.29,588.12
27.73498,552.41,586.82
27.75645,552.10,588.15
27.77664,551.37,587.87
27.79636,551.01,588.11
27.81585,554.95,588.50
27.83669,553.34,590.67
27.85540,551.41,589.22
27.87599,553.73,590.08
27.89611,551.57,589.50
27.91529,554.21,588.41
27.93641,551.69,588.29
27.95550,554.19,587.38
27.97584,552.89,590.48
27.99684,555.63,590.15
28.01512,553.96,590.32
28.03698,555.53,589.56
28.05657,552.68,587.16
28.07624,550.02,589.63
28.09714,551.53,588.56
28.11527,550.92,589.16
28.13664,553.96,590.90
28.15675,553.50,592.25
28.17676,555.20,592.89
28.19519,553.87,590.53
28.21596,552.71,593.69
28.23573,554.02,593.44
28.25585,554.22,591.93
28.27722,554.71,592.36
28.29551,552.46,594.03
28.31622,553.97,594.89
28.33688,553.50,595.66
28.35631,554.38,595.60
28.37649,554.46,595.68
28.39624,551.50,592.47
28.41659,549.21,590.61
28.43618,549.29,593.38
28.45549,549.73,593.24
28.47566,551.40,591.24
28.49544,551.27,588.95
28.51597,548.42,589.92
28.53563,546.94,591.30
28.55537,546.90,593.26
28.57628,548.11,592.17
28.59614,550.16,591.07
28.61567,549.98,593.13
28.63541,552.92,592.40
28.65697,551.24,590.18
28.67605,550.23,590.17
28.69690,550.11,593.17
28.71583,549.51,593.92
28.73666,549.53,595.23
28.75656,549.45,594.63
28.77695,548.58,594.29
28.79665,548.01,596.39
28.81587,548.75,595.89
28.83640,548.74,596.79
28.85625,549.40,595.90
28.87683,548.16,594.31
28.89650,549.56,595.95
28.91640,551.73,596.94
28.93536,553.34,595.50
28.95608,554.73,595.83
28.97588,553.14,594.34
28.99541,553.11,594.37
29.01596,553.57,591.46
29.03526,550.90,591.85
29.05647,552.39,592.07
29.07654,552.78,594.50
29.09655,552.23,591.99
29.11524,550.12,591.33
29.13599,554.24,593.04
29.15534,551.44,593.52
29.17607,556.12,592.39
29.19615,554.97,592.00
29.21615,552.20,591.37
29.23536,556.28,591.53
29.25579,556.72,592.56
29.27521,552.50,589.65
29.29644,552.53,590.61
29.31633,553.54,593.26
29.33662,556.61,594.61
29.35530,573.53,598.41
29.37614,602.80,603.98
29.39646,632.50,613.76
29.41524,667.86,621.04
29.43617,697.69,624.92
29.45591,715.31,619.89
29.47692,728.94,620.93
29.49712,734.38,618.11
29.51574,732.18,613.06
29.53634,730.03,613.70
29.55585,720.43,610.12
29.57549,711.00,608.93
29.59705,699.33,603.00
29.61544,682.96,604.02
29.63626,666.70,600.68
29.65619,653.66,600.47
29.67579,641.96,599.62
29.69596,629.33,600.27
29.71647,623.36,598.62
29.73699,611.25,600.68
29.75685,602.48,600.07
29.77549,595.12,601.79
29.79601,587.24,600.40
29.81693,582.65,598.04
29.83789,580.86,601.69
29.85695,576.99,597.69
29.87650,573.50,599.09
29.89778,568.74,597.69
29.91813,569.32,597.21
29.93714,564.97,595.35
29.95783,563.06,597.11
29.97644,562.57,593.96
29.99782,560.76,592.26
30.01702,560.64,592.86
30.03651,557.32,593.74
30.05709,554.49,594.32
30.07634,554.67,598.17
30.09661,556.85,596.22
30.11673,554.67,598.51
30.13651,555.57,595.26
30.15632,555.85,594.23
30.17636,553.27,596.38
30.19804,555.19,596.75
30.21633,556.12,595.24
30.23687,556.78,597.99
30.25724,553.79,595.20
30.27788,551.96,593.33
30.29652,554.57,593.71
30.31608,551.50,594.66
30.33614,552.39,595.46
30.35777,553.69,595.81
30.37760,551.19,592.65
30.39729,550.66,594.85
30.41783,550.62,594.76
30.43745,552.92,592.46
30.45756,548.44,593.27
30.47766,551.44,594.80
30.49770,552.01,591.01
30.51658,533.34,592.43
30.53738,506.48,583.24
30.55754,473.41,575.39
30.57802,437.49,564.99
30.59617,403.55,557.86
30.61745,372.47,552.36
30.63607,355.13,550.02
30.65683,350.53,545.80
30.67623,352.26,549.55
30.69689,363.49,551.65
30.71769,374.29,556.94
30.73644,389.97,559.23
30.75673,406.97,565.24
30.77742,420.57,569.82
30.79741,437.24,572.19
30.81650,450.68,578.81
30.83797,460.27,580.96
30.85715,472.30,584.27
30.87716,483.67,585.11
30.89659,493.86,587.86
30.91685,502.17,588.76
30.93734,510.04,590.06
30.95709,515.56,591.88
30.97775,519.11,590.41
30.99779,523.75,594.20
31.01621,528.22,592.72
31.03705,531.78,593.95
31.05687,535.05,596.75
31.07614,536.40,593.93
31.09744,535.39,593.16
31.11794,539.80,594.97
31.13774,538.90,593.13
31.15783,541.33,595.79
31.17817,543.16,597.57
31.19676,546.01,593.69
31.21781,545.35,593.51
31.23668,545.76,594.34
31.25654,545.10,594.56
31.27723,546.39,592.74
31.29622,546.74,594.20
31.31764,550.22,592.85
31.33784,547.84,593.87
31.35717,548.72,595.16
31.37722,548.81,593.59
31.39789,548.53,596.51
31.41770,548.01,592.99
31.43740,547.50,595.16
31.45669,549.22,594.53
31.47739,548.95,595.55
31.49735,547.17,595.77
31.51792,550.09,596.38
31.53728,549.51,596.21
31.55713,547.41,597.58
31.57752,548.16,598.88
31.59698,549.00,600.80
31.61686,548.41,600.66
31.63653,549.05,599.89
31.65755,550.44,601.26
31.67731,551.16,601.70
31.69752,550.62,599.95
31.71672,552.13,598.32
31.73788,549.98,600.05
31.75627,549.71,596.73
31.77652,551.85,597.35
31.79776,550.52,598.37
31.81625,551.02,598.53
31.83658,551.66,598.66
31.85658,549.48,596.57
31.87600,550.40,597.56
31.89712,550.81,597.38
31.91745,549.25,599.13
31.93686,551.37,599.50
31.95750,551.04,599.69
31.97747,550.42,596.91
31.99747,549.19,598.18
32.01737,551.93,601.11
32.03787,550.69,602.03
32.05671,549.50,599.50
32.07787,549.34,601.91
32.09601,548.32,602.01
32.11732,549.12,599.63
32.13738,551.34,602.28
32.15721,549.54,599.93
32.17789,550.87,603.19
32.19751,548.62,600.22
32.21692,548.52,598.93
32.23715,551.21,601.25
32.25767,548.25,599.34
32.27688,549.83,597.57
32.29761,548.03,598.29
32.31807,548.98,601.71
32.33699,549.72,599.34
32.35618,548.54,599.27
32.37737,550.15,599.70
32.39644,551.42,602.32
32.41710,549.33,599.75
32.43791,549.87,601.35
32.45732,550.81,599.11
32.47806,546.84,598.95
32.49782,549.25,601.71
32.51659,548.64,599.99
32.53723,546.24,599.62
32.55683,546.23,601.42
32.57694,547.46,600.62
32.59686,548.79,599.78
32.61707,548.99,599.90
32.63692,548.24,602.45
32.65805,547.57,601.90
32.67706,549.65,601.98
32.69792,546.96,602.24
32.71664,548.96,602.33
32.73712,549.00,604.04
32.75744,550.12,603.76
32.77796,547.32,603.65
32.79688,548.27,601.38
32.81672,547.39,599.51
32.83743,549.97,600.70
32.85771,546.89,601.36
32.87651,547.64,600.00
32.89676,546.15,600.75
32.91694,549.22,603.71
32.93687,546.65,601.54
32.95780,549.86,600.56
32.97774,552.41,600.51
32.99685,552.51,603.92
33.01638,551.53,600.51
33.03716,549.30,602.34
33.05687,548.42,602.20
33.07797,551.51,603.40
33.09681,549.95,604.19
33.11713,549.43,602.89
33.13780,549.59,599.10
33.15636,548.76,600.52
33.17657,548.36,600.71
33.19748,545.15,599.31
33.21672,547.82,602.60
33.23644,547.20,601.91
33.25670,551.16,602.70
33.27784,551.30,600.30
33.29654,547.93,600.63
33.31787,548.26,602.77
33.33670,550.91,601.50
33.35627,550.88,603.72
33.37754,549.46,604.16
33.39671,548.19,601.43
33.41681,548.34,601.51
33.43782,545.76,602.53
33.45702,545.64,602.26
33.47717,546.59,600.77
33.49633,548.91,601.88
33.51778,548.17,599.84
33.53777,546.69,600.48
33.55781,547.88,603.20
33.57614,546.58,601.00
33.59644,545.60,603.55
33.61757,544.40,604.44
33.63799,547.89,603.20
33.65631,545.32,603.53
33.67720,544.51,604.76
33.69612,543.50,603.78
33.71616,542.80,601.79
33.73661,545.61,600.00
33.75740,545.37,601.24
33.77749,545.49,601.37
33.79805,545.46,600.35
33.81735,545.29,599.10
33.83750,545.61,600.56
33.85722,543.22,600.14
33.87667,543.82,600.17
33.89616,543.10,600.28
33.91679,546.12,603.27
33.93798,544.66,600.57
33.95679,546.32,599.88
33.97677,547.27,602.79
33.99765,546.39,600.64
34.01720,545.01,601.18
34.03711,543.82,601.55
34.05624,543.38,600.18
34.07661,543.89,600.62
34.09775,541.34,601.99
34.11870,541.86,602.00
34.13775,545.32,604.91
34.15746,543.00,605.15
34.17745,543.12,604.48
34.19878,543.10,600.55
34.21824,544.08,602.61
34.23861,544.46,601.21
34.25899,544.11,602.75
34.27850,546.66,603.54
34.29846,543.88,605.43
34.31965,546.62,605.42
34.33832,547.63,605.28
34.35817,544.23,603.27
34.37897,546.96,606.83
34.39843,546.20,605.40
34.41980,545.50,606.19
34.43824,545.36,603.19
34.45839,542.35,603.44
34.47918,541.15,601.43
34.49942,544.41,603.39
34.51812,542.31,602.21
34.54019,543.07,603.11
34.55893,542.18,599.10
34.57978,543.62,598.79
34.59953,549.77,601.38
34.61915,567.43,611.41
34.63985,599.63,621.38
34.65871,635.05,638.93
34.67986,667.49,648.51
34.70014,696.72,656.75
34.71796,715.58,661.02
34.73875,728.14,657.42
34.75804,731.50,649.03
34.77861,731.78,641.81
34.79838,727.14,636.50
34.81819,714.08,630.62
34.83991,702.27,623.95
34.85850,690.86,620.04
34.87899,677.87,617.56
34.89965,662.23,615.05
34.91845,648.77,611.99
34.93887,635.63,612.04
34.95899,622.14,611.85
34.97891,613.16,608.81
34.99827,603.62,606.97
35.01854,593.61,609.21
35.03881,586.67,606.28
35.05877,579.69,606.74
35.07871,575.99,607.65
35.09985,570.39,606.82
35.11937,569.05,603.82
35.13904,565.03,605.12
35.15936,562.70,605.59
35.17864,560.19,605.13
35.19893,556.48,605.99
35.21837,554.82,607.51
35.23977,553.87,607.26
35.25975,549.34,607.12
35.27981,549.34,604.40
35.29920,549.50,603.22
35.31831,548.78,605.26
35.33978,548.08,607.32
35.35884,548.16,606.33
35.37825,546.20,607.78
35.39976,544.86,606.80
35.41845,544.56,604.67
35.43988,544.05,606.86
35.45961,546.20,604.56
35.47959,544.11,606.00
35.49966,541.74,606.30
35.51963,540.29,605.35
35.53994,541.92,606.42
35.55816,546.78,605.36
35.57838,538.05,610.12
35.59816,521.54,611.67
35.61815,498.75,610.47
35.63926,466.51,601.16
35.65856,431.94,588.31
35.67828,400.57,575.37
35.69972,371.90,559.10
35.71896,351.85,546.55
35.73840,343.81,544.00
35.75935,347.22,540.98
35.77938,357.27,546.11
35.79843,368.78,548.46
35.81936,383.25,552.96
35.83871,399.82,556.73
35.85838,413.45,561.15
35.87901,429.87,568.13
35.89911,442.49,570.07
35.91894,454.91,576.09
35.93867,464.82,579.26
35.95888,477.72,583.53
35.97927,487.20,585.67
35.99965,492.79,586.83
36.01889,501.38,589.56
36.03910,506.60,592.26
36.05851,511.52,595.33
36.07885,517.03,594.77
36.09852,521.08,595.76
36.11986,525.28,599.58
36.13821,529.45,602.38
36.15932,532.71,601.77
36.17949,534.38,603.27
36.19982,536.66,604.61
36.21894,535.83,604.13
36.23964,537.57,601.08
36.25841,537.17,603.38
36.27854,537.98,602.34
36.29895,541.39,602.54
36.31892,539.27,602.07
36.33876,542.98,603.04
36.35841,541.93,601.14
36.37975,539.84,605.47
36.39900,540.26,605.90
36.41849,541.70,603.81
36.43856,542.46,602.96
36.45881,542.24,603.67
36.47910,542.01,605.07
36.49884,540.82,604.29
36.51976,543.06,606.52
36.53864,540.26,606.90
36.55919,543.22,603.90
36.57919,540.65,606.19
36.59972,540.43,605.88
36.61925,541.91,603.09
36.63981,539.91,606.92
36.65965,544.44,603.83
36.67865,544.79,605.51
36.69866,544.74,604.40
36.71984,544.11,604.26
36.73829,544.25,605.32
36.75998,545.23,604.18
36.77827,546.16,605.46
36.79816,544.87,605.12
36.81891,542.20,605.51
36.83806,546.19,606.85
36.85981,542.90,605.86
36.87800,542.83,604.24
36.90005,542.33,604.67
36.91885,544.35,607.27
36.93950,544.96,604.46
36.95944,543.17,607.81
36.97898,544.33,606.15
36.99847,544.47,605.98
37.01982,545.16,605.86
37.03887,545.33,604.41
37.05961,542.08,606.62
37.07948,542.29,603.79
37.09806,543.43,603.79
37.11960,546.72,605.92
37.13949,545.03,605.44
37.15988,545.42,605.09
37.17896,547.95,603.83
37.19835,545.85,604.05
37.21924,545.73,603.49
37.24030,549.14,604.56
37.25950,547.36,601.85
37.28016,547.68,602.41
37.30033,545.98,606.80
37.31942,548.63,604.06
37.34094,547.78,605.78
37.36012,546.69,607.01
37.38023,546.41,607.30
37.39905,547.34,607.48
37.42038,542.68,605.10
37.44082,546.34,606.18
37.46011,544.79,609.59
37.47976,546.78,609.36
37.49911,545.28,610.21
37.52021,546.54,608.17
37.54077,546.10,610.69
37.56095,545.02,606.76
37.58022,547.16,607.30
37.59980,547.67,609.57
37.61956,544.96,609.40
37.64031,545.98,609.80
37.66092,543.82,609.77
37.68064,545.37,610.02
37.69959,545.50,607.86
37.71895,544.84,609.65
37.74056,544.89,606.33
37.75922,544.80,606.93
37.78075,543.40,605.41
37.80017,543.71,607.96
37.82100,548.39,606.39
37.84073,546.74,604.94
37.86027,545.05,605.86
37.88009,544.25,606.24
37.90078,549.08,604.45
37.92001,547.25,604.97
37.93914,549.84,607.71
37.96001,550.45,607.40
37.97953,546.89,608.59
38.00102,549.51,604.70
38.02003,546.25,607.40
38.04084,549.61,608.05
38.06104,546.87,607.38
38.08053,549.17,607.18
38.10002,545.30,610.84
38.12031,546.36,607.00
38.13940,545.87,608.29
38.16000,544.72,607.17
38.17964,544.97,605.80
38.20021,547.25,608.55
38.22033,549.84,608.52
38.24000,546.77,609.42
38.26047,548.48,609.24
38.27938,547.67,608.04
38.30079,545.79,610.14
38.32083,548.27,610.70
38.34035,548.08,609.35
38.35917,551.13,608.13
38.38070,549.02,606.88
38.40111,550.63,605.39
38.42089,550.59,607.96
38.44071,550.08,604.54
38.46006,548.15,603.54
38.48057,546.97,604.66
38.49931,548.75,603.81
38.52066,547.23,604.78
38.53969,544.74,605.40
38.56018,545.74,602.94
38.57901,550.03,604.05
38.60069,546.51,602.98
38.62041,549.60,604.15
38.64088,547.59,603.65
38.65884,547.86,605.33
38.68027,548.48,605.72
38.70076,547.52,606.45
38.71977,550.18,606.26
38.74016,549.32,604.93
38.75966,552.59,605.93
38.77926,550.19,603.91
38.79947,553.91,605.62
38.82065,552.72,606.26
38.83907,556.28,603.41
38.86056,554.54,603.43
38.87949,551.80,603.18
38.90083,550.58,605.31
38.91908,564.44,611.82
38.94109,589.77,623.79
38.96081,622.66,643.11
38.97909,656.39,662.61
38.99985,685.37,673.26
39.01895,712.96,677.41
39.03916,726.21,671.84
39.06016,734.08,666.90
39.08018,731.42,656.51
39.09911,728.82,649.21
39.12000,717.98,642.83
39.14022,705.66,634.83
39.15930,694.33,629.01
39.17926,682.90,626.33
39.20065,669.27,622.74
39.21955,655.57,617.37
39.24009,645.33,615.13
39.26001,633.24,614.05
39.27890,624.75,609.99
39.30067,615.53,608.84
39.32055,606.84,609.72
39.33951,597.84,607.45
39.36066,590.22,605.82
39.38045,586.28,603.76
39.40077,578.34,605.67
39.42086,575.32,603.48
39.43948,571.04,603.23
39.46099,566.50,603.54
39.48013,562.07,603.13
39.49937,562.24,604.91
39.51906,560.90,602.36
39.53920,558.30,604.11
39.55985,557.66,603.91
39.58050,555.87,606.26
39.59955,554.95,606.44
39.62082,556.14,609.50
39.64070,556.03,609.36
39.66099,552.55,609.17
39.67941,553.45,606.18
39.70073,553.08,606.68
39.71997,551.04,609.13
39.73923,551.63,607.45
39.75987,548.53,606.93
39.77999,550.81,607.36
39.79924,547.82,607.42
39.81990,549.52,608.63
39.83932,547.47,611.24
39.86089,531.55,611.90
39.88059,510.19,610.84
39.89970,481.47,610.09
39.92021,448.41,603.18
39.93961,416.03,591.91
39.95971,389.00,583.01
39.97946,365.09,571.99
40.00036,357.80,563.42
40.01921,359.06,562.37
40.04033,366.25,563.20
40.06084,376.26,564.90
40.07988,391.37,564.99
40.10096,405.36,568.98
40.12001,418.30,570.26
40.14054,432.28,572.55
40.15988,444.97,578.20
40.18033,460.39,579.36
40.20034,471.75,584.90
40.22078,479.52,586.98
40.23907,490.34,586.14
40.26028,500.30,589.34
40.27982,506.75,590.86
40.29980,513.04,594.91
40.31975,516.89,596.38
40.33976,523.70,595.69
40.35925,526.53,600.55
40.37959,529.76,600.15
40.40035,532.94,599.20
40.41948,535.25,600.80
40.43994,532.83,602.65
40.46002,535.75,605.34
40.47928,540.05,604.10
40.50019,541.73,605.57
40.51953,541.00,605.04
40.53988,542.64,606.16
40.55961,542.63,607.31
40.57970,543.48,607.11
40.60076,544.60,607.52
40.61957,545.99,606.81
40.64064,546.71,606.94
40.66074,546.30,606.56
40.68152,547.40,609.00
40.70012,546.55,606.38
40.72061,550.70,610.19
40.74123,547.92,609.89
40.76178,548.44,606.29
40.78150,546.91,608.93
40.80045,547.97,606.08
40.82103,550.27,606.85
40.84118,550.53,607.43
40.86014,551.40,603.18
40.88147,551.03,605.83
40.90056,549.19,603.82
40.92145,549.47,605.76
40.94269,546.85,604.36
40.96122,545.95,603.35
40.98246,547.47,601.84
41.00143,548.13,602.77
41.02141,549.11,600.78
41.04106,549.16,599.82
41.06247,545.65,600.56
41.08254,548.02,602.36
41.10103,547.83,601.05
41.12275,549.53,603.31
41.14109,547.95,601.51
41.16285,548.06,599.86
41.18270,549.91,602.14
41.20160,547.66,602.95
41.22202,551.42,599.02
41.24138,552.81,600.76
41.26146,550.83,601.77
41.28189,553.94,600.96
41.30188,553.65,601.28
41.32221,551.12,601.61
41.34196,553.59,602.54
41.36142,549.19,603.18
41.38148,551.71,602.61
41.40154,549.93,603.37
41.42106,549.31,604.33
41.44138,549.21,599.84
41.46102,551.03,600.45
41.48108,552.46,599.41
41.50267,552.47,601.36
41.52124,549.32,600.43
41.54210,548.85,598.95
41.56217,548.80,597.47
41.58260,548.34,601.36
41.60198,546.45,600.80
41.62152,545.69,601.58
41.64180,549.03,602.66
41.66185,549.09,600.61
41.68200,546.40,600.64
41.70195,549.76,601.78
41.72181,549.68,599.72
41.74254,549.73,601.02
41.76180,550.21,599.87
41.78237,548.32,601.39
41.80107,547.77,601.44
41.82146,546.85,599.73
41.84123,548.31,599.51
41.86127,547.96,600.93
41.88151,547.60,600.59
41.90272,549.70,604.48
41.92199,548.70,603.59
41.94106,549.72,601.92
41.96145,550.23,603.38
41.98189,548.99,604.30
42.00229,547.47,605.45
42.02158,551.36,603.07
42.04246,548.22,604.61
42.06205,549.69,605.11
42.08277,549.69,606.58
42.10167,547.23,602.65
42.12180,551.15,603.36
42.14199,550.32,606.02
42.16282,545.19,606.27
42.18242,538.72,610.10
42.20189,534.87,625.63
42.22266,529.02,646.55
42.24219,531.58,674.25
42.26217,527.80,693.75
42.28098,526.11,695.50
42.30157,523.13,682.63
42.32190,521.54,658.77
42.34092,523.00,632.79
42.36203,523.28,604.30
42.38236,524.96,582.78
42.40187,524.47,566.75
42.42290,529.47,552.65
42.44161,528.41,541.93
42.46162,529.44,535.50
42.48209,533.03,531.48
42.50168,536.35,533.04
42.52237,539.09,536.16
42.54097,535.99,539.33
42.56262,535.14,544.55
42.58190,538.89,549.78
42.60249,538.75,554.62
42.62216,540.33,561.29
42.64256,539.49,565.53
42.66286,543.42,567.23
42.68269,543.27,571.56
42.70167,545.51,580.67
42.72119,546.72,586.20
42.74251,544.36,591.32
42.76288,547.89,595.89
42.78238,548.57,601.18
42.80124,546.37,603.57
42.82236,549.01,603.63
42.84252,550.25,606.10
42.86094,548.28,611.43
42.88219,551.05,611.91
42.90146,550.90,615.50
