Program Time [s],data 0,data 1
3.26274,499.96,568.97
3.28347,500.30,565.37
3.30246,498.85,563.98
3.32285,499.55,565.52
3.34306,501.92,565.18
3.36287,504.01,563.65
3.38190,501.49,567.32
3.40175,501.90,566.43
3.42227,502.46,568.92
3.44285,498.68,570.05
3.46264,498.91,568.63
3.48201,502.28,568.09
3.50327,502.11,566.97
3.52311,501.65,568.98
3.54355,503.24,568.15
3.56214,501.05,565.31
3.58333,502.14,567.35
3.60239,505.43,567.61
3.62192,503.08,567.34
3.64276,503.41,566.26
3.66187,504.09,568.32
3.68222,504.95,568.77
3.70190,504.79,567.29
3.72313,504.68,569.18
3.74267,503.49,566.98
3.76179,501.76,567.72
3.78266,502.48,568.18
3.80360,504.64,568.48
3.82191,501.03,568.90
3.84309,500.59,570.19
3.86199,500.49,567.15
3.88261,501.18,568.06
3.90234,500.83,569.48
3.92272,502.07,567.28
3.94299,499.61,569.19
3.96229,502.37,569.19
3.98296,499.35,568.12
4.00267,501.23,565.50
4.02318,501.93,568.07
4.04269,500.62,565.38
4.06344,499.91,565.83
4.08300,499.74,569.44
4.10197,502.63,567.34
4.12178,501.79,569.01
4.14373,500.64,567.67
4.16252,501.69,566.97
4.18292,501.30,569.19
4.20195,502.32,569.05
4.22293,500.28,568.75
4.24270,498.34,567.61
4.26284,499.58,567.03
4.28375,502.02,563.24
4.30188,501.64,561.98
4.32312,501.55,565.83
4.34287,500.35,565.55
4.36319,500.49,565.32
4.38213,496.71,565.09
4.40348,498.36,565.76
4.42209,501.26,565.27
4.44266,499.02,563.50
4.46218,499.60,566.00
4.48310,500.52,566.47
4.50191,498.79,565.33
4.52297,497.52,567.24
4.54265,501.05,567.67
4.56287,499.10,566.56
4.58239,501.51,566.63
4.60285,502.20,567.21
4.62185,501.76,567.25
4.64195,502.16,568.19
4.66357,500.39,566.59
4.68202,498.50,567.16
4.70336,496.94,565.43
4.72234,499.65,567.41
4.74198,500.56,565.69
4.76324,501.15,565.25
4.78283,500.51,564.36
4.80217,501.79,568.90
4.82208,514.03,573.71
4.84293,537.17,587.51
4.86205,564.59,599.46
4.88192,591.41,610.83
4.90223,618.94,616.97
4.92188,637.74,619.26
4.94301,649.41,615.46
4.96205,656.26,611.61
4.98358,657.50,602.18
5.00351,656.96,593.46
5.02206,650.17,585.74
5.04226,642.41,581.39
5.06331,629.69,575.50
5.08335,620.65,571.71
5.10331,611.58,569.84
5.12350,597.98,565.76
5.14186,588.58,565.71
5.16296,577.16,565.71
5.18271,567.81,564.83
5.20195,560.78,563.35
5.22313,554.68,565.58
5.24304,545.37,566.46
5.26355,542.23,569.52
5.28184,534.94,566.38
5.30362,529.69,568.29
5.32238,525.72,571.48
5.34272,523.45,571.25
5.36343,517.53,569.12
5.38198,516.99,569.33
5.40366,514.29,569.68
5.42212,513.10,570.05
5.44218,512.83,572.06
5.46234,509.69,571.69
5.48263,510.87,569.32
5.50311,510.70,570.03
5.52181,510.23,568.64
5.54345,506.64,568.86
5.56262,505.68,567.75
5.58276,503.63,565.33
5.60358,504.33,569.00
5.62275,504.92,570.00
5.64199,504.05,568.59
5.66236,503.03,569.73
5.68366,502.02,568.87
5.70272,503.69,568.79
5.72220,503.25,569.33
5.74272,503.67,565.92
5.76261,500.07,567.09
5.78192,499.71,566.17
5.80240,501.83,566.32
5.82199,500.38,567.98
5.84362,500.22,567.76
5.86338,497.85,566.55
5.88232,497.54,568.24
5.90361,495.25,567.85
5.92330,487.64,573.63
5.94192,477.94,584.87
5.96346,465.71,602.47
5.98379,447.80,617.09
6.00177,425.26,618.97
6.02286,406.46,616.66
6.04295,382.49,600.76
6.06269,357.06,575.79
6.08276,339.70,550.71
6.10297,327.05,527.20
6.12290,319.96,515.41
6.14356,322.86,506.04
6.16344,329.63,498.89
6.18312,340.43,496.52
6.20271,356.49,496.67
6.22245,367.98,499.39
6.24301,381.67,505.53
6.26354,397.58,510.96
6.28207,407.50,517.59
6.30310,419.81,520.16
6.32267,431.91,527.34
6.34284,439.09,532.16
6.36317,447.67,536.72
6.38227,455.02,539.94
6.40278,460.59,540.83
6.42171,464.86,545.28
6.44316,471.03,547.92
6.46210,475.86,545.40
6.48279,480.16,549.87
6.50259,483.76,547.29
6.52285,488.89,551.07
6.54295,487.78,550.75
6.56207,491.24,553.27
6.58219,492.32,552.16
6.60304,492.67,554.90
6.62266,492.91,556.15
6.64217,495.91,556.89
6.66225,496.86,557.15
6.68281,494.19,558.44
6.70188,494.64,558.65
6.72165,496.68,556.88
6.74315,494.58,559.94
6.76256,496.08,556.91
6.78349,498.86,560.95
6.80301,496.84,558.22
6.82216,499.46,560.71
6.84310,499.03,560.01
6.86300,498.17,560.50
6.88308,497.95,560.50
6.90331,499.51,561.56
6.92239,498.97,560.17
6.94227,499.90,561.76
6.96358,499.39,561.91
6.98335,499.32,559.60
7.00274,500.52,559.04
7.02341,502.32,560.50
7.04333,501.87,560.58
7.06301,503.17,561.88
7.08308,503.35,559.16
7.10390,501.04,558.05
7.12309,501.78,558.49
7.14368,500.56,558.45
7.16465,504.24,560.67
7.18558,504.28,561.76
7.20558,503.22,561.41
7.22449,505.41,561.58
7.24405,503.45,563.09
7.26395,504.99,563.12
7.28407,503.06,562.31
7.30535,503.53,565.32
7.32360,503.56,564.96
7.34436,501.82,565.73
7.36519,504.81,562.50
7.38488,503.79,562.52
7.40568,504.42,561.96
7.42639,502.24,557.19
7.44562,500.83,560.65
7.46645,502.59,558.11
7.48633,503.18,557.37
7.50600,504.44,554.83
7.52592,503.86,554.32
7.54488,502.77,556.10
7.56592,505.74,554.15
7.58578,505.59,555.81
7.60703,504.62,557.04
7.62695,507.39,555.00
7.64742,509.14,554.17
7.66623,508.14,554.14
7.68757,506.81,557.31
7.70641,506.34,552.52
7.72674,507.13,553.26
7.74621,506.45,557.88
7.76776,507.25,556.42
7.78609,507.66,560.59
7.80755,506.24,557.54
7.82700,506.32,556.73
7.84701,505.43,557.39
7.86733,506.25,555.62
7.88665,502.98,554.81
7.90605,502.41,555.86
7.92647,502.77,553.49
7.94636,505.68,553.56
7.96598,501.52,552.83
7.98614,504.58,553.77
8.00613,504.05,554.94
8.02670,500.71,557.51
8.04682,501.19,557.35
8.06728,500.97,559.08
8.08674,500.90,556.93
8.10754,500.35,559.03
8.12659,504.08,555.89
8.14633,503.21,559.58
8.16631,503.01,560.29
8.18705,505.09,558.45
8.20638,506.25,559.23
8.22723,504.61,557.97
8.24600,505.67,559.36
8.26610,505.64,558.29
8.28740,506.00,559.00
8.30654,505.64,558.29
8.32575,503.90,558.36
8.34670,504.01,557.12
8.36722,506.21,557.28
8.38706,501.93,557.77
8.40639,501.19,559.75
8.42630,503.58,558.38
8.44629,501.49,559.44
8.46728,504.08,560.49
8.48617,504.77,559.97
8.50748,504.31,560.20
8.52685,504.83,559.61
8.54674,502.63,558.95
8.56682,502.23,561.84
8.58747,502.38,559.13
8.60772,502.45,559.58
8.62737,503.65,561.29
8.64771,503.79,561.37
8.66654,504.89,562.31
8.68705,505.49,559.24
8.70729,508.00,560.08
8.72671,505.03,563.08
8.74661,507.01,559.19
8.76739,505.61,562.51
8.78766,506.14,559.73
8.80613,505.89,560.00
8.82722,503.50,559.92
8.84720,504.71,559.54
8.86572,507.34,562.54
8.88591,507.77,561.18
8.90755,504.11,561.48
8.92697,515.19,565.40
8.94681,539.04,571.71
8.96693,567.36,586.57
8.98717,596.81,598.15
9.00563,629.02,608.46
9.02713,651.60,612.17
9.04623,666.44,609.75
9.06732,678.04,604.59
9.08700,679.16,600.40
9.10630,678.69,592.28
9.12632,676.68,583.03
9.14581,665.01,576.14
9.16616,655.80,570.38
9.18679,646.40,568.95
9.20664,632.58,562.88
9.22746,620.17,559.29
9.24683,611.33,559.66
9.26712,599.20,557.22
9.28767,590.19,559.93
9.30707,580.50,556.63
9.32698,570.28,557.22
9.34732,559.73,560.36
9.36695,554.67,559.84
9.38715,548.04,560.69
9.40701,542.93,558.84
9.42624,538.05,560.40
9.44758,533.00,560.27
9.46745,529.27,559.43
9.48726,526.53,561.21
9.50629,521.27,559.32
9.52757,522.54,563.64
9.54588,520.41,560.45
9.56733,518.88,563.45
9.58612,515.96,564.46
9.60664,514.51,564.03
9.62717,514.30,564.31
9.64587,513.83,563.86
9.66645,513.81,563.96
9.68765,511.18,561.66
9.70745,510.64,561.20
9.72719,508.95,559.41
9.74724,509.54,561.46
9.76633,504.55,559.94
9.78693,494.55,559.74
9.80589,476.77,561.23
9.82630,446.68,557.28
9.84648,418.74,551.28
9.86704,386.57,545.35
9.88861,357.84,535.43
9.90829,330.02,525.50
9.92778,318.18,515.26
9.94757,314.57,508.90
9.96685,314.24,512.14
9.98798,327.25,511.57
10.00715,336.23,513.96
10.02701,351.70,518.20
10.04767,366.08,522.38
10.06856,382.23,526.04
10.08861,392.48,531.58
10.10762,408.67,534.81
10.12850,422.64,539.28
10.14661,431.95,544.44
10.16762,442.40,550.03
10.18750,453.09,551.25
10.20745,458.27,551.63
10.22844,464.74,553.88
10.24713,470.16,558.23
10.26818,474.21,558.60
10.28682,481.40,559.42
10.30711,482.01,559.61
10.32821,487.35,562.70
10.34696,489.10,563.11
10.36827,492.22,565.87
10.38799,495.94,567.89
10.40715,496.37,567.14
10.42831,498.58,566.98
10.44839,498.34,568.24
10.46708,499.60,567.39
10.48710,497.68,566.53
10.50824,501.84,566.84
10.52849,499.22,565.72
10.54732,500.04,567.33
10.56765,500.20,565.05
10.58758,503.50,564.74
10.60705,502.76,564.81
10.62783,506.33,566.64
10.64818,505.57,566.60
10.66840,506.18,563.87
10.68788,508.26,563.56
10.70826,505.79,565.26
10.72814,508.84,567.15
10.74750,506.77,566.33
10.76808,507.49,566.36
10.78698,506.59,564.93
10.80761,507.28,565.25
10.82711,504.22,564.86
10.84724,503.87,564.28
10.86682,503.02,561.83
10.88717,502.30,563.62
10.90738,502.62,566.59
10.92718,502.05,562.92
10.94760,502.05,563.41
10.96695,501.98,563.89
10.98748,501.03,563.39
11.00835,501.86,563.60
11.02747,502.84,562.06
11.04704,503.29,563.27
11.06690,505.92,561.63
11.08699,504.09,561.65
11.10757,507.49,560.27
11.12708,507.09,559.73
11.14820,507.30,562.07
11.16839,507.34,563.16
11.18712,504.72,561.21
11.20852,506.53,563.00
11.22800,506.63,560.70
11.24819,506.84,563.29
11.26676,506.37,561.91
11.28708,506.68,561.52
11.30670,504.37,562.90
11.32817,505.47,562.43
11.34846,503.85,560.71
11.36747,504.98,560.84
11.38724,505.73,561.10
11.40786,504.06,560.58
11.42706,504.94,557.62
11.44677,505.03,558.00
11.46865,503.06,560.26
11.48859,502.57,558.38
11.50809,502.87,561.31
11.52800,505.75,557.72
11.54825,501.78,557.95
11.56750,503.01,558.35
11.58831,504.62,560.71
11.60830,501.64,562.51
11.62868,503.70,561.98
11.64709,502.90,559.85
11.66831,504.49,558.37
11.68704,504.64,559.25
11.70779,505.31,559.93
11.72785,501.76,561.54
11.74798,502.32,558.89
11.76844,503.11,558.84
11.78815,504.44,562.18
11.80910,501.57,561.81
11.82861,500.85,559.48
11.84916,501.05,558.37
11.86847,500.02,559.62
11.88867,502.21,558.02
11.90844,501.05,558.04
11.92895,500.61,557.81
11.94762,502.52,560.46
11.96935,501.37,560.22
11.98937,501.15,560.52
12.00883,503.37,560.52
12.02868,502.72,558.84
12.04881,500.69,558.97
12.06778,500.74,557.33
12.08803,500.03,556.16
12.10859,504.40,556.36
12.12815,503.86,555.92
12.14832,501.33,554.79
12.16777,502.35,558.11
12.18829,502.55,558.15
12.20942,502.11,558.16
12.22844,502.89,558.28
12.25035,503.11,559.03
12.27058,502.26,558.71
12.28934,502.01,560.07
12.30874,500.86,559.09
12.32956,502.88,558.37
12.35077,504.13,560.34
12.36892,504.36,558.26
12.38910,503.22,560.09
12.40920,499.50,559.99
12.42933,499.91,560.24
12.44909,499.28,560.73
12.47025,499.68,558.03
12.48997,499.86,559.31
12.50912,499.96,559.07
12.53046,500.01,560.34
12.55034,502.35,558.65
12.56990,502.49,560.06
12.58877,500.66,561.43
12.60935,502.83,560.24
12.62989,502.69,562.50
12.65043,500.29,562.21
12.67016,502.32,561.41
12.68850,499.12,562.13
12.71078,501.33,560.73
12.73120,501.75,560.28
12.75034,502.28,558.88
12.77063,501.17,563.44
12.79148,501.56,563.72
12.81146,505.01,561.05
12.83086,504.10,563.85
12.85097,502.54,565.26
12.87104,501.30,562.31
12.89250,502.54,564.49
12.91239,503.46,561.51
12.93140,501.41,560.74
12.95124,503.01,560.03
12.97165,503.18,561.52
12.99128,500.62,563.48
13.01245,499.65,562.96
13.03060,500.32,561.08
13.05097,501.61,561.57
13.07241,501.43,561.29
13.09113,499.21,563.16
13.11170,501.59,559.19
13.13075,497.59,560.25
13.15244,497.45,562.46
13.17204,498.62,562.40
13.19244,499.79,563.07
13.21343,496.66,562.56
13.23171,498.89,560.49
13.25350,499.23,559.67
13.27160,499.50,563.01
13.29364,498.40,562.93
13.31242,496.86,562.54
13.33237,496.82,561.10
13.35209,501.46,566.32
13.37349,520.12,572.77
13.39236,544.12,586.67
13.41201,573.28,601.84
13.43180,606.37,613.20
13.45210,637.27,624.68
13.47256,660.11,624.80
13.49254,673.83,623.84
13.51363,678.93,619.75
13.53313,678.48,613.35
13.55307,675.02,602.14
13.57280,668.89,596.14
13.59314,659.80,589.18
13.61247,646.70,580.25
13.63216,634.38,576.06
13.65210,619.39,571.82
13.67283,605.73,570.15
13.69359,591.88,569.18
13.71318,579.87,566.86
13.73353,570.94,567.52
13.75280,563.54,565.40
13.77252,553.64,565.27
13.79221,548.41,565.72
13.81298,542.29,563.33
13.83176,535.48,564.30
13.85345,531.69,564.52
13.87341,524.94,563.55
13.89185,521.25,561.56
13.91188,519.09,565.06
13.93153,513.23,562.18
13.95243,510.84,564.42
13.97180,508.15,564.40
13.99241,508.48,563.75
14.01378,504.85,564.00
14.03275,504.38,563.68
14.05305,501.70,562.98
14.07392,502.96,563.85
14.09307,502.71,563.90
14.11272,498.64,563.68
14.13281,499.14,563.56
14.15321,500.53,567.36
14.17320,495.70,567.21
14.19404,488.01,570.36
14.21349,473.57,572.29
14.23271,449.80,571.80
14.25401,423.37,568.68
14.27431,393.20,556.93
14.29469,368.74,542.96
14.31357,344.59,529.96
14.33439,325.00,515.23
14.35324,309.43,506.34
14.37411,305.46,499.75
14.39411,309.61,500.56
14.41313,319.09,498.48
14.43416,333.67,502.61
14.45346,345.18,504.52
14.47398,360.29,509.57
14.49413,374.01,514.03
14.51441,389.38,518.08
14.53338,399.16,523.52
14.55328,412.21,529.68
14.57391,423.79,533.15
14.59350,430.46,536.91
14.61282,439.95,541.95
14.63274,449.78,544.62
14.65329,454.79,548.88
14.67438,462.42,550.27
14.69318,463.99,550.48
14.71428,467.61,554.86
14.73353,472.51,556.14
14.75429,476.30,554.00
14.77279,477.86,557.13
14.79287,481.43,559.09
14.81299,482.67,556.92
14.83329,487.42,557.54
14.85312,488.84,557.23
14.87246,490.64,560.88
14.89409,491.62,562.23
14.91409,492.97,559.48
14.93311,494.46,562.75
14.95342,493.31,561.75
14.97268,493.89,563.20
14.99299,495.02,562.36
15.01363,496.24,560.71
15.03464,493.37,561.13
15.05370,493.42,561.53
15.07315,496.42,562.47
15.09485,496.64,563.04
15.11424,497.06,561.51
15.13514,498.05,562.76
15.15520,499.16,560.08
15.17464,495.99,562.59
15.19488,492.89,563.14
15.21379,494.69,566.85
15.23531,492.82,566.63
15.25432,491.14,568.56
15.27430,491.24,568.47
15.29412,491.18,567.96
15.31442,492.99,566.14
15.33518,494.41,566.68
15.35369,493.82,567.99
15.37529,494.99,568.51
15.39497,494.02,568.85
15.41384,493.21,565.61
15.43400,493.00,567.11
15.45445,493.33,571.13
15.47386,494.28,570.20
15.49548,493.14,571.77
15.51433,492.28,569.14
15.53427,492.08,568.64
15.55464,491.36,567.54
15.57387,492.37,568.45
15.59422,491.38,567.97
15.61434,493.19,567.02
15.63400,494.42,567.19
15.65400,491.57,567.51
15.67477,493.26,566.96
15.69460,494.08,568.11
15.71524,492.14,564.11
15.73436,493.74,565.82
15.75546,493.29,567.64
15.77388,493.10,564.78
15.79382,494.77,566.09
15.81546,496.30,567.31
15.83473,494.93,569.30
15.85394,495.11,566.09
15.87456,492.44,565.31
15.89481,494.93,567.17
15.91413,494.11,568.16
15.93456,493.53,568.10
15.95373,493.14,569.64
15.97556,496.48,569.19
15.99376,492.72,568.83
16.01407,493.13,569.39
16.03363,492.80,566.21
16.05341,495.60,569.13
16.07474,495.39,569.60
16.09542,497.97,567.40
16.11375,494.43,569.52
16.13460,494.68,568.76
16.15476,497.69,566.63
16.17434,496.36,568.47
16.19457,494.81,570.09
16.21476,496.79,566.41
16.23528,494.03,567.03
16.25518,492.22,568.29
16.27503,494.89,564.22
16.29514,495.37,565.00
16.31378,494.00,568.81
16.33526,496.23,567.14
16.35419,493.75,567.91
16.37434,494.39,567.53
16.39534,494.87,568.71
16.41507,492.84,566.73
16.43527,493.84,565.14
16.45507,494.82,566.66
16.47409,494.43,562.86
16.49469,494.86,566.16
16.51458,495.63,566.92
16.53554,494.28,563.82
16.55428,493.48,563.44
16.57538,495.13,566.36
16.59514,496.71,568.61
16.61374,496.79,564.84
16.63448,494.66,567.71
16.65418,496.23,568.27
16.67467,495.40,567.52
16.69397,493.71,565.66
16.71536,495.25,567.71
16.73474,497.87,565.97
16.75521,499.33,565.15
16.77368,495.66,565.99
16.79460,498.23,568.42
16.81361,497.87,565.58
16.83420,496.16,566.46
16.85541,498.96,565.01
16.87513,497.52,564.24
16.89394,499.66,566.65
16.91387,495.83,568.90
16.93423,495.52,568.43
16.95413,493.20,566.73
16.97514,495.09,566.80
16.99424,495.07,566.68
17.01514,496.12,566.83
17.03494,494.92,566.29
17.05529,495.79,565.50
17.07436,498.20,568.16
17.09375,498.04,565.51
17.11447,496.33,566.57
17.13412,499.23,565.55
17.15500,499.64,566.31
17.17525,496.94,566.77
17.19456,497.43,564.82
17.21505,497.13,566.31
17.23449,495.78,565.64
17.25540,497.21,563.15
17.27486,497.02,566.46
17.29535,498.45,566.00
17.31412,498.11,565.78
17.33476,499.90,567.08
17.35507,497.33,568.50
17.37563,498.87,568.08
17.39373,499.48,565.24
17.41430,496.48,564.45
17.43366,498.18,565.98
17.45541,495.82,566.61
17.47392,498.85,567.78
17.49488,496.00,566.65
17.51407,497.84,568.15
17.53535,498.11,567.43
17.55405,499.47,567.06
17.57516,497.18,566.02
17.59372,497.76,566.55
17.61390,499.17,569.50
17.63391,496.97,571.09
17.65436,498.31,567.79
17.67430,497.93,567.62
17.69392,497.42,570.02
17.71400,498.42,569.88
17.73399,498.63,567.09
17.75537,500.14,566.01
17.77473,497.51,568.00
17.79493,499.17,567.00
17.81527,498.83,569.28
17.83413,495.13,569.41
17.85557,503.81,572.75
17.87536,527.93,579.58
17.89534,554.53,589.98
17.91508,583.80,602.14
17.93479,614.56,608.56
17.95495,638.53,612.59
17.97383,653.96,615.89
17.99544,663.36,610.30
18.01559,669.61,609.70
18.03509,665.54,603.29
18.05544,660.26,598.53
18.07369,654.25,592.04
18.09387,646.33,586.91
18.11478,633.47,584.60
18.13547,621.61,581.58
18.15553,609.19,581.23
18.17436,595.43,580.00
18.19364,586.33,577.89
18.21530,573.07,575.46
18.23497,567.81,576.19
18.25451,558.39,573.99
18.27476,549.27,573.47
18.29449,541.84,572.05
18.31353,537.77,573.71
18.33414,532.25,571.73
18.35427,526.28,571.00
18.37541,521.19,570.91
18.39452,520.72,568.95
18.41515,514.80,568.80
18.43384,515.38,569.04
18.45403,512.68,566.17
18.47519,507.24,565.99
18.49457,507.78,568.68
18.51413,505.85,569.72
18.53439,502.63,570.95
18.55355,501.89,569.91
18.57470,502.13,571.48
18.59462,503.22,571.47
18.61464,501.50,571.62
18.63401,501.57,571.93
18.65479,499.58,571.52
18.67521,503.35,571.34
18.69374,499.99,569.57
18.71467,502.31,570.30
18.73400,499.04,571.60
18.75365,495.33,569.41
18.77536,486.22,571.52
18.79383,462.10,569.07
18.81435,432.20,560.76
18.83370,401.82,547.87
18.85503,370.33,535.41
18.87454,341.95,528.54
18.89346,322.73,521.60
18.91494,315.04,518.09
18.93453,315.47,517.87
18.95476,322.01,519.10
18.97399,328.95,520.20
18.99546,341.81,526.50
19.01419,357.02,529.19
19.03493,369.29,532.04
19.05364,386.95,538.98
19.07491,397.23,540.98
19.09539,412.14,547.27
19.11394,421.05,550.49
19.13393,434.41,552.14
19.15489,440.84,554.97
19.17448,449.96,556.05
19.19496,456.72,557.77
19.21495,463.65,561.93
19.23519,467.38,563.50
19.25500,471.92,562.28
19.27406,475.84,563.62
19.29526,479.37,564.51
19.31468,481.96,567.14
19.33450,485.60,568.34
19.35437,486.92,569.10
19.37459,490.45,569.84
19.39374,489.24,570.46
19.41367,492.05,570.49
19.43413,491.78,570.23
19.45506,496.64,570.76
19.47616,498.04,573.04
19.49604,498.33,570.73
19.51464,496.96,571.65
19.53631,496.22,569.84
19.55588,498.92,570.07
19.57597,496.50,570.94
19.59500,500.71,569.07
19.61538,500.19,571.70
19.63441,500.78,568.72
19.65615,498.98,570.75
19.67459,499.93,569.34
19.69525,499.66,571.89
19.71547,501.22,570.21
19.73496,501.17,568.95
19.75431,500.40,569.36
19.77472,498.86,572.06
19.79462,501.48,572.61
19.81634,501.68,571.43
19.83685,500.71,574.12
19.85515,499.67,570.99
19.87481,500.21,571.86
19.89485,501.34,571.73
19.91577,501.24,570.83
19.93619,501.36,573.47
19.95561,502.77,570.79
19.97590,502.69,574.26
19.99544,501.47,573.84
20.01497,499.77,574.98
20.03613,501.34,572.94
20.05603,500.96,575.51
20.07703,504.44,574.85
20.09582,501.60,572.21
20.11659,501.85,571.59
20.13628,504.61,574.83
20.15723,503.73,576.50
20.17727,503.73,575.02
20.19688,504.18,575.92
20.21627,504.71,574.51
20.23606,503.25,576.43
20.25535,504.41,579.05
20.27663,502.93,577.54
20.29652,503.16,575.51
20.31731,505.23,576.56
20.33714,502.26,573.65
20.35655,502.23,574.60
20.37558,503.28,572.06
20.39605,501.40,571.18
20.41658,502.71,573.72
20.43625,501.70,573.90
20.45569,500.59,573.54
20.47693,501.33,571.95
20.49620,500.67,572.88
20.51609,501.27,573.08
20.53611,501.23,574.18
20.55659,501.48,572.53
20.57624,500.15,573.18
20.59564,503.13,572.66
20.61622,502.84,571.40
20.63675,503.74,572.84
20.65627,503.68,574.63
20.67835,504.34,572.32
20.69793,502.27,568.52
20.71814,503.86,569.67
20.73835,505.64,571.97
20.75661,501.70,571.21
20.77706,503.47,573.03
20.79777,505.75,572.45
20.81650,504.76,573.35
20.83777,507.32,573.09
20.85785,505.95,571.86
20.87654,504.04,570.46
20.89927,506.53,570.03
20.91784,503.30,568.01
20.93898,505.28,569.05
20.95763,504.72,567.07
20.97773,505.39,567.62
20.99860,504.57,565.43
21.01801,503.71,566.27
21.03870,503.26,563.85
21.05864,506.11,562.88
21.07822,503.90,563.39
21.09791,503.12,563.82
21.11764,504.93,560.83
21.13920,501.04,564.91
21.15901,501.03,563.77
21.17973,501.44,561.01
21.19882,501.52,562.55
21.22001,501.66,561.88
21.24006,505.18,561.44
21.25955,505.00,562.42
21.27997,504.08,564.62
21.29869,505.13,562.49
21.31953,506.69,564.17
21.33977,504.43,565.68
21.36034,505.81,562.40
21.37878,505.29,564.30
21.39965,507.44,562.35
21.42020,507.57,562.30
21.43834,506.37,562.63
21.46001,504.79,563.11
21.47930,507.00,562.72
21.50007,508.50,560.06
21.51864,505.54,560.15
21.53864,504.38,561.10
21.55936,508.05,561.73
21.57830,507.75,562.06
21.59954,505.24,561.55
21.61872,506.16,562.21
21.63887,508.71,559.52
21.65915,505.62,560.65
21.67896,506.55,561.00
21.69855,507.27,559.71
21.71938,505.71,559.49
21.73866,505.45,560.19
21.75903,503.67,558.99
21.78008,508.52,562.02
21.79872,526.40,568.50
21.81890,554.42,578.83
21.83850,586.60,590.06
21.85874,617.78,604.76
21.87974,642.45,616.53
21.89990,667.91,618.67
21.91910,682.30,617.98
21.93863,689.32,614.89
21.95897,687.18,604.77
21.97929,680.72,595.90
21.99952,673.80,587.83
22.01896,661.45,582.75
22.03966,648.40,575.52
22.05839,636.69,572.47
22.08041,622.36,567.20
22.09902,611.16,567.03
22.11991,596.45,565.58
22.13910,584.61,565.09
22.15937,573.73,563.27
22.17852,565.55,562.90
22.19953,555.88,561.45
22.21959,550.69,560.51
22.24009,544.15,558.08
22.25999,538.25,559.28
22.27868,533.89,560.64
22.29898,527.10,560.16
22.31869,524.68,559.33
22.33974,525.06,557.61
22.36007,522.63,558.56
22.37932,518.25,558.84
22.39874,516.71,559.56
22.42031,514.95,559.08
22.43925,514.08,559.85
22.46032,512.69,560.58
22.47963,512.55,561.20
22.49995,511.01,556.37
22.51941,510.11,559.04
22.53985,511.42,556.29
22.55959,510.66,555.01
22.57977,507.63,556.61
22.59939,507.81,555.60
22.61993,507.37,556.13
22.63907,507.05,558.15
22.66004,508.86,557.17
22.67879,496.84,555.95
22.69876,475.15,552.50
22.71917,444.12,541.63
22.73927,408.64,531.23
22.76107,370.09,514.07
22.78008,341.40,502.49
22.80147,317.70,496.29
22.81988,312.58,493.60
22.84113,314.25,491.80
22.85984,321.62,495.51
22.88082,331.00,500.22
22.89960,343.07,503.39
22.92060,356.91,509.90
22.94064,370.95,513.97
22.96104,385.83,520.80
22.98049,400.87,525.36
22.99962,410.99,530.21
23.02139,423.07,533.49
23.04044,435.37,538.83
23.06045,444.10,543.20
23.08120,453.56,545.03
23.10146,462.33,547.53
23.11949,466.23,549.48
23.14000,474.61,551.54
23.16051,478.13,554.48
23.18059,481.69,553.92
23.20054,487.51,552.62
23.22126,487.94,555.39
23.24010,489.92,557.60
23.26117,492.90,555.32
23.27971,493.50,557.53
23.30076,493.38,556.71
23.32068,497.56,556.24
23.34167,493.85,556.60
23.36088,496.57,557.45
23.38226,496.35,557.92
23.40060,497.22,557.75
23.42080,497.98,559.65
23.44058,497.97,561.09
23.46159,498.45,558.30
23.48075,497.69,559.62
23.50133,500.42,558.51
23.52151,500.72,559.58
23.54086,499.92,557.71
23.56224,500.88,559.66
23.58150,504.79,560.96
23.60170,504.82,559.15
23.62196,503.82,558.77
23.64174,505.04,557.84
23.66320,503.77,561.06
23.68134,502.20,560.25
23.70257,502.61,560.86
23.72320,502.89,562.25
23.74275,502.05,559.78
23.76230,500.79,562.08
23.78266,497.91,561.05
23.80437,500.29,562.18
23.82310,498.74,558.70
23.84384,501.36,561.12
23.86341,500.03,559.69
23.88331,500.43,558.73
23.90455,498.34,558.97
23.92351,501.60,561.89
23.94463,503.51,560.72
23.96338,502.78,561.64
23.98417,502.22,563.50
24.00415,503.05,561.74
24.02389,498.52,563.86
24.04356,501.48,560.49
24.06436,500.44,561.47
24.08470,498.45,562.14
24.10381,500.22,559.46
24.12473,502.24,562.71
24.14520,502.85,561.12
24.16560,502.57,564.13
24.18581,501.51,563.91
24.20424,503.07,564.79
24.22539,500.47,565.47
24.24451,499.91,563.23
24.26489,499.35,565.14
24.28449,501.00,565.05
24.30608,501.29,561.09
24.32526,499.06,560.17
24.34551,499.12,563.18
24.36499,495.88,561.84
24.38453,498.66,560.95
24.40534,496.92,560.82
24.42616,498.74,561.19
24.44471,499.73,562.70
24.46515,501.27,561.64
24.48453,501.58,562.45
24.50487,499.19,562.18
24.52603,500.12,561.81
24.54496,500.56,563.24
24.56583,500.69,563.91
24.58476,501.17,564.07
24.60477,500.15,563.94
24.62516,499.57,563.60
24.64631,498.85,564.19
24.66498,497.37,566.33
24.68632,499.42,564.62
24.70491,498.49,564.84
24.72641,498.47,565.53
24.74603,499.88,565.11
24.76560,501.10,565.86
24.78609,501.21,564.76
24.80438,500.02,565.89
24.82617,499.39,562.95
24.84525,498.79,563.65
24.86587,502.76,562.78
24.88545,500.80,564.53
24.90605,501.63,561.53
24.92474,500.38,561.85
24.94596,501.04,560.94
24.96549,502.35,564.01
24.98603,502.24,563.88
25.00565,499.88,563.25
25.02512,501.57,560.09
25.04639,501.86,562.35
25.06463,499.89,564.23
25.08562,502.32,562.84
25.10618,502.07,562.54
25.12601,499.94,563.48
25.14555,497.16,564.27
25.16621,498.46,565.06
25.18480,500.22,564.75
25.20475,497.25,562.38
25.22528,499.80,566.25
25.24485,498.13,563.85
25.26493,498.76,562.52
25.28630,501.07,561.70
25.30431,517.24,569.07
25.32575,540.65,579.62
25.34463,572.56,599.10
25.36540,602.19,616.59
25.38572,633.65,626.86
25.40679,658.82,627.83
25.42642,672.13,627.06
25.44617,680.48,619.40
25.46684,684.26,610.96
25.48590,680.76,602.02
25.50610,673.70,593.10
25.52718,661.42,583.41
25.54727,649.59,575.04
25.56671,635.66,566.07
25.58542,623.41,565.29
25.60551,608.50,559.87
25.62572,597.33,557.58
25.64538,587.26,560.20
25.66658,575.44,556.99
25.68691,565.71,559.03
25.70695,555.41,558.72
25.72601,548.78,558.88
25.74605,542.26,560.65
25.76682,533.50,559.95
25.78722,528.43,562.00
25.80708,525.46,561.11
25.82730,523.89,561.09
25.84737,519.25,561.63
25.86765,516.79,562.74
25.88801,514.19,564.66
25.90699,513.34,563.21
25.92663,510.16,565.12
25.94713,508.18,565.61
25.96839,507.53,563.24
25.98662,503.05,564.41
26.00744,503.93,563.07
26.02802,504.45,565.03
26.04633,500.26,564.24
26.06837,504.00,564.79
26.08863,501.62,568.47
26.10794,503.72,568.05
26.12828,501.60,569.06
26.14816,500.87,568.84
26.16761,494.41,568.87
26.18869,492.80,571.16
26.20900,489.14,571.68
26.22780,486.64,574.32
26.24762,478.78,576.29
26.26927,467.32,578.80
26.28858,449.71,579.23
26.30975,424.98,575.31
26.33035,400.02,568.72
26.35010,378.00,558.72
26.36958,355.43,546.88
26.38911,335.49,537.40
26.40878,322.81,527.98
26.42898,313.91,518.77
26.45010,313.36,516.89
26.47038,322.26,515.23
26.48845,330.91,515.85
26.50896,342.88,518.11
26.52963,358.92,522.88
26.54882,370.58,528.28
26.56916,387.02,532.72
26.58831,398.22,536.88
26.61033,412.02,539.63
26.63001,421.07,545.69
26.64869,430.13,547.26
26.66997,440.90,552.79
26.68842,448.91,555.20
26.71022,454.94,556.50
26.73027,460.92,557.29
26.74864,465.82,556.49
26.76957,469.82,559.83
26.78840,475.48,559.53
26.81000,477.94,561.57
26.82909,482.40,561.11
26.84933,483.94,563.79
26.86904,485.58,563.64
26.88860,486.43,562.25
26.90960,489.59,561.48
26.92967,493.03,564.86
26.95004,495.92,564.96
26.96860,498.14,563.62
26.98888,497.41,565.71
27.00956,498.49,566.56
27.02976,499.34,565.54
27.04946,497.15,568.71
27.06859,497.58,569.78
27.08873,497.18,566.44
27.10855,496.71,569.51
27.12932,498.29,568.40
27.14916,497.12,572.86
27.17005,501.60,571.49
27.18873,499.21,574.25
27.20912,502.78,572.49
27.22933,502.09,572.16
27.24898,502.58,575.09
27.26997,501.67,575.24
27.28972,500.31,574.25
27.31009,500.44,575.45
27.32838,500.88,575.37
27.35032,501.92,575.56
27.36975,500.80,575.95
27.38955,500.52,578.62
27.40910,502.13,577.07
27.42872,500.16,575.82
27.44917,499.76,575.18
27.46932,500.67,574.22
27.48939,498.84,575.71
27.51017,501.24,573.89
27.52993,501.69,573.74
27.54989,498.91,572.31
27.56938,498.04,574.39
27.59039,496.23,573.58
27.60935,499.45,572.19
27.62858,497.17,571.50
27.64850,497.48,568.48
27.66853,497.40,570.74
27.68906,498.35,568.91
27.71005,496.98,571.49
27.73025,498.62,570.57
27.74978,500.49,569.92
27.76873,499.65,570.11
27.78950,501.18,571.04
27.81003,502.58,569.60
27.82929,499.47,569.73
27.84854,501.84,569.33
27.86985,500.81,570.94
27.88883,499.66,570.54
27.90883,499.79,567.84
27.93001,502.12,570.22
27.94966,500.21,568.68
27.96992,501.73,569.20
27.98858,502.48,569.81
28.00966,499.83,572.34
28.03045,498.73,571.84
28.04947,500.09,570.01
28.07037,498.23,570.04
28.09013,498.36,572.27
28.10883,501.00,569.23
28.12849,502.01,570.01
28.15023,499.49,570.24
28.17006,499.72,569.58
28.19004,500.38,572.23
28.21004,503.41,568.83
28.23001,502.74,571.16
28.29097,502.98,572.22
28.29038,500.96,572.05
28.28990,502.93,573.93
28.30911,502.24,572.09
28.32856,500.67,573.80
28.34968,500.44,572.75
28.36998,500.86,573.30
28.38975,501.09,572.01
28.41028,500.34,569.98
28.42937,498.74,570.07
28.44937,501.38,568.29
28.47214,503.14,565.79
28.49163,501.61,565.84
28.51130,503.18,563.59
28.53216,504.99,565.02
28.55210,503.12,565.05
28.57108,500.81,565.22
28.59169,503.44,564.02
28.61181,501.27,566.54
28.63177,499.35,564.25
28.65062,501.01,564.11
28.67226,501.54,565.85
28.69052,499.52,564.54
28.71043,499.13,565.71
28.73176,503.04,567.01
28.75129,498.79,563.33
28.77144,498.83,564.54
28.79034,501.03,565.03
28.81162,499.95,562.75
28.83049,499.24,566.73
28.85121,501.57,565.20
28.87059,503.09,566.51
28.89158,498.98,564.03
28.91165,503.79,566.23
28.93167,502.80,563.89
28.95057,504.54,561.37
28.97102,501.32,563.04
28.99133,502.20,557.77
29.01077,503.51,557.62
29.03222,501.95,557.28
29.05170,501.93,560.87
29.07185,498.55,559.95
29.09069,499.62,560.61
29.11212,497.66,561.68
29.13235,507.48,566.16
29.15147,527.46,575.62
29.17246,553.93,588.55
29.19169,588.28,606.50
29.21085,618.77,618.45
29.23213,643.28,630.45
29.25151,665.10,635.02
29.27100,679.67,632.04
29.29128,689.68,628.12
29.31179,688.11,622.54
29.33035,685.32,613.31
29.35115,682.49,605.94
29.37198,671.83,596.79
29.39168,658.30,590.71
29.41116,644.74,583.80
29.43191,634.09,578.13
29.45113,619.92,573.44
29.47219,605.74,572.40
29.49200,592.99,570.93
29.51065,582.03,571.00
29.53054,572.60,566.33
29.55107,561.22,566.39
29.57052,551.84,566.92
29.59177,547.37,566.35
29.61182,542.04,567.81
29.63121,537.60,568.01
29.65145,531.28,565.12
29.67218,530.44,566.69
29.69127,524.46,562.64
29.71141,523.32,562.45
29.73184,521.59,563.88
29.75138,520.34,564.86
29.77133,517.09,564.90
29.79079,514.21,565.35
29.81076,513.87,563.44
29.83175,510.62,563.73
29.85298,511.75,562.85
29.87174,510.17,561.58
29.89267,507.36,563.11
29.91221,506.46,561.63
29.93165,507.54,563.32
29.95196,507.05,563.62
29.97133,504.68,560.08
29.99262,498.09,561.77
30.01189,485.81,558.86
30.03256,465.83,554.78
30.05213,437.01,545.46
30.07170,409.14,533.63
30.09258,379.33,526.37
30.11148,350.90,512.95
30.13324,326.51,500.79
30.15299,316.81,494.01
30.17192,312.12,488.38
30.19250,319.27,489.18
30.21248,326.18,493.71
30.23298,339.18,498.21
30.25417,356.88,501.07
30.27352,370.61,508.15
30.29270,383.85,513.25
30.31292,394.89,518.46
30.33339,408.00,527.08
30.35261,421.06,532.22
30.37292,431.74,536.79
30.39394,443.82,540.04
30.41371,452.33,541.06
30.43337,460.00,543.74
30.45370,465.44,543.52
30.47357,469.43,544.94
30.49399,476.51,545.47
30.51254,481.71,546.46
30.53310,483.79,548.10
30.55305,488.20,549.85
30.57296,491.05,550.81
30.59350,492.09,551.74
30.61309,491.81,551.54
30.63338,497.12,553.44
30.65382,495.45,552.47
30.67228,499.36,550.93
30.69239,498.98,554.79
30.71368,497.79,551.69
30.73353,500.65,554.26
30.75409,501.82,552.81
30.77308,501.28,552.79
30.79380,501.42,553.27
30.81242,502.37,553.69
30.83308,501.55,553.53
30.85363,502.56,551.82
30.87284,504.03,554.90
30.89363,501.95,551.80
30.91375,501.65,552.28
30.93370,503.74,553.59
30.95321,504.98,552.76
30.97309,505.65,553.70
30.99214,505.98,552.30
31.01322,501.93,554.73
31.03397,504.50,553.78
31.05306,504.18,556.58
31.07356,504.96,559.46
31.09348,507.04,559.67
31.11394,503.97,555.78
31.13306,506.13,557.76
31.15326,506.29,558.73
31.17345,504.96,555.10
31.19408,503.50,557.08
31.21414,503.09,558.34
31.23326,504.09,559.19
31.25350,505.01,557.72
31.27359,505.59,557.15
31.29308,502.58,556.27
31.31373,504.06,557.91
31.33249,502.68,557.62
31.35279,503.80,557.11
31.37218,506.24,556.93
31.39287,506.52,558.02
31.41223,505.32,556.25
31.43285,506.34,555.31
31.45362,504.59,556.17
31.47214,504.89,555.99
31.49231,507.74,555.88
31.51350,505.40,557.11
31.53287,506.55,556.79
31.55232,504.06,560.04
31.57371,507.74,557.16
31.59339,505.90,559.26
31.61353,506.58,557.92
31.63354,506.24,558.96
31.65269,509.03,560.08
31.67275,504.12,560.28
31.69331,506.37,558.83
31.71258,507.53,561.06
31.73299,503.34,558.52
31.75350,502.57,559.40
31.77298,505.17,562.31
31.79366,504.62,560.67
31.81355,503.06,560.30
31.83305,504.81,558.51
31.85366,505.29,558.10
31.87388,504.33,557.96
31.89236,504.15,558.68
31.91407,503.69,557.04
31.93389,501.28,555.85
31.95394,503.92,557.83
31.97346,502.68,557.81
31.99396,503.75,555.65
32.01291,501.52,554.59
32.03312,500.45,554.94
32.05394,502.00,553.91
32.07297,503.78,555.04
32.09324,502.83,555.01
32.11346,500.53,554.43
32.13381,501.21,554.30
32.15306,500.08,557.12
32.17342,500.61,558.01
32.19233,504.42,559.09
32.21240,502.05,556.51
32.23301,504.58,558.29
32.25324,501.90,555.80
32.27220,502.42,557.38
32.29290,504.18,558.61
32.31379,502.92,560.59
32.33378,501.13,560.01
32.35246,502.20,560.17
32.37364,502.09,560.51
32.39415,502.42,560.22
32.41261,501.25,562.05
32.43286,503.06,561.56
32.45234,504.34,559.33
32.47362,503.61,560.54
32.49319,503.19,560.03
32.51409,502.57,558.04
32.53346,504.23,559.51
32.55311,506.53,560.40
32.57261,506.19,561.08
32.59283,507.69,560.18
32.61399,506.78,559.02
32.63313,507.90,557.20
32.65303,505.71,560.94
32.67366,506.81,560.66
32.69311,514.12,565.90
32.71250,532.92,577.85
32.73317,561.80,591.96
32.75380,593.17,610.19
32.77212,623.15,622.80
32.79413,648.31,627.35
32.81210,665.94,631.60
32.83310,679.00,629.48
32.85225,685.24,620.22
32.87340,680.95,612.96
32.89247,677.70,602.25
32.91293,668.03,594.32
32.93248,658.49,582.62
32.95320,645.46,575.06
32.97287,630.13,569.79
32.99244,619.45,566.94
33.01343,605.04,561.17
33.03336,594.41,561.81
33.05361,583.26,558.83
33.07264,569.20,556.72
33.09392,562.71,555.59
33.11269,553.05,554.46
33.13252,543.95,554.15
33.15338,540.51,556.41
33.17231,533.05,555.56
33.19250,530.03,556.18
33.21306,523.92,556.10
33.23340,520.22,556.52
33.25402,519.46,558.29
33.27390,514.13,558.93
33.29313,513.86,559.32
33.31325,515.32,560.28
33.33249,512.85,561.81
33.35258,508.58,559.71
33.37394,508.50,562.01
33.39278,509.44,560.85
33.41268,509.60,559.63
33.43408,507.60,559.44
33.45225,506.25,558.54
33.47355,506.43,561.53
33.49418,507.31,558.30
33.51254,505.10,560.49
33.53323,505.50,559.70
33.55301,505.97,557.43
33.57389,506.93,556.44
33.59256,506.67,558.32
33.61287,505.88,557.58
33.63389,504.44,558.07
33.65220,503.32,562.59
33.67204,506.36,560.20
33.69262,502.51,563.23
33.71279,501.83,561.28
33.73340,501.84,554.97
33.75417,501.39,553.01
33.77347,500.61,554.40
33.79273,501.07,552.78
33.81250,502.42,553.14
33.83246,501.28,549.97
33.85255,502.82,550.50
33.87201,500.41,548.94
33.89421,496.32,548.08
33.91433,481.25,548.13
33.93321,459.03,540.99
33.95425,436.22,535.61
33.97368,409.80,528.93
33.99405,383.84,525.19
34.01422,361.00,520.54
34.03503,343.02,510.97
34.05382,328.99,507.96
34.07488,323.19,510.13
34.09487,326.47,510.37
34.11345,330.90,512.09
34.13370,342.44,515.10
34.15425,354.36,519.87
34.17423,367.27,520.87
34.19491,382.94,527.15
34.21340,393.63,530.63
34.23470,405.43,535.49
34.25354,417.92,539.17
34.27370,429.52,540.24
34.29348,437.51,543.24
34.31379,445.25,546.01
34.33427,455.66,548.47
34.35492,461.28,551.70
34.37475,467.31,556.30
34.39432,473.16,555.25
34.41338,474.78,557.68
34.43360,480.33,559.29
34.45368,485.30,560.54
34.47304,486.65,559.86
34.49441,484.53,562.64
34.51612,487.97,562.28
34.53469,491.96,564.58
34.55435,493.49,561.96
34.57567,492.48,562.44
34.59526,494.56,563.60
34.61501,495.80,561.68
34.63527,497.87,563.61
34.65580,499.11,561.21
34.67436,499.34,562.34
34.69565,499.09,563.07
34.71608,500.88,563.58
34.73500,500.32,564.05
34.75447,501.00,563.76
34.77513,498.84,561.92
34.79427,496.11,565.39
34.81442,498.67,562.68
34.83421,496.73,563.68
34.85430,495.56,564.37
34.87448,497.63,564.95
34.89456,503.33,566.83
34.91416,505.87,565.68
34.93564,507.81,568.58
34.95504,510.56,565.46
34.97579,510.16,563.85
34.99492,511.72,567.38
35.01511,512.60,566.86
35.03559,511.50,565.97
35.05504,511.50,566.01
35.07434,508.69,564.99
35.09497,507.68,563.20
35.11704,506.16,567.03
35.13565,504.02,563.78
35.15564,502.75,564.44
35.17800,504.69,563.34
35.19647,503.88,564.60
35.21777,502.98,563.40
35.23797,500.49,563.07
35.25655,499.10,566.66
35.27617,498.41,564.40
35.29730,497.86,566.68
35.31628,497.29,564.22
35.33617,497.47,567.86
35.35725,497.41,568.25
35.37691,498.20,565.64
35.39783,498.28,565.71
35.41737,497.24,566.63
35.43778,499.50,564.63
35.45680,496.75,564.58
35.47720,497.50,566.73
35.49790,498.42,566.31
35.51729,496.99,565.72
35.53732,496.26,565.54
35.55717,496.29,565.30
35.57633,495.81,566.51
35.59735,497.56,566.64
35.61735,496.03,569.47
35.63827,495.41,567.71
35.65768,497.82,566.84
35.67732,495.79,568.23
35.69760,497.41,567.96
35.71895,495.82,566.46
35.73787,496.46,569.24
35.75872,497.70,568.25
35.77791,495.61,567.79
35.79870,495.37,565.84
35.81780,495.31,565.26
35.83725,495.14,567.63
35.85853,496.01,566.83
35.87876,495.04,566.66
35.89761,496.16,567.06
35.91804,493.79,567.88
35.93802,497.26,567.21
35.95729,497.19,566.31
35.97807,494.71,565.28
35.99743,497.47,566.24
36.01826,495.27,564.14
36.03859,496.63,564.98
36.05858,496.82,565.47
36.07818,493.35,566.32
36.09908,497.29,567.47
36.11767,495.43,566.79
36.13901,494.65,565.85
36.15794,496.06,566.31
36.17713,493.55,567.34
36.19711,494.71,566.70
36.21728,493.77,568.70
36.23849,495.72,567.99
36.25889,494.37,565.41
36.27855,495.36,567.64
36.29766,495.52,565.85
36.31720,494.27,566.44
36.33723,494.40,566.91
36.35765,496.18,567.18
36.37764,494.99,569.16
36.39848,492.33,565.41
36.41845,492.89,565.67
36.43771,504.88,570.90
36.45736,531.46,581.64
36.47801,560.74,597.04
36.49895,597.22,608.05
36.51869,626.57,611.86
36.53784,649.44,615.09
36.55880,661.96,615.96
36.57884,668.23,612.10
36.59799,671.60,609.03
36.61822,669.37,599.94
36.63745,659.85,596.93
36.65899,652.94,592.72
36.67797,640.53,586.21
36.69862,627.68,586.70
36.71879,614.42,582.71
36.73784,604.20,581.61
36.75893,589.80,576.96
36.77838,578.89,576.23
36.79785,571.76,573.37
36.81769,559.58,573.94
36.83789,552.80,574.17
36.85741,542.79,572.21
36.87817,538.18,570.63
36.89857,533.14,569.38
36.91809,524.30,570.31
36.93860,522.43,568.41
36.95776,519.39,568.75
36.97804,516.98,571.69
36.99779,511.12,569.04
37.01836,512.38,571.34
37.03824,507.54,571.15
37.05691,507.01,569.80
37.07745,505.19,569.14
37.09781,507.81,571.11
37.11876,505.89,569.53
37.13771,503.44,571.46
37.15899,501.47,572.40
37.17850,501.20,572.47
37.19821,502.93,568.96
37.21733,497.96,572.60
37.23845,498.54,571.25
37.25888,493.23,576.48
37.27777,481.21,582.92
37.29788,467.77,588.10
37.31779,451.10,598.97
37.33866,434.38,605.16
37.35769,420.55,606.49
37.37791,398.60,594.85
37.39914,377.44,579.96
37.42004,351.23,557.97
37.43985,333.87,535.78
37.45970,324.97,519.98
37.48113,323.15,508.92
37.49978,326.54,499.96
37.51989,334.48,499.76
37.53996,345.25,499.74
37.56078,359.86,502.30
37.58103,372.11,506.59
37.60052,385.12,512.15
37.62096,399.56,516.71
37.64030,411.78,519.58
37.65996,421.47,524.61
37.67941,430.86,528.51
37.69915,440.50,534.36
37.72069,448.27,536.92
37.74031,456.96,543.14
37.75960,463.40,545.62
37.77947,465.95,549.12
37.79920,473.44,552.26
37.81998,477.66,554.85
37.83956,477.92,556.77
37.85961,482.49,557.19
37.87943,484.27,561.87
37.89942,485.24,559.87
37.91935,489.80,564.01
37.94009,492.38,562.54
37.96016,491.84,564.42
37.97931,492.98,567.09
37.99936,494.11,569.08
38.01912,494.22,569.81
38.03975,498.01,569.43
38.06084,496.76,568.32
38.08053,497.49,571.37
38.10033,496.69,570.39
38.12031,495.68,570.46
38.13962,498.57,568.09
38.16075,498.22,568.28
38.18083,496.44,569.34
38.20086,498.47,572.11
38.21990,497.29,571.59
38.24024,498.98,571.02
38.26030,500.80,573.51
38.27950,501.76,573.04
38.29992,499.78,574.42
38.31951,499.96,570.51
38.34043,501.66,573.11
38.35925,500.34,571.18
38.38008,503.49,569.08
38.40001,503.38,571.54
38.41934,502.10,571.82
38.44015,499.44,570.56
38.45971,499.47,571.06
38.48057,502.30,574.08
38.50059,501.05,572.44
38.52074,503.26,573.22
38.54028,502.01,573.05
38.55907,501.29,573.85
38.57910,501.04,573.70
38.59957,500.86,574.40
38.61978,500.35,570.36
38.63963,501.74,570.15
38.66051,501.11,574.00
38.68053,501.12,574.19
38.70079,499.92,576.10
38.72030,499.26,575.70
38.73915,499.80,572.63
38.76043,500.24,572.69
38.78086,497.44,572.96
38.80072,497.70,570.56
38.81947,498.86,571.19
38.83991,499.39,573.65
38.86011,500.35,570.09
38.87976,498.72,571.18
38.90006,500.28,571.19
38.92084,501.84,572.31
38.93995,502.60,571.62
38.95926,501.01,571.64
38.98113,502.63,569.90
38.99937,500.42,570.24
39.01987,499.47,570.74
39.03973,501.96,570.06
39.06090,501.42,570.37
39.07990,501.76,569.31
39.10028,500.54,569.11
39.11901,500.31,569.99
39.14017,500.60,568.32
39.15992,504.14,570.69
39.18010,502.17,571.27
39.19959,502.09,569.57
39.22089,502.89,568.45
39.24014,501.35,569.43
39.26063,500.39,572.32
39.27975,502.59,571.53
39.30045,501.34,569.13
39.31954,500.76,569.80
39.33996,500.50,571.33
39.36022,504.85,570.14
39.37934,503.87,570.46
39.39971,502.28,570.45
39.41974,501.69,570.63
39.43938,503.34,570.82
39.46062,504.51,569.42
39.48122,501.69,568.34
39.50114,502.68,569.51
39.52068,501.60,568.50
39.54100,501.90,569.36
39.56110,500.04,565.31
39.58119,502.83,568.83
39.60178,501.91,567.53
39.62198,502.56,569.26
39.64015,504.23,569.04
39.66103,501.59,568.01
39.68035,502.34,567.74
39.70120,503.39,568.28
39.72176,501.59,566.71
39.74013,501.40,565.41
39.76200,500.27,565.47
39.78091,503.05,569.13
39.80009,503.03,567.60
39.82080,502.23,568.33
39.84162,501.13,569.69
39.86153,503.51,566.54
39.88249,500.77,566.84
39.90458,502.10,565.08
39.92127,502.50,567.02
39.94191,501.03,563.76
39.96287,506.21,564.66
39.98247,520.56,572.69
40.00284,540.68,581.85
40.02090,572.43,594.82
40.04092,606.06,608.46
40.06169,633.69,618.02
40.08111,659.27,621.64
40.10181,678.45,621.07
40.12136,685.60,619.63
40.14172,686.90,613.73
40.16168,683.36,607.75
40.18098,677.12,599.95
40.20366,666.19,594.04
40.22200,652.08,587.27
40.24287,639.86,581.74
40.26324,628.24,578.37
40.28215,616.97,573.93
40.30366,604.11,567.47
40.32235,592.65,565.56
40.34299,581.63,565.25
40.36379,572.24,566.12
40.38222,562.83,563.50
40.40335,555.28,562.51
40.42248,549.37,564.59
40.44280,541.18,562.82
40.46208,540.07,562.24
40.48244,535.98,563.52
40.50350,529.11,563.95
40.52322,526.94,563.14
40.54376,522.91,562.78
40.56508,521.30,562.51
40.58495,520.88,563.85
40.60502,519.49,563.91
40.62302,515.47,560.92
40.64398,515.63,559.19
40.66425,512.08,559.83
40.68444,512.78,562.04
40.70395,511.81,560.82
40.72383,512.35,560.00
40.74465,510.79,561.55
40.76329,509.72,560.66
40.78334,509.89,562.32
40.80498,508.61,559.90
40.82460,505.36,562.34
40.84449,508.38,562.45
40.86326,507.83,561.56
40.88482,503.18,566.54
40.90498,499.61,573.25
40.92309,488.19,582.89
40.94398,470.32,587.12
40.96488,442.77,587.59
40.98491,415.91,572.73
41.00389,385.76,552.27
41.02401,361.76,533.34
41.04314,335.12,514.29
41.06458,322.19,501.66
41.08363,318.69,492.48
41.10452,319.93,489.50
41.12460,331.71,484.06
41.14444,342.22,485.66
41.16495,355.19,488.73
41.18457,371.30,490.91
41.20484,384.56,493.35
41.22495,398.21,501.13
41.24349,409.91,507.02
41.26412,419.75,511.00
41.28458,430.45,516.98
41.30493,442.00,521.07
41.32301,449.08,523.89
41.34404,458.08,529.73
41.36321,463.19,531.21
41.38417,468.85,536.26
41.40377,472.64,536.20
41.42326,479.42,539.63
41.44380,478.63,542.36
41.46312,483.15,543.47
41.48500,488.07,544.90
41.50487,486.81,546.16
41.52374,489.93,549.29
41.54379,490.85,547.52
41.56423,494.81,549.95
41.58499,494.80,552.42
41.60404,496.07,552.22
41.62424,498.36,553.70
41.64419,495.71,554.97
41.66464,498.92,553.91
41.68380,499.91,556.99
41.70489,501.21,558.14
41.72303,499.38,557.81
41.74485,499.28,558.47
41.76428,498.93,557.38
41.78409,499.22,558.28
41.80389,500.32,559.36
41.82289,503.24,558.26
41.84385,504.55,555.91
41.86408,505.24,558.37
41.88305,503.91,556.39
41.90420,502.68,558.82
41.92419,501.01,558.53
41.94476,500.80,558.46
41.96408,502.55,559.48
41.98393,500.74,555.97
42.00361,503.44,558.97
42.02380,501.00,556.70
42.04341,501.17,559.83
42.06410,501.99,556.85
42.08407,502.60,558.91
42.10458,503.47,559.21
42.12351,503.51,557.27
42.14333,503.81,559.43
42.16328,503.35,558.80
42.18430,502.57,560.27
42.20444,502.88,557.54
42.22331,504.60,557.16
42.24302,502.63,554.40
42.26488,503.94,555.63
42.28467,504.48,557.18
42.30453,504.89,559.35
42.32343,504.24,559.22
42.34411,502.84,560.82
42.36390,503.30,562.19
42.38420,500.83,561.26
42.40438,503.15,559.49
42.42449,502.52,559.86
42.44471,501.80,557.96
42.46479,502.84,559.24
42.48351,504.57,557.24
42.50298,502.69,555.22
42.52430,503.31,556.97
42.54315,504.53,557.42
42.56397,505.52,555.76
42.58382,504.36,558.19
42.60428,505.63,557.46
42.62398,504.54,557.29
42.64483,504.34,557.98
42.66381,501.93,558.65
42.68423,501.85,558.40
42.70307,504.85,555.76
42.72488,501.52,557.46
42.74330,503.32,557.27
42.76423,503.88,557.02
42.78481,505.09,558.47
42.80401,504.26,556.46
42.82415,503.62,555.29
42.84489,505.63,557.05
42.86415,504.12,555.72
42.88486,503.71,558.89
42.90343,504.91,558.93
42.92297,504.59,561.10
42.94463,502.89,558.37
42.96475,500.42,560.70
42.98389,503.46,560.52
43.00429,503.48,561.29
43.02324,503.48,558.97
43.04359,503.32,557.45
43.06495,502.75,558.19
43.08456,503.51,561.16
43.10291,502.97,557.91
43.12415,505.21,559.41
43.14314,503.37,558.75
43.16463,505.40,558.45
43.18413,503.68,557.39
43.20429,504.75,556.86
43.22397,505.04,557.24
43.24443,505.25,559.47
43.26383,504.60,560.27
43.28352,504.77,558.62
43.30334,505.66,558.50
43.32352,503.96,559.59
43.34311,505.71,560.04
43.36356,502.40,559.17
43.38347,504.16,559.06
43.40426,505.80,558.81
43.42364,506.82,556.77
43.44490,506.46,555.30
43.46483,504.67,555.84
43.48420,507.66,555.25
43.50435,507.35,556.60
43.52375,505.78,557.44
43.54390,504.52,556.38
43.56488,503.67,557.79
43.58346,504.78,557.40
43.60346,503.26,558.32
43.62376,504.05,558.72
43.64456,502.78,559.91
43.66437,504.76,560.30
43.68333,503.83,557.76
43.70349,503.69,560.32
43.72423,502.98,559.41
43.74321,503.01,555.92
43.76402,507.70,556.22
43.78401,519.83,561.98
43.80464,543.70,576.83
43.82475,567.26,590.12
43.84312,596.01,600.84
43.86343,622.01,607.31
43.88373,644.45,612.68
43.90378,656.79,616.10
43.92398,663.31,611.30
43.94363,670.07,607.10
43.96441,669.26,604.30
43.98482,663.98,596.79
44.00409,654.29,590.99
44.02432,647.34,582.70
44.04477,633.63,578.52
44.06336,624.63,572.62
44.08344,613.27,571.32
44.10360,601.62,567.46
44.12317,589.93,565.78
44.14329,581.34,564.84
44.16331,574.61,562.77
44.18365,565.80,561.61
44.20389,556.71,564.54
44.22419,548.29,562.64
44.24336,542.64,562.43
44.26308,538.99,563.20
44.28429,533.10,562.79
44.30479,527.04,561.90
44.32392,525.67,561.25
44.34355,522.39,560.11
44.36403,518.77,559.85
44.38332,514.42,559.32
44.40395,513.36,558.88
44.42318,513.30,559.45
44.44323,512.21,559.87
44.46438,513.24,562.06
44.48370,509.84,559.38
44.50326,509.98,561.10
44.52335,507.78,557.58
44.54386,509.87,557.65
44.56404,508.68,559.39
44.58320,507.14,559.67
44.60366,508.54,558.75
44.62377,509.46,559.89
44.64356,505.86,560.84
44.66308,506.44,562.28
44.68308,507.40,561.65
44.70374,504.50,557.44
44.72442,506.85,560.49
44.74316,504.01,560.18
44.76368,503.66,559.35
44.78284,502.69,560.38
44.80346,500.98,559.03
44.82340,494.70,560.18
44.84490,483.53,559.11
44.86466,467.60,553.43
44.88468,443.92,548.62
44.90474,419.62,545.51
44.92330,397.25,536.54
44.94486,372.14,529.84
44.96303,353.57,522.02
44.98458,340.01,515.65
45.00434,328.81,511.20
45.02459,325.15,508.37
45.04410,329.25,511.69
45.06311,338.26,514.61
45.08455,352.26,517.02
45.10499,365.08,518.89
45.12307,379.07,524.17
45.14456,393.15,532.29
45.16416,405.86,534.81
45.18296,416.93,536.11
45.20328,430.40,541.13
45.22359,439.46,541.55
45.24353,448.54,543.14
45.26360,453.83,546.55
45.28431,462.53,545.16
45.30404,467.11,549.80
45.32397,474.08,551.33
45.34385,476.18,550.03
45.36358,478.79,549.85
45.38310,481.25,553.76
45.40470,485.21,552.32
45.42464,491.30,556.69
45.44332,491.23,557.30
45.46392,491.61,555.97
45.48415,495.55,557.91
45.50332,496.54,557.31
45.52357,499.02,557.30
45.54490,499.25,558.34
45.56346,498.92,559.15
45.58499,498.29,558.00
45.60398,499.24,560.25
45.62311,499.55,560.01
45.64369,501.48,557.91
45.66457,500.69,560.94
45.68314,500.88,560.43
45.70339,499.60,558.30
45.72453,500.26,559.84
45.74423,498.84,560.82
45.76454,501.78,557.43
45.78381,503.27,560.94
45.80453,500.62,560.33
45.82444,500.07,559.52
45.84301,498.85,558.46
45.86442,502.07,561.36
45.88352,500.09,561.11
45.90321,503.72,558.87
45.92411,502.16,557.57
45.94377,503.05,556.13
45.96384,500.86,558.00
45.98428,501.80,556.03
46.00422,504.12,555.56
46.02388,501.66,556.47
46.04405,504.24,556.77
46.06397,501.73,555.11
46.08320,501.85,555.60
46.10435,502.56,556.20
46.12441,503.78,555.75
46.14480,503.10,557.28
46.16340,499.75,554.38
46.18386,502.72,555.99
46.20403,502.11,554.38
46.22420,502.87,553.61
46.24316,500.50,553.63
46.26464,504.36,555.81
46.28466,503.69,553.45
46.30493,505.69,555.29
46.32286,504.03,555.20
46.34466,503.18,557.36
46.36331,501.71,557.65
46.38384,503.54,556.55
46.40291,503.20,556.54
46.42374,501.98,556.78
46.44322,500.78,559.15
46.46285,500.31,557.29
46.48391,500.59,559.62
46.50394,500.99,556.99
46.52478,500.86,560.98
46.54315,502.79,562.92
46.56440,505.67,572.83
46.58409,507.60,583.22
46.60292,512.96,596.95
46.62384,517.99,611.49
46.64379,525.60,626.51
46.66473,528.81,643.09
46.68440,534.01,653.94
46.70373,534.19,665.47
46.72352,536.55,673.08
46.74428,536.96,680.08
46.76315,537.57,683.07
46.78465,540.14,687.81
46.80369,538.62,684.86
46.82461,537.62,685.61
46.84479,537.59,680.24
46.86310,538.77,674.18
46.88311,539.34,669.89
46.90432,537.46,661.23
46.92375,535.20,655.78
46.94408,531.09,650.14
46.96370,533.10,643.92
46.98420,528.28,636.52
47.00495,529.23,630.99
47.02551,529.73,623.71
47.04513,528.67,621.35
47.06455,529.11,614.54
47.08462,532.48,611.91
47.10497,535.10,606.29
47.12411,533.96,603.25
47.14497,531.49,601.78
47.16463,529.42,597.38
47.18452,524.74,599.49
47.20511,516.24,596.20
47.22427,510.25,594.74
