Program Time [s],data 0,data 1
4.03960,404.13,468.22
4.05856,401.65,467.89
4.07837,401.87,467.64
4.09785,403.92,467.18
4.11869,404.35,469.79
4.13867,401.50,467.37
4.15893,401.65,469.71
4.17942,403.80,467.16
4.19921,403.99,467.63
4.21834,406.86,466.49
4.23938,406.68,470.04
4.25980,406.14,470.18
4.27853,404.76,470.25
4.29808,407.50,467.20
4.31957,406.77,467.41
4.33839,405.66,469.26
4.35816,405.09,465.88
4.37941,402.17,468.39
4.39810,400.97,468.30
4.41947,405.24,464.96
4.43875,403.54,466.46
4.45902,402.20,468.29
4.47787,403.36,464.90
4.49907,405.54,463.76
4.51856,404.06,463.86
4.54152,403.55,466.84
4.56143,403.64,467.20
4.57983,402.40,464.93
4.59969,401.95,464.47
4.62206,401.64,464.02
4.64226,401.16,464.23
4.66236,403.78,466.48
4.68307,402.28,464.06
4.70202,400.71,464.07
4.72364,399.08,462.49
4.74309,401.28,464.09
4.76224,403.24,466.41
4.78212,400.61,463.28
4.80230,400.04,465.76
4.82320,397.77,465.61
4.84264,398.43,467.27
4.86198,399.99,463.03
4.88269,400.65,462.55
4.90337,402.39,471.20
4.92302,404.67,487.44
4.94355,410.79,505.36
4.96341,409.68,512.10
4.98340,409.78,512.18
5.00304,411.17,508.42
5.02364,408.45,505.61
5.04271,407.53,502.44
5.06426,406.73,496.03
5.08401,405.85,493.94
5.10434,406.51,490.20
5.12429,404.78,485.70
5.14301,404.64,481.88
5.16431,403.95,481.93
5.18272,401.37,478.92
5.20362,401.38,475.42
5.22424,399.37,474.80
5.24446,399.66,473.86
5.26392,397.84,474.23
5.28415,397.78,473.73
5.30262,396.54,472.21
5.32286,400.20,472.33
5.34450,398.91,474.10
5.36272,410.49,473.82
5.38431,426.71,477.34
5.40378,450.79,478.30
5.42288,472.81,486.05
5.44269,494.80,489.60
5.46323,511.22,493.60
5.48281,526.19,494.19
5.50372,535.34,492.73
5.52372,535.04,489.79
5.54328,532.60,483.53
5.56354,526.94,478.40
5.58394,521.39,474.44
5.60435,514.83,471.06
5.62437,500.53,468.64
5.64413,490.27,466.55
5.66395,481.62,465.85
5.68556,473.64,467.63
5.70509,466.18,466.01
5.72594,457.71,463.36
5.74644,449.12,465.50
5.76604,442.08,466.60
5.78644,434.91,466.48
5.80730,432.41,465.21
5.82751,424.99,468.37
5.84647,421.09,469.45
5.86627,419.24,467.71
5.88588,415.79,465.76
5.90622,411.59,468.08
5.92623,409.54,467.69
5.94724,408.14,468.14
5.96839,409.46,470.59
5.98851,409.93,469.84
6.00659,408.59,472.52
6.02764,405.91,470.95
6.04797,402.06,471.70
6.06850,403.15,471.70
6.08820,400.26,473.67
6.10691,401.72,471.90
6.12812,399.21,471.74
6.14817,401.60,472.93
6.16793,399.83,474.69
6.18713,399.37,474.25
6.20777,399.28,473.74
6.22862,402.41,474.41
6.24796,401.28,472.32
6.26792,399.94,473.39
6.28669,399.06,473.03
6.30764,399.03,471.39
6.32678,399.05,472.60
6.34779,398.97,470.54
6.36740,401.84,469.21
6.38689,399.44,471.99
6.40874,399.11,471.35
6.42738,401.46,469.44
6.44674,400.62,469.95
6.46732,399.30,471.00
6.48777,400.70,471.46
6.50861,395.41,471.69
6.52743,378.22,470.84
6.54716,355.65,470.12
6.56712,325.63,468.13
6.58812,296.46,460.47
6.60771,272.57,455.31
6.62678,258.33,447.89
6.64832,251.65,444.87
6.66772,254.44,445.52
6.68799,257.18,444.29
6.70682,265.77,444.55
6.72820,278.68,444.59
6.74786,288.63,449.42
6.76810,300.27,450.51
6.78703,310.73,450.05
6.80745,321.14,453.93
6.82757,327.77,455.49
6.84685,338.42,457.67
6.86777,347.00,460.32
6.88687,352.80,460.89
6.90712,359.69,460.28
6.92852,363.63,461.74
6.94796,368.81,464.28
6.96808,375.36,462.33
6.98941,380.06,462.27
7.00916,381.27,463.04
7.02745,383.70,465.07
7.04909,386.17,464.87
7.06932,387.12,466.80
7.08993,388.53,465.37
7.11149,393.04,466.46
7.13025,395.19,465.16
7.15173,396.64,465.77
7.17152,395.64,464.56
7.19215,397.22,466.11
7.21082,399.87,463.13
7.23100,401.98,464.90
7.25233,399.62,463.10
7.27218,401.20,464.54
7.29101,402.12,463.80
7.31109,404.72,462.13
7.33213,402.60,462.25
7.35091,402.27,463.97
7.37158,402.66,459.92
7.39354,402.23,461.14
7.41347,402.59,462.64
7.43201,404.93,462.50
7.45175,402.08,461.56
7.47354,401.79,463.92
7.49460,404.23,461.24
7.51270,404.31,462.56
7.53281,402.19,462.63
7.55360,403.02,463.77
7.57324,404.47,463.06
7.59490,404.24,464.61
7.61255,404.68,464.90
7.63322,404.81,466.33
7.65400,405.33,465.94
7.67401,405.15,464.45
7.69337,405.36,464.19
7.71410,404.42,463.66
7.73346,405.10,465.76
7.75286,402.24,464.28
7.77297,402.49,463.02
7.79363,406.30,464.19
7.81267,404.89,466.26
7.83430,406.93,462.74
7.85418,405.71,465.89
7.87345,403.89,466.26
7.89355,405.42,464.77
7.91400,404.03,466.05
7.93396,403.08,465.21
7.95490,403.81,464.68
7.97452,405.20,463.41
7.99473,406.48,465.89
8.01378,406.12,462.66
8.03396,407.29,466.01
8.05429,404.00,465.57
8.07360,403.87,464.13
8.09426,403.21,464.37
8.11416,402.16,464.87
8.13384,404.12,464.72
8.15431,404.87,462.82
8.17463,405.13,461.35
8.19371,404.96,463.01
8.21428,403.88,460.81
8.23367,404.98,462.79
8.25475,405.31,461.47
8.27407,403.86,465.94
8.29477,405.85,464.37
8.31374,407.03,465.58
8.33425,404.45,464.70
8.35502,407.00,465.43
8.37395,404.14,468.00
8.39502,404.90,466.73
8.41492,404.68,467.81
8.43381,404.74,466.97
8.45535,405.25,469.24
8.47437,403.57,466.39
8.49434,405.62,468.01
8.51499,405.64,465.37
8.53533,403.43,465.34
8.55486,402.39,464.35
8.57402,404.86,466.26
8.59502,403.87,467.38
8.61534,405.78,466.16
8.63398,405.27,465.39
8.65543,402.55,466.21
8.67438,406.79,465.57
8.69370,405.73,466.51
8.71540,405.78,468.12
8.73446,406.41,464.99
8.75450,405.23,466.07
8.77522,403.26,465.10
8.79440,405.71,467.25
8.81392,402.57,465.21
8.83353,404.37,465.70
8.85393,403.02,467.30
8.87388,404.39,468.46
8.89516,404.37,466.17
8.91411,406.10,465.49
8.93492,402.49,465.41
8.95428,403.15,466.26
8.97482,404.80,466.32
8.99373,402.03,466.42
9.01456,405.47,466.86
9.03420,402.08,468.21
9.05467,405.82,466.16
9.07456,405.48,467.41
9.09367,402.42,466.09
9.11484,403.73,465.56
9.13471,402.54,466.18
9.15419,403.70,465.86
9.17438,405.80,468.38
9.19458,403.80,468.07
9.21456,402.07,464.53
9.23391,403.29,463.60
9.25522,405.99,463.45
9.27514,406.20,466.20
9.29424,418.57,467.36
9.31527,442.68,472.97
9.33401,463.78,478.15
9.35437,489.52,481.06
9.37405,509.54,484.37
9.39441,522.52,487.27
9.41380,531.65,485.06
9.43501,533.99,484.65
9.45424,533.46,485.35
9.47448,532.42,480.92
9.49536,528.98,479.56
9.51517,523.36,478.03
9.53569,514.53,479.56
9.55556,505.30,477.77
9.57496,496.36,477.41
9.59491,487.57,476.33
9.61656,478.67,475.71
9.63548,469.38,478.36
9.65609,462.34,478.93
9.67628,453.24,476.97
9.69621,446.46,477.99
9.71533,440.43,474.35
9.73538,435.10,475.00
9.75606,430.44,472.90
9.77639,426.70,473.73
9.79592,423.85,473.02
9.81502,420.38,473.97
9.83482,419.61,473.09
9.85535,418.89,472.79
9.87641,413.57,472.48
9.89629,414.06,474.29
9.91589,410.40,474.83
9.93483,411.75,471.54
9.95549,409.60,473.61
9.97572,407.26,470.99
9.99620,404.00,473.04
10.01619,404.79,472.37
10.03512,407.74,471.73
10.05481,405.18,473.49
10.07594,406.48,474.97
10.09524,404.83,473.65
10.11636,407.00,472.30
10.13556,406.27,472.60
10.15474,406.93,474.12
10.17664,403.85,473.95
10.19648,401.21,472.50
10.21635,390.83,471.39
10.23723,380.63,467.17
10.25668,360.52,464.43
10.27597,336.69,461.43
10.29702,310.38,449.33
10.31759,284.84,440.43
10.33600,265.62,431.85
10.35812,250.86,425.87
10.37776,246.90,421.04
10.39708,248.60,422.25
10.41750,256.93,425.08
10.43832,265.45,428.31
10.45856,279.33,430.07
10.47812,291.23,436.82
10.49677,302.68,440.80
10.51695,313.72,442.59
10.53655,322.20,449.16
10.55797,332.81,451.96
10.57784,341.98,456.48
10.59664,348.18,457.58
10.61772,357.90,459.68
10.63782,360.93,461.05
10.65777,367.68,462.20
10.67673,368.55,463.15
10.69666,374.42,467.10
10.71806,378.29,464.25
10.73663,381.03,468.02
10.75646,384.37,468.05
10.77730,386.35,470.24
10.79708,388.64,472.08
10.81807,391.09,472.51
10.83771,392.58,473.14
10.85854,395.13,471.57
10.87812,394.06,473.95
10.89742,393.60,472.66
10.91744,397.76,470.44
10.93699,397.01,473.33
10.95725,396.53,472.53
10.97638,397.66,474.23
10.99761,398.41,472.88
11.01924,400.29,476.33
11.03793,400.59,476.66
11.05921,400.20,476.86
11.07950,397.08,476.17
11.09756,396.60,475.88
11.11851,399.69,473.41
11.13821,398.75,476.31
11.15840,399.01,474.85
11.17806,400.92,474.70
11.19880,401.60,478.09
11.21900,400.36,477.52
11.23815,401.77,475.32
11.25908,402.14,477.60
11.27960,400.04,477.85
11.29772,399.25,478.75
11.31747,402.71,479.12
11.33762,401.40,475.42
11.35768,401.79,475.66
11.37878,401.31,476.17
11.39781,403.59,474.65
11.41901,403.87,473.50
11.43855,403.42,476.55
11.45915,401.70,477.18
11.47902,399.65,476.76
11.49889,401.12,475.65
11.51916,401.40,477.75
11.53832,402.06,475.07
11.55879,402.34,477.95
11.57881,401.81,475.15
11.59865,400.68,474.61
11.61834,401.51,475.64
11.63880,400.69,476.22
11.65928,401.88,475.49
11.67865,400.12,476.36
11.69846,403.39,476.05
11.71883,401.15,477.50
11.73847,401.21,476.89
11.75863,402.13,476.57
11.77867,403.06,479.72
11.79934,402.07,480.04
11.81866,401.02,481.00
11.83920,402.88,477.95
11.86023,402.61,477.84
11.87949,404.52,480.74
11.89874,403.35,478.00
11.91856,404.37,476.75
11.93879,404.55,479.91
11.96039,405.26,479.08
11.98001,405.69,476.72
12.00029,403.68,476.04
12.02006,406.56,475.24
12.04144,405.60,477.77
12.06148,403.36,475.63
12.08118,405.99,477.13
12.10090,407.18,474.82
12.12069,406.14,477.15
12.14043,407.53,476.69
12.16012,406.22,477.78
12.18000,403.25,477.97
12.19992,402.87,478.36
12.22123,403.74,476.40
12.24168,406.57,474.97
12.26142,405.11,477.05
12.28203,404.84,474.94
12.30122,404.13,477.49
12.32141,406.38,475.28
12.34054,405.80,474.37
12.36143,404.10,477.12
12.38126,405.60,477.66
12.40194,405.24,476.34
12.42204,403.08,476.05
12.44174,405.93,475.27
12.46247,405.69,475.76
12.48219,405.06,475.87
12.50234,403.52,476.40
12.52144,402.46,473.94
12.54149,403.78,473.28
12.56076,402.92,474.01
12.58205,401.78,473.04
12.60202,403.05,473.91
12.62071,404.00,476.05
12.64236,403.54,474.25
12.66085,404.72,477.36
12.68103,402.78,476.75
12.70231,403.68,472.93
12.72158,404.92,475.73
12.74178,406.17,474.00
12.76149,404.73,475.73
12.78231,401.36,472.89
12.80071,400.30,474.26
12.82257,402.04,476.50
12.84274,401.71,473.49
12.86250,404.89,471.78
12.88172,404.88,473.24
12.90161,403.04,471.85
12.92344,402.38,471.46
12.94193,403.78,472.22
12.96219,404.64,470.95
12.98260,404.94,470.84
13.00259,405.50,470.54
13.02184,406.68,469.79
13.04267,403.37,470.96
13.06329,406.32,469.59
13.08203,404.76,469.06
13.10211,403.20,471.34
13.12325,407.05,468.54
13.14195,402.64,470.03
13.16155,404.19,469.68
13.18262,404.14,468.67
13.20160,404.43,469.00
13.22290,405.08,468.93
13.24300,403.46,468.76
13.26381,402.87,466.48
13.28254,404.70,468.42
13.30362,403.26,467.37
13.32299,403.14,468.75
13.34407,402.13,465.12
13.36288,403.28,464.33
13.38316,402.89,463.61
13.40423,405.64,464.63
13.42370,404.04,464.70
13.44254,404.88,465.20
13.46350,404.97,464.58
13.48418,405.18,464.19
13.50338,404.77,465.82
13.52477,404.21,465.04
13.54355,402.72,464.94
13.56502,405.03,463.22
13.58416,404.32,466.96
13.60370,403.18,462.66
13.62529,404.86,463.49
13.64440,406.25,463.14
13.66425,404.87,461.09
13.68520,403.78,462.07
13.70431,407.23,461.48
13.72360,404.39,462.06
13.74403,404.96,461.52
13.76342,405.41,460.38
13.78558,407.81,460.46
13.80375,408.18,456.72
13.82526,405.69,458.85
13.84431,405.83,455.77
13.86393,403.25,455.86
13.88442,405.42,457.49
13.90512,407.32,455.63
13.92459,406.18,453.69
13.94370,410.45,458.76
13.96357,426.62,463.15
13.98395,450.25,474.79
14.00413,477.40,485.87
14.02364,503.74,494.31
14.04375,520.45,501.20
14.06505,535.99,500.73
14.08445,540.43,496.65
14.10485,542.87,496.30
14.12508,542.10,492.59
14.14478,537.66,487.51
14.16551,533.90,482.96
14.18389,521.71,482.93
14.20394,512.75,478.98
14.22437,501.00,476.40
14.24553,489.83,473.94
14.26512,482.96,473.72
14.28485,473.27,471.30
14.30430,463.09,472.44
14.32496,457.01,471.03
14.34495,450.08,467.86
14.36407,445.38,470.93
14.38536,437.79,468.46
14.40444,436.30,466.24
14.42351,431.20,469.02
14.44360,427.39,467.87
14.46397,424.39,467.51
14.48548,423.29,466.33
14.50373,418.63,467.25
14.52516,417.84,466.03
14.54505,416.49,466.36
14.56393,414.52,466.10
14.58417,415.71,465.24
14.60396,415.84,466.05
14.62514,411.09,467.60
14.64441,412.05,467.98
14.66498,411.41,468.23
14.68453,409.80,465.53
14.70387,407.46,466.89
14.72375,407.06,466.96
14.74403,407.41,466.54
14.76390,405.07,466.31
14.78443,407.43,464.92
14.80407,406.12,464.74
14.82467,405.24,464.86
14.84470,405.77,464.39
14.86465,403.93,466.63
14.88546,402.72,465.24
14.90396,405.64,466.14
14.92360,405.03,463.29
14.94493,404.16,463.78
14.96523,407.29,463.10
14.98516,407.94,462.98
15.00358,406.70,463.73
15.02444,404.24,465.59
15.04395,407.16,465.72
15.06522,407.96,462.97
15.08456,402.71,467.14
15.10521,383.03,468.47
15.12391,358.13,466.00
15.14361,330.02,458.60
15.16348,301.00,450.74
15.18424,279.25,439.22
15.20466,263.48,434.98
15.22435,256.91,429.12
15.24389,259.40,429.31
15.26498,264.93,429.47
15.28476,275.42,429.34
15.30362,283.63,430.65
15.32509,295.00,434.17
15.34362,306.74,435.97
15.36496,320.05,438.15
15.38501,330.70,439.18
15.40416,336.97,442.17
15.42378,345.10,447.55
15.44399,353.29,447.67
15.46460,362.50,451.02
15.48483,364.82,452.72
15.50427,371.12,455.94
15.52468,378.09,456.90
15.54500,380.61,457.26
15.56491,382.34,459.99
15.58372,386.43,459.70
15.60486,391.24,462.28
15.62429,393.89,463.64
15.64459,394.30,461.84
15.66533,396.03,464.61
15.68526,397.82,462.16
15.70369,397.52,464.64
15.72354,399.62,463.44
15.74385,401.64,465.61
15.76353,399.17,463.74
15.78366,401.32,466.26
15.80499,401.27,466.11
15.82362,402.32,466.93
15.84365,400.87,465.96
15.86394,402.73,464.70
15.88507,402.96,465.38
15.90394,400.97,465.09
15.92438,401.61,467.80
15.94344,402.25,465.98
15.96498,402.76,464.02
15.98365,403.11,463.79
16.00414,406.37,465.05
16.02538,404.16,464.56
16.04356,406.38,466.67
16.06371,405.12,466.08
16.08397,402.92,465.43
16.10362,403.84,466.65
16.12495,403.84,464.33
16.14437,403.75,464.50
16.16525,405.61,465.22
16.18385,402.66,463.23
16.20393,401.85,465.61
16.22380,402.60,465.22
16.24454,404.93,466.40
16.26487,405.98,466.34
16.28396,405.65,463.42
16.30478,405.12,463.00
16.32441,403.88,463.82
16.34375,405.43,465.36
16.36397,403.94,463.72
16.38378,401.65,463.42
16.40438,405.16,464.14
16.42458,402.87,467.16
16.44503,404.22,467.41
16.46428,402.20,465.52
16.48539,401.89,465.45
16.50468,402.58,466.76
16.52507,401.70,468.37
16.54472,402.82,468.53
16.56464,403.95,465.11
16.58369,405.29,467.62
16.60447,405.69,465.11
16.62533,404.80,468.13
16.64394,407.93,466.11
16.66490,403.47,465.63
16.68531,403.52,469.21
16.70352,406.00,467.64
16.72476,403.74,465.26
16.74489,404.20,468.71
16.76525,407.05,467.93
16.78529,405.97,466.59
16.80348,405.69,466.96
16.82433,405.13,465.82
16.84347,404.73,465.40
16.86441,404.85,467.22
16.88475,405.46,465.33
16.90431,404.68,468.06
16.92446,406.17,468.15
16.94469,405.82,468.58
16.96367,406.10,468.62
16.98525,404.55,469.28
17.00343,402.29,465.19
17.02339,402.08,466.33
17.04504,404.39,466.77
17.06524,404.19,465.07
17.08391,404.76,465.15
17.10366,404.91,466.47
17.12342,404.24,467.28
17.14415,405.57,466.25
17.16501,403.08,465.05
17.18436,403.30,464.99
17.20390,406.68,466.65
17.22514,405.98,463.30
17.24407,406.06,464.69
17.26514,403.48,462.92
17.28447,404.30,465.32
17.30457,404.28,467.01
17.32518,404.74,466.43
17.34471,403.18,464.12
17.36378,403.99,467.50
17.38458,403.36,464.44
17.40463,405.20,467.66
17.42467,403.26,467.22
17.44473,405.30,468.09
17.46396,402.87,467.07
17.48400,403.84,468.29
17.50503,401.66,465.30
17.52442,402.30,466.00
17.54392,404.27,464.63
17.56408,401.34,463.70
17.58465,402.42,465.49
17.60413,405.23,464.77
17.62368,405.75,464.56
17.64516,403.34,466.02
17.66538,404.74,468.18
17.68393,402.75,464.29
17.70372,404.28,464.66
17.72468,402.80,466.05
17.74347,405.26,467.67
17.76599,404.22,465.53
17.78606,404.59,465.92
17.80474,404.42,465.96
17.82505,403.37,466.84
17.84502,406.70,465.79
17.86556,404.56,465.53
17.88494,407.19,464.53
17.90518,405.70,466.14
17.92591,406.95,463.23
17.94529,408.05,464.23
17.96528,406.94,465.30
17.98520,403.33,462.65
18.00458,402.99,464.01
18.02626,403.48,463.59
18.04423,404.78,463.66
18.06558,405.54,465.44
18.08587,403.53,466.23
18.10531,402.40,464.50
18.12457,403.79,465.59
18.14618,401.14,464.45
18.16596,404.69,463.59
18.18592,403.03,465.30
18.20660,403.56,463.69
18.22662,402.13,464.79
18.24649,410.31,466.74
18.26709,429.83,474.89
18.28704,454.34,481.42
18.30729,482.24,484.59
18.32697,503.84,488.25
18.34570,522.37,487.61
18.36585,533.12,488.18
18.38612,538.05,487.53
18.40670,540.69,484.10
18.42572,536.18,481.72
18.44586,527.54,480.09
18.46609,521.48,480.81
18.48659,509.34,481.66
18.50590,501.60,480.04
18.52696,493.00,480.91
18.54647,482.31,478.88
18.56722,471.25,478.46
18.58685,463.00,477.35
18.60629,454.08,477.22
18.62606,450.33,474.72
18.64644,444.78,474.82
18.66645,438.72,473.81
18.68562,433.57,472.35
18.70642,429.72,475.64
18.72666,424.67,471.30
18.74564,422.35,471.62
18.76703,420.70,472.75
18.78675,416.89,472.44
18.80575,415.62,472.32
18.82726,415.89,471.68
18.84567,416.05,469.74
18.86722,413.41,471.97
18.88569,410.60,470.84
18.90738,408.79,468.98
18.92645,410.66,472.00
18.94675,409.97,470.07
18.96690,408.64,469.80
18.98652,406.35,472.30
19.00675,408.05,469.64
19.02703,407.60,468.55
19.04568,407.11,469.40
19.06551,406.64,471.07
19.08520,406.92,470.58
19.10712,408.05,469.52
19.12593,405.21,470.92
19.14699,407.44,471.32
19.16647,404.29,469.12
19.18637,404.01,469.33
19.20561,404.82,467.49
19.22558,402.28,468.42
19.24601,403.29,470.21
19.26689,404.32,471.22
19.28670,402.18,470.38
19.30669,404.30,470.03
19.32784,401.91,471.98
19.34660,402.48,470.13
19.36686,402.29,468.61
19.38698,405.64,471.78
19.40907,403.04,471.32
19.42772,405.86,473.24
19.44813,401.13,470.57
19.46804,380.71,467.90
19.48828,354.90,462.65
19.50811,326.86,458.83
19.52767,298.93,452.73
19.54819,276.74,447.75
19.56903,261.48,442.35
19.58802,257.60,443.56
19.60806,256.91,442.87
19.62783,261.36,445.22
19.64854,272.76,445.61
19.66932,282.23,449.04
19.68793,294.82,448.40
19.70758,306.18,449.01
19.72849,314.53,453.01
19.74875,325.31,453.59
19.76873,333.32,458.63
19.78842,342.92,458.97
19.80883,351.01,457.65
19.82746,356.02,459.71
19.84793,361.14,461.52
19.86847,366.12,463.58
19.88889,373.56,462.44
19.90885,378.31,464.95
19.92898,379.17,464.59
19.94820,383.78,467.55
19.96861,384.10,470.83
19.98866,386.99,469.62
20.00730,387.78,469.05
20.02896,389.79,469.84
20.04827,393.51,473.93
20.06777,393.23,470.85
20.08797,394.54,474.99
20.10936,397.51,473.78
20.12840,395.33,475.24
20.14957,398.92,475.64
20.16842,396.68,472.75
20.18886,398.78,473.86
20.20966,398.64,474.08
20.22867,398.19,473.94
20.24916,399.57,472.85
20.26834,398.88,474.37
20.28881,400.05,471.40
20.30886,400.06,471.43
20.32839,399.61,474.69
20.34950,400.44,472.65
20.36884,396.94,473.36
20.38913,397.00,472.68
20.40984,398.58,473.74
20.42877,395.63,472.38
20.44896,396.90,474.36
20.46982,396.96,472.27
20.49040,398.44,474.76
20.50945,397.28,472.52
20.52976,399.62,472.03
20.54946,400.72,476.33
20.57000,398.78,472.91
20.58865,398.23,473.23
20.60901,398.33,474.40
20.63000,398.73,476.15
20.64917,400.21,473.64
20.66919,398.97,472.66
20.69034,401.61,474.16
20.70981,401.06,476.21
20.72925,398.40,473.44
20.74861,400.98,474.32
20.76900,400.16,475.00
20.79009,398.80,474.07
20.80903,396.71,473.39
20.82889,399.18,474.22
20.84886,399.34,472.81
20.86980,395.99,474.38
20.88889,399.61,474.83
20.90974,399.72,476.02
20.92841,398.58,474.18
20.95024,398.08,476.10
20.96869,399.28,476.07
20.98919,397.11,476.70
21.00944,398.86,475.99
21.02990,396.95,473.23
21.05025,397.37,475.35
21.06880,400.98,472.78
21.08851,401.45,474.29
21.10948,401.77,474.97
21.13023,401.01,475.63
21.14911,403.09,472.49
21.16932,401.72,472.26
21.18951,400.67,473.25
21.20965,400.84,475.41
21.22938,400.57,473.26
21.24965,403.04,472.87
21.26828,400.04,472.55
21.28873,402.37,475.66
21.30904,400.70,473.94
21.33002,401.94,474.15
21.34920,401.27,474.90
21.36911,401.73,474.58
21.38952,399.73,476.54
21.40892,399.75,476.73
21.42984,401.12,475.60
21.44860,402.55,474.84
21.46876,400.19,476.48
21.48866,399.65,476.10
21.50926,402.75,478.05
21.53013,401.59,477.98
21.55006,402.04,476.98
21.56969,400.87,474.89
21.58890,398.60,474.31
21.60885,399.96,473.55
21.62925,401.00,472.83
21.64976,399.37,474.84
21.66820,399.84,473.40
21.69023,398.12,474.75
21.71004,402.57,473.02
21.72929,401.84,477.83
21.74865,399.31,474.26
21.76876,399.90,472.54
21.78936,400.61,476.01
21.81128,400.81,473.18
21.83126,401.93,471.95
21.84970,401.76,473.24
21.86966,403.77,475.33
21.89165,401.23,472.13
21.91121,402.20,474.30
21.93044,403.84,473.36
21.95041,404.35,474.31
21.97173,403.96,476.62
21.99258,402.08,478.26
22.01255,403.77,476.92
22.03163,401.19,475.25
22.05290,402.14,476.65
22.07274,400.66,475.88
22.09153,401.41,474.48
22.11324,400.81,477.07
22.13287,400.87,476.92
22.15249,401.03,476.01
22.17129,402.05,477.43
22.19307,402.69,477.45
22.21293,401.65,477.39
22.23168,401.75,475.52
22.25221,403.09,476.69
22.27300,402.22,477.57
22.29221,403.06,475.33
22.31277,402.81,475.58
22.33307,401.89,476.29
22.35206,401.59,475.36
22.37143,403.09,474.74
22.39227,403.15,474.03
22.41203,401.71,476.47
22.43168,399.70,477.23
22.45186,402.75,473.66
22.47136,402.43,475.27
22.49248,402.07,476.50
22.51281,403.27,472.50
22.53198,401.32,475.72
22.55175,401.14,473.86
22.57292,402.80,476.00
22.59358,403.78,476.60
22.61398,405.01,474.72
22.63398,404.50,476.20
22.65221,406.70,473.01
22.67265,403.58,472.27
22.69337,401.98,473.91
22.71226,402.60,471.30
22.73337,401.14,472.76
22.75326,402.79,473.25
22.77424,403.74,475.03
22.79286,403.64,473.58
22.81378,403.15,472.72
22.83299,404.46,472.97
22.85274,402.17,473.77
22.87452,402.94,472.21
22.89506,405.04,471.82
22.91476,403.65,473.35
22.93492,404.99,469.53
22.95387,402.65,470.96
22.97417,404.51,469.60
22.99410,403.00,469.45
23.01487,405.43,467.40
23.03395,405.84,469.27
23.05485,403.35,467.82
23.07353,403.33,466.74
23.09450,403.71,468.88
23.11460,403.15,467.60
23.13378,404.48,467.14
23.15456,403.59,469.70
23.17368,402.46,468.93
23.19355,405.12,468.84
23.21352,402.76,467.43
23.23455,404.61,467.12
23.25364,405.91,468.68
23.27474,404.25,470.00
23.29516,404.35,471.72
23.31322,404.03,471.72
23.33460,403.65,468.60
23.35342,404.34,468.69
23.37468,405.54,469.08
23.39365,402.33,472.44
23.41451,401.82,470.22
23.43415,402.99,468.44
23.45509,405.89,468.40
23.47464,402.91,468.92
23.49618,406.00,465.47
23.51505,402.46,467.65
23.53447,405.65,464.95
23.55579,402.26,465.79
23.57580,403.03,465.65
23.59475,403.55,465.62
23.61472,402.12,462.58
23.63491,404.31,462.67
23.65433,405.57,465.53
23.67598,403.81,463.91
23.69595,407.00,464.84
23.71441,406.02,462.88
23.73556,404.00,461.77
23.75459,402.51,463.87
23.77549,410.84,466.07
23.79546,427.84,475.16
23.81437,455.01,489.34
23.83422,484.51,504.15
23.85481,514.61,511.04
23.87544,535.74,511.27
23.89513,548.94,509.87
23.91510,553.54,501.22
23.93561,554.79,493.82
23.95494,548.00,485.10
23.97532,542.16,478.63
23.99588,532.69,470.49
24.01575,524.27,468.62
24.03428,515.53,467.28
24.05487,503.86,464.95
24.07617,491.80,462.46
24.09465,483.02,461.41
24.11456,469.94,463.74
24.13548,462.51,462.05
24.15535,453.91,460.53
24.17553,448.91,464.20
24.19437,441.43,464.28
24.21615,438.34,463.52
24.23459,433.33,465.24
24.25420,432.17,464.90
24.27542,427.31,466.78
24.29439,424.75,465.86
24.31569,419.85,465.23
24.33574,420.54,463.98
24.35501,418.40,464.96
24.37468,415.86,463.97
24.39513,411.74,467.13
24.41444,413.09,464.73
24.43602,412.54,466.75
24.45512,411.23,468.36
24.47488,408.68,466.37
24.49514,408.10,466.63
24.51452,408.46,469.01
24.53610,409.47,466.72
24.55614,406.14,463.94
24.57455,409.04,463.27
24.59607,408.65,465.82
24.61437,408.71,465.97
24.63605,406.76,465.13
24.65612,409.38,466.69
24.67532,406.84,466.86
24.69496,403.06,468.07
24.71539,404.49,467.91
24.73456,403.51,468.61
24.75545,400.92,467.65
24.77594,390.41,471.57
24.79603,369.98,468.41
24.81576,345.74,462.16
24.83560,319.90,453.05
24.85533,294.39,442.81
24.87422,270.47,436.70
24.89452,256.84,430.11
24.91527,256.45,425.18
24.93600,260.20,425.90
24.95562,265.52,426.24
24.97524,276.61,427.70
24.99498,289.06,429.89
25.01528,296.79,432.29
25.03474,308.58,437.65
25.05542,320.55,438.87
25.07507,331.96,442.57
25.09541,341.21,443.26
25.11586,346.18,447.26
25.13473,356.81,447.83
25.15537,360.00,450.26
25.17435,367.48,452.52
25.19521,370.74,454.09
25.21488,378.06,453.29
25.23448,380.46,455.89
25.25561,382.10,459.09
25.27486,385.11,459.35
25.29496,386.82,457.80
25.31440,389.57,460.36
25.33459,390.27,460.97
25.35543,393.26,462.53
25.37503,394.24,460.66
25.39455,393.67,463.41
25.41542,394.86,462.28
25.43470,395.98,461.54
25.45443,395.46,463.83
25.47594,398.60,463.75
25.49573,399.33,462.98
25.51505,399.17,460.86
25.53475,403.33,461.32
25.55518,403.57,462.80
25.57552,401.71,459.88
25.59521,404.08,461.49
25.61432,403.12,461.80
25.63511,402.18,459.74
25.65428,402.29,459.92
25.67621,405.69,461.59
25.69534,405.79,463.89
25.71583,407.02,463.05
25.73562,407.34,466.39
25.75582,404.23,463.65
25.77470,401.81,464.21
25.79452,402.57,465.33
25.81604,401.53,463.48
25.83471,401.36,462.93
25.85565,404.40,464.63
25.87615,406.27,464.59
25.89431,403.48,465.55
25.91539,403.45,462.40
25.93428,406.08,462.12
25.95503,402.62,464.33
25.97608,404.43,462.49
25.99590,406.43,461.94
26.01550,404.80,464.18
26.03451,402.43,464.44
26.05495,404.80,460.90
26.07535,404.81,460.89
26.09532,405.92,459.94
26.11622,402.91,460.01
26.13528,405.41,459.00
26.15482,403.36,461.55
26.17508,406.08,460.37
26.19550,404.02,461.88
26.21511,405.40,462.60
26.23494,402.43,460.87
26.25527,406.50,463.91
26.27527,406.42,462.68
26.29545,405.96,464.29
26.31516,404.51,464.44
26.33556,403.03,461.70
26.35416,401.96,464.21
26.37462,402.06,462.95
26.39514,401.03,464.01
26.41561,403.45,462.62
26.43589,401.76,462.55
26.45457,403.17,465.80
26.47470,402.22,463.06
26.49490,402.74,464.30
26.51569,405.17,462.53
26.53625,405.91,462.93
26.55500,406.43,464.01
26.57577,405.05,464.82
26.59479,406.27,463.14
26.61563,403.14,464.73
26.63538,404.16,465.64
26.65502,402.34,464.04
26.67436,402.32,464.51
26.69422,401.41,461.99
26.71469,404.17,462.82
26.73417,403.03,462.71
26.75586,404.08,463.38
26.77509,406.51,461.04
26.79520,406.31,463.12
26.81461,405.79,465.00
26.83502,403.40,464.52
26.85509,402.68,463.24
26.87517,403.57,461.91
26.89582,404.48,463.38
26.91510,401.41,462.74
26.93602,405.60,462.98
26.95536,405.20,463.61
26.97629,402.64,464.65
26.99536,406.18,462.41
27.01618,405.43,463.58
27.03514,404.42,463.14
27.05480,405.90,463.77
27.07476,406.40,465.91
27.09566,406.05,462.60
27.11480,406.87,464.54
27.13582,406.13,464.15
27.15402,403.37,462.05
27.17447,402.78,463.96
27.19613,401.44,463.21
27.21461,402.36,465.07
27.23572,404.84,464.18
27.25418,401.86,465.60
27.27609,402.88,465.87
27.29500,403.68,465.89
27.31564,404.52,462.27
27.33487,404.89,465.14
27.35527,402.52,463.12
27.37470,402.71,464.07
27.39595,404.86,465.22
27.41479,403.48,463.58
27.43538,402.41,465.11
27.45578,403.67,464.30
27.47542,402.66,465.09
27.49502,404.65,461.35
27.51517,404.59,463.89
27.53471,401.78,463.84
27.55488,404.71,460.03
27.57466,402.09,460.27
27.59477,403.16,460.85
27.61461,402.11,459.20
27.63503,405.32,462.13
27.65459,403.24,460.80
27.67548,404.42,460.81
27.69550,402.93,460.47
27.71654,402.15,461.24
27.73656,404.08,462.27
27.75679,406.57,460.39
27.77672,405.29,462.23
27.79536,406.00,460.25
27.81610,404.01,463.88
27.83636,406.33,463.19
27.85687,405.28,463.28
27.87556,405.78,462.32
27.89614,406.06,461.77
27.91550,406.19,464.20
27.93560,406.61,461.54
27.95532,407.40,460.51
27.97601,406.13,460.47
27.99629,405.20,462.93
28.01514,407.52,462.23
28.03605,407.79,462.96
28.05642,406.45,462.18
28.07602,406.61,461.78
28.09598,404.33,464.00
28.11543,405.57,462.55
28.13598,406.61,465.00
28.15557,405.38,465.31
28.17649,405.13,463.97
28.19677,405.96,462.66
28.21676,407.82,462.50
28.23617,405.06,465.40
28.25714,406.97,462.65
28.27728,406.05,464.41
28.29592,407.62,466.85
28.31682,407.47,467.79
28.33619,406.79,465.94
28.35525,404.01,466.05
28.37626,404.17,465.95
28.39546,404.25,466.87
28.41699,403.61,465.36
28.43707,402.39,463.13
28.45518,402.43,462.84
28.47574,401.86,461.08
28.49627,401.70,461.97
28.51552,401.22,464.56
28.53556,404.46,463.06
28.55563,400.47,465.58
28.57521,403.59,463.01
28.59574,403.17,465.74
28.61532,404.01,465.88
28.63502,406.24,463.41
28.65644,406.44,464.60
28.67708,403.63,462.14
28.69563,404.62,461.64
28.71623,401.82,464.41
28.73666,403.42,464.96
28.75620,404.96,466.49
28.77712,405.06,466.06
28.79671,403.66,465.21
28.81621,402.74,467.10
28.83530,402.75,467.62
28.85683,400.95,468.64
28.87608,404.18,466.67
28.89548,402.52,466.42
28.91536,404.28,466.76
28.93651,406.12,466.41
28.95709,405.38,467.13
28.97532,406.39,463.99
28.99668,405.83,465.12
29.01647,406.86,465.85
29.03580,403.48,463.54
29.05664,406.35,466.50
29.07593,404.65,463.65
29.09670,403.26,462.91
29.11608,404.65,465.98
29.13619,406.10,464.23
29.15586,407.76,463.88
29.17606,405.43,464.40
29.19611,405.82,462.20
29.21516,406.00,465.62
29.23694,408.34,463.03
29.25598,407.44,462.96
29.27613,406.10,462.42
29.29561,408.06,463.33
29.31714,405.62,462.80
29.33589,409.24,466.91
29.35634,420.72,470.11
29.37559,442.21,475.78
29.39589,466.26,480.30
29.41525,491.28,486.68
29.43654,514.71,487.39
29.45531,531.70,488.42
29.47502,538.99,482.82
29.49676,543.43,482.98
29.51680,543.26,480.52
29.53642,537.01,479.32
29.55691,531.62,477.85
29.57631,523.70,473.55
29.59587,514.23,473.89
29.61625,503.14,474.36
29.63638,494.15,473.41
29.65558,482.62,470.17
29.67525,474.61,469.74
29.69637,463.69,471.38
29.71638,456.37,470.82
29.73636,447.61,468.13
29.75615,444.32,469.49
29.77577,437.84,469.67
29.79566,433.71,469.49
29.81657,430.87,468.06
29.83718,425.52,470.43
29.85702,424.03,468.63
29.87759,419.49,467.13
29.89782,421.18,467.98
29.91783,418.03,466.75
29.93686,414.22,468.65
29.95698,415.69,466.33
29.97648,412.24,466.13
29.99671,413.56,466.89
30.01639,409.33,464.09
30.03762,410.65,466.44
30.05782,408.83,465.42
30.07793,408.56,465.75
30.09643,405.63,468.99
30.11786,405.56,465.68
30.13660,408.39,465.70
30.15641,407.05,465.93
30.17771,407.15,466.84
30.19724,407.81,465.11
30.21631,409.33,466.47
30.23704,406.68,469.23
30.25743,407.65,467.17
30.27718,404.09,467.79
30.29661,405.12,464.00
30.31605,405.37,466.56
30.33723,405.77,465.25
30.35684,405.50,465.07
30.37620,403.63,466.15
30.39669,405.87,464.34
30.41600,405.73,465.45
30.43720,406.49,466.40
30.45680,403.25,466.00
30.47693,404.09,463.87
30.49623,404.03,462.41
30.51666,392.65,463.36
30.53653,371.47,459.39
30.55761,345.26,451.57
30.57659,320.05,443.03
30.59738,293.17,439.93
30.61759,268.29,431.42
30.63645,255.10,429.11
30.65670,252.80,429.76
30.67612,256.62,429.76
30.69720,261.84,432.55
30.71804,270.99,435.03
30.73790,281.95,438.18
30.75627,293.72,441.11
30.77668,307.19,445.01
30.79768,316.09,449.66
30.81767,329.31,450.99
30.83695,338.65,453.65
30.85766,345.38,458.27
30.87719,352.61,460.15
30.89726,360.74,460.92
30.91689,368.50,461.71
30.93800,370.41,463.03
30.95626,378.50,461.78
30.97651,381.70,465.91
30.99775,382.42,465.19
31.01713,385.96,465.96
31.03618,387.94,465.85
31.05628,389.33,467.55
31.07742,392.78,467.47
31.09781,392.03,463.96
31.11627,393.74,468.02
31.13670,394.70,467.68
31.15764,396.20,467.63
31.17708,400.44,465.75
31.19633,399.20,465.51
31.21609,401.47,465.42
31.23784,399.57,466.41
31.25788,400.90,464.22
31.27623,401.59,465.25
31.29809,402.82,465.24
31.31773,401.30,465.61
31.33712,403.21,464.85
31.35807,404.01,465.92
31.37637,404.32,465.61
31.39715,402.64,467.59
31.41716,402.26,464.36
31.43619,403.86,468.18
31.45657,402.83,466.25
31.47682,402.29,466.69
31.49805,402.34,467.40
31.51752,402.71,470.05
31.53671,402.80,470.22
31.55699,403.73,470.10
31.57622,401.21,470.09
31.59632,401.70,469.42
31.61639,402.09,469.02
31.63769,403.62,472.19
31.65780,402.72,470.97
31.67708,403.03,468.29
31.69673,403.54,469.85
31.71725,402.72,468.66
31.73707,402.19,469.08
31.75611,405.12,467.63
31.77645,402.09,469.43
31.79696,404.92,469.08
31.81780,402.62,469.13
31.83786,402.82,465.95
31.85637,403.28,466.25
31.87773,403.69,467.78
31.89683,403.97,470.26
31.91623,404.26,470.18
31.93782,404.72,470.82
31.95717,404.82,469.17
31.97755,402.93,470.10
31.99777,402.54,469.45
32.01733,403.08,468.06
32.03759,403.38,471.00
32.05769,402.74,468.31
32.07737,403.95,470.09
32.09754,404.46,470.52
32.11695,403.77,471.06
32.13792,405.12,471.26
32.15739,405.31,472.47
32.17711,403.39,472.64
32.19653,403.80,469.94
32.21632,401.93,472.25
32.23694,402.76,470.96
32.25752,403.75,468.61
32.27664,403.63,470.33
32.29693,402.38,469.00
32.31744,401.89,470.30
32.33767,402.65,468.35
32.35778,403.76,471.73
32.37695,405.32,469.66
32.39727,404.62,471.87
32.41636,403.47,471.61
32.43650,401.19,470.38
32.45749,402.09,469.65
32.47717,401.16,470.49
32.49609,402.87,469.56
32.51759,402.95,470.26
32.53748,400.49,471.97
32.55758,400.16,471.28
32.57725,400.76,469.19
32.59763,400.11,469.05
32.61649,400.08,470.51
32.63656,402.97,472.53
32.65761,404.39,472.41
32.67661,402.17,472.29
32.69776,401.45,472.56
32.71647,400.15,471.52
32.73787,402.39,472.74
32.75798,400.81,471.61
32.77741,401.42,471.14
32.79651,403.50,473.02
32.81635,400.64,470.06
32.83674,401.11,472.43
32.85750,402.29,471.56
32.87793,401.30,469.41
32.89611,401.57,472.40
32.91747,403.58,472.41
32.93592,400.51,473.83
32.95641,403.27,470.87
32.97773,403.64,472.29
32.99649,405.02,470.64
33.01785,404.77,470.06
33.03701,402.75,472.95
33.05740,402.58,471.20
33.07715,405.43,470.59
33.09791,405.51,470.87
33.11785,404.61,469.70
33.13688,401.87,472.51
33.15725,402.80,470.53
33.17670,401.11,471.12
33.19617,402.28,471.68
33.21673,403.31,470.40
33.23788,404.58,468.67
33.25790,403.78,470.63
33.27618,402.68,472.48
33.29804,404.18,472.89
33.31718,405.17,472.79
33.33630,404.40,472.70
33.35629,401.92,470.13
33.37607,400.75,471.40
33.39714,403.55,472.14
33.41715,401.49,473.58
33.43625,401.13,470.32
33.45690,400.04,473.15
33.47747,403.51,470.51
33.49757,401.40,471.03
33.51759,400.88,471.19
33.53731,402.05,471.29
33.55776,401.78,470.04
33.57647,401.16,472.90
33.59648,403.37,471.77
33.61634,401.72,472.41
33.63702,401.25,471.32
33.65685,402.51,472.66
33.67679,400.71,470.97
33.69741,398.57,470.17
33.71772,399.85,473.06
33.73635,398.28,472.77
33.75672,401.08,471.69
33.77688,397.87,471.35
33.79741,399.91,471.23
33.81745,397.83,471.34
33.83754,399.27,470.51
33.85653,397.63,472.78
33.87729,400.37,471.01
33.89628,397.84,470.02
33.91713,399.59,469.27
33.93736,400.53,472.25
33.95710,400.48,472.41
33.97739,400.88,472.30
33.99800,400.28,472.56
34.01788,401.68,468.53
34.03783,401.50,470.33
34.05687,399.46,471.80
34.07771,398.24,471.28
34.09726,400.11,471.48
34.11730,399.97,473.61
34.13733,400.15,473.46
34.15722,397.63,473.86
34.17895,397.54,473.09
34.19861,398.86,471.60
34.21752,398.06,472.57
34.23899,400.28,472.25
34.25857,397.70,472.71
34.27909,398.21,474.22
34.29856,400.34,471.22
34.31957,399.83,470.80
34.33875,401.47,472.74
34.35805,398.66,474.63
34.37985,397.90,474.83
34.39978,401.47,474.29
34.41993,398.47,474.12
34.43834,397.72,474.12
34.45961,400.82,474.08
34.47894,399.53,471.11
34.49832,397.44,472.32
34.51950,398.49,470.05
34.53976,398.90,470.44
34.55896,398.26,469.58
34.57890,399.92,468.92
34.59968,402.74,473.64
34.61906,418.10,479.43
34.63914,441.45,485.29
34.65905,468.41,496.72
34.67986,491.94,507.40
34.69841,513.37,512.35
34.71808,527.70,515.82
34.73822,535.68,512.55
34.75874,542.55,509.62
34.77932,541.58,500.70
34.79970,535.63,499.08
34.81957,529.88,490.79
34.83818,518.82,489.27
34.85990,507.68,486.20
34.87974,499.92,484.53
34.89924,486.44,483.21
34.91886,476.42,480.73
34.93988,467.30,480.40
34.95912,459.00,476.75
34.97953,452.94,476.28
34.99999,442.70,475.44
35.01883,438.16,477.38
35.03854,432.96,474.71
35.05944,426.03,475.45
35.07943,421.93,477.13
35.09969,419.19,473.97
35.11957,417.67,473.62
35.13896,415.29,475.87
35.15875,413.51,473.19
35.17843,411.35,476.07
35.19861,406.77,474.08
35.21882,405.45,474.41
35.23829,406.82,476.69
35.25835,405.01,473.48
35.27985,401.08,472.15
35.29962,401.30,472.52
35.31853,403.21,473.27
35.33987,403.46,476.07
35.35967,402.43,476.34
35.37828,399.48,472.78
35.39868,402.07,475.85
35.41846,400.66,475.41
35.43840,397.69,475.54
35.45849,399.56,472.66
35.47986,398.89,473.63
35.49824,399.31,475.12
35.51880,396.53,473.73
35.53974,399.23,473.22
35.55869,400.17,475.18
35.57954,393.71,474.86
35.59848,382.26,478.12
35.61941,364.96,478.91
35.63837,337.86,471.32
35.65800,316.66,461.75
35.67910,289.27,451.57
35.69929,270.43,439.37
35.71818,254.18,430.22
35.73878,249.22,425.32
35.75960,251.56,427.22
35.77859,259.70,426.41
35.79954,265.72,430.25
35.81839,278.05,432.31
35.83925,290.20,438.68
35.85942,301.93,441.00
35.87887,312.32,442.79
35.89792,320.26,447.68
35.91879,333.63,452.31
35.93833,341.17,455.13
35.95980,349.21,455.40
35.97955,357.46,460.54
35.99897,359.63,459.06
36.01842,367.69,460.74
36.03845,372.63,463.45
36.05852,376.33,466.96
36.07970,379.47,467.38
36.09994,383.47,469.06
36.11975,386.82,470.28
36.13814,386.14,468.94
36.15806,389.81,471.15
36.17853,388.77,471.50
36.19866,390.44,472.99
36.21835,391.85,471.24
36.23904,394.42,472.89
36.25970,393.30,472.89
36.27819,394.92,473.10
36.29944,394.64,472.13
36.31847,395.57,470.98
36.33878,395.15,473.42
36.35899,395.88,472.41
36.37927,397.09,473.05
36.39999,396.82,474.05
36.41908,397.88,472.01
36.43850,395.50,473.02
36.45842,398.85,473.53
36.47883,398.78,474.33
36.49824,399.77,474.13
36.51848,398.09,474.60
36.53918,396.80,473.76
36.55896,397.16,474.10
36.57943,397.38,473.99
36.59804,398.71,474.98
36.61807,399.91,474.75
36.63819,397.49,474.18
36.65865,398.42,474.10
36.67892,400.73,473.25
36.69866,401.04,473.02
36.71931,401.63,473.39
36.74008,400.64,474.71
36.75970,398.36,473.63
36.77805,400.84,472.72
36.79844,399.34,474.77
36.81807,399.25,472.08
36.83915,401.04,473.36
36.85940,398.07,472.77
36.87875,399.69,472.12
36.89946,399.17,475.25
36.91911,400.42,475.35
36.93854,400.30,472.95
36.95967,399.62,474.51
36.97857,398.19,475.65
36.99828,400.00,474.32
37.01794,400.90,474.82
37.03985,399.29,475.10
37.05814,400.00,476.18
37.07793,397.30,472.40
37.09873,400.08,474.81
37.11978,401.44,473.44
37.13809,399.68,473.02
37.15880,400.42,474.19
37.17874,401.63,472.13
37.19884,399.92,472.07
37.21909,399.56,473.07
37.23978,399.77,474.00
37.25978,402.26,472.13
37.27975,400.36,471.41
37.30029,402.75,472.46
37.31961,400.86,472.77
37.33971,402.87,472.51
37.36001,399.95,474.70
37.38088,399.65,474.62
37.39947,399.08,473.28
37.42022,400.91,476.42
37.43966,398.12,474.07
37.45959,398.40,475.39
37.48076,402.08,476.03
37.50053,398.93,476.22
37.51907,401.46,476.56
37.53966,403.10,475.10
37.56099,402.51,475.55
37.57971,403.50,474.60
37.59944,401.74,476.55
37.61983,398.24,476.66
37.63954,397.97,475.54
37.65904,401.54,477.44
37.67903,401.65,476.24
37.69978,401.02,476.29
37.72062,400.40,475.14
37.74050,401.42,474.53
37.76044,399.56,474.88
37.77956,401.82,476.35
37.80049,402.02,473.22
37.81929,399.48,473.54
37.83984,400.40,475.56
37.85943,400.72,474.35
37.88096,399.19,472.18
37.90091,401.77,476.29
37.91965,401.53,475.44
37.94084,402.77,476.40
37.96026,404.31,472.59
37.98031,400.74,477.08
37.99951,400.29,474.35
38.02076,402.37,474.60
38.03956,403.38,476.94
38.06067,403.39,474.74
38.08085,403.42,475.79
38.09980,400.11,475.02
38.12007,400.52,476.07
38.14101,402.84,474.45
38.16064,399.00,476.75
38.17936,400.67,476.27
38.20068,402.63,474.61
38.22034,402.69,475.18
38.23941,400.23,474.28
38.25914,399.89,476.13
38.27993,400.05,476.51
38.29901,401.65,474.41
38.31930,403.36,478.68
38.33940,402.93,475.17
38.36088,402.98,476.60
38.37942,403.37,477.40
38.40058,405.14,477.21
38.42089,404.86,473.35
38.44010,402.19,475.64
38.45943,400.74,472.18
38.48020,401.06,472.50
38.49959,401.13,472.23
38.51915,403.79,474.75
38.53950,402.34,474.28
38.55926,400.03,474.75
38.57994,403.53,472.78
38.60083,401.21,472.07
38.61966,401.59,475.78
38.63928,401.52,475.43
38.65975,403.70,474.01
38.68023,403.15,474.73
38.69935,402.83,474.10
38.71987,402.51,473.10
38.74076,403.19,473.86
38.76065,406.40,475.53
38.77916,403.76,475.61
38.79905,405.74,474.35
38.82018,406.70,475.19
38.84027,405.81,471.86
38.86003,405.12,473.30
38.87992,404.73,469.86
38.89920,405.21,473.41
38.92050,412.23,479.25
38.93943,430.42,487.12
38.95998,456.32,501.23
38.98078,485.70,515.29
38.99994,507.45,525.58
39.01889,526.79,528.41
39.04069,535.47,524.71
39.05974,541.59,517.87
39.07985,540.43,515.54
39.09966,538.64,505.65
39.11962,530.59,501.88
39.14051,522.59,496.95
39.15982,513.01,490.55
39.17928,503.75,489.87
39.20017,494.29,485.18
39.22061,482.90,484.83
39.23917,473.88,480.07
39.25925,467.30,479.59
39.27901,458.61,477.64
39.29894,452.59,477.61
39.31916,445.73,476.80
39.33914,437.84,473.20
39.35923,433.04,475.76
39.37993,432.18,475.62
39.39936,427.07,472.46
39.41968,422.22,473.12
39.43923,421.07,474.50
39.46049,417.61,473.76
39.48000,415.49,471.25
39.50077,411.96,471.93
39.52055,411.10,474.60
39.53965,410.66,475.22
39.56019,408.49,474.62
39.57911,408.37,473.00
39.59963,407.16,474.58
39.62066,406.76,476.81
39.63946,407.00,476.20
39.66025,408.63,474.67
39.67972,404.50,476.16
39.69998,408.57,476.55
39.72042,404.87,474.07
39.73910,404.53,476.58
39.76007,403.97,476.31
39.78042,404.94,476.72
39.80021,403.05,473.57
39.82037,402.65,475.84
39.83974,398.83,478.73
39.86026,391.85,478.12
39.88014,374.25,479.69
39.89959,351.18,478.07
39.92087,325.61,472.34
39.93982,304.24,462.29
39.96000,283.05,457.36
39.98041,266.94,447.55
39.99902,259.84,441.90
40.01958,260.04,442.20
40.03926,265.18,441.65
40.05898,272.79,440.45
40.08090,284.68,444.44
40.10037,292.51,447.43
40.11940,303.54,450.57
40.13973,316.92,451.26
40.15933,325.93,453.66
40.17972,336.30,456.23
40.19951,344.27,458.48
40.21913,351.30,458.92
40.23925,360.01,462.27
40.25967,364.40,464.41
40.28011,370.68,462.83
40.30044,376.60,465.56
40.31889,379.06,468.17
40.33942,380.94,469.37
40.36024,383.96,469.91
40.38102,387.82,469.98
40.39948,388.68,470.96
40.41911,389.63,471.63
40.44000,393.17,472.85
40.45932,392.50,472.92
40.48076,395.78,472.90
40.49918,397.15,474.18
40.51979,396.46,474.03
40.53996,399.25,475.36
40.55910,398.82,472.81
40.57985,398.07,474.89
40.59976,401.48,474.78
40.62080,400.41,476.24
40.64094,400.58,474.20
40.66081,403.57,475.62
40.68076,402.33,477.42
40.70007,401.13,476.41
40.72062,402.06,475.25
40.74025,403.41,475.52
40.76097,403.33,477.22
40.78084,403.86,474.80
40.80161,402.07,476.07
40.82141,401.25,477.12
40.84125,404.80,472.79
40.86051,403.19,474.52
40.88009,401.89,474.43
40.90022,401.98,473.89
40.92119,400.26,474.32
40.94109,400.24,471.97
40.96168,401.58,471.20
40.98093,404.08,473.89
41.00162,400.67,470.23
41.02248,399.94,472.98
41.04197,402.71,472.45
41.06114,400.75,472.64
41.08077,403.21,472.88
41.10184,402.02,469.77
41.12191,401.97,470.05
41.14236,404.42,472.26
41.16149,404.07,472.32
41.18188,401.53,472.39
41.20186,400.96,470.92
41.22250,402.32,470.15
41.24273,403.24,469.51
41.26132,406.39,470.44
41.28114,403.85,470.56
41.30184,404.55,472.35
41.32124,403.36,470.54
41.34269,405.58,470.23
41.36136,404.46,470.32
41.38235,402.38,471.52
41.40270,404.32,472.04
41.42282,403.53,471.36
41.44244,402.32,470.52
41.46261,402.41,471.92
41.48190,404.06,471.64
41.50084,405.71,468.08
41.52146,402.74,468.63
41.54235,401.28,471.47
41.56162,402.97,471.22
41.58254,401.11,469.80
41.60071,403.18,469.61
41.62103,401.47,470.50
41.64133,400.49,470.29
41.66276,403.48,470.59
41.68236,400.29,469.95
41.70119,401.35,471.46
41.72271,402.34,469.82
41.74240,403.39,470.66
41.76208,401.14,471.72
41.78210,403.22,468.30
41.80258,402.85,467.94
41.82077,401.41,470.10
41.84233,401.25,469.36
41.86233,401.92,470.99
41.88118,403.65,471.95
41.90273,403.32,473.27
41.92252,400.85,471.56
41.94142,401.42,471.27
41.96277,404.46,470.77
41.98197,403.28,473.48
42.00236,401.43,471.96
42.02205,401.78,473.78
42.04245,401.65,474.18
42.06224,401.85,475.13
42.08254,402.42,472.37
42.10129,401.11,474.53
42.12105,404.27,471.08
42.14107,405.30,474.46
42.16237,401.65,473.00
42.18254,395.80,479.91
42.20208,392.80,491.08
42.22155,388.50,506.99
42.24125,388.27,524.24
42.26199,386.20,540.71
42.28123,385.29,543.85
42.30224,384.20,529.89
42.32092,380.90,515.89
42.34182,382.12,493.43
42.36141,383.52,472.80
42.38253,383.28,456.47
42.40129,384.35,445.91
42.42163,388.05,434.22
42.44265,386.45,426.33
42.46103,390.99,419.08
42.48243,391.68,420.21
42.50259,393.25,420.46
42.52246,395.20,420.68
42.54227,393.91,423.71
42.56230,393.94,426.60
42.58146,393.26,433.34
42.60178,393.16,434.02
42.62237,395.96,441.41
42.64287,398.25,442.74
42.66172,396.00,446.17
42.68258,397.44,449.54
42.70162,401.14,454.65
42.72272,400.31,460.60
42.74272,399.42,464.68
42.76246,402.86,465.26
42.78202,402.20,468.01
42.80190,401.98,469.45
42.82199,403.58,473.65
42.84179,402.70,476.59
42.86119,403.53,478.80
42.88270,404.01,479.79
42.90221,404.01,481.02
