Program Time [s],data 0,data 1
4.74017,548.55,630.21
4.75956,551.12,631.49
4.78049,551.82,631.10
4.80036,551.92,630.80
4.82065,553.34,632.61
4.84198,555.04,629.46
4.86167,553.05,630.30
4.88097,552.67,627.89
4.90041,550.86,627.78
4.92150,551.36,627.86
4.94120,549.53,626.53
4.96006,550.26,622.14
4.98152,548.41,624.45
5.00091,548.62,625.21
5.02216,545.56,628.11
5.04250,544.13,627.58
5.06250,543.58,626.93
5.08211,541.05,627.31
5.10263,542.17,628.24
5.12272,537.91,626.53
5.14346,540.00,624.12
5.16178,539.51,623.44
5.18294,540.89,621.66
5.20215,543.77,621.13
5.22363,542.52,623.03
5.24380,539.46,614.98
5.26454,539.82,611.34
5.28335,537.46,611.08
5.30456,538.23,609.15
5.32487,538.25,608.10
5.34427,537.15,606.70
5.36401,534.22,607.15
5.38438,534.39,607.55
5.40460,535.74,608.21
5.42313,536.15,613.58
5.44300,534.20,613.79
5.46458,533.56,611.57
5.48462,533.35,613.63
5.50366,531.83,618.05
5.52326,531.16,617.09
5.54348,533.69,616.01
5.56351,533.68,614.07
5.58446,536.41,613.90
5.60450,538.45,612.15
5.62345,540.91,615.48
5.64395,541.27,614.56
5.66325,540.97,611.78
5.68310,542.18,611.71
5.70391,539.23,609.81
5.72419,539.46,611.04
5.74324,538.81,610.09
5.76393,542.11,608.72
5.78367,539.48,613.93
5.80303,537.52,614.80
5.82482,536.66,614.16
5.84410,534.70,617.65
5.86452,536.72,616.60
5.88399,533.29,618.84
5.90344,534.38,621.76
5.92395,534.90,624.72
5.94320,536.78,628.25
5.96332,538.60,628.56
5.98437,538.12,631.82
6.00351,541.11,629.01
6.02335,542.57,627.80
6.04340,546.08,628.33
6.06315,543.06,627.03
6.08356,546.65,623.74
6.10398,547.04,619.00
6.12379,544.47,616.64
6.14417,546.44,617.48
6.16322,544.68,629.74
6.18309,542.16,648.47
6.20408,536.70,659.29
6.22341,535.36,663.21
6.24356,534.97,666.00
6.26386,533.43,660.70
6.28477,534.81,654.62
6.30444,531.93,649.28
6.32312,531.79,647.03
6.34374,531.20,639.88
6.36479,529.41,635.77
6.38356,532.81,630.70
6.40393,534.33,628.92
6.42409,536.37,626.96
6.44335,538.47,624.10
6.46409,539.89,621.62
6.48381,538.41,618.26
6.50447,539.89,618.30
6.52459,537.58,619.44
6.54320,537.44,619.32
6.56371,540.96,618.78
6.58360,539.19,617.57
6.60384,540.61,618.73
6.62342,543.37,618.03
6.64393,541.51,618.09
6.66459,540.06,617.62
6.68470,543.58,616.62
6.70390,540.62,616.59
6.72357,544.17,614.86
6.74401,542.37,614.92
6.76300,540.48,614.10
6.78435,543.24,613.70
6.80291,543.41,610.72
6.82489,543.90,614.02
6.84512,542.08,613.51
6.86516,541.14,609.25
6.88476,539.34,595.08
6.90420,540.46,578.21
6.92507,539.67,558.83
6.94431,538.54,535.11
6.96368,538.53,515.06
6.98519,535.10,502.05
7.00491,538.39,493.01
7.02547,534.74,491.85
7.04531,533.53,489.82
7.06529,531.79,494.68
7.08486,532.18,504.28
7.10495,532.59,512.17
7.12545,533.45,521.71
7.14475,533.28,530.66
7.16476,535.74,539.66
7.18374,535.00,547.73
7.20389,537.64,556.85
7.22564,537.03,565.22
7.24535,536.15,573.68
7.26490,538.03,579.32
7.28525,537.51,584.11
7.30459,537.90,592.10
7.32686,541.13,594.52
7.34636,539.55,597.46
7.36614,540.46,602.27
7.38492,538.72,603.10
7.40565,539.56,607.69
7.42578,543.61,607.64
7.44563,539.62,610.71
7.46597,539.12,616.08
7.48624,541.73,615.51
7.50673,541.50,617.55
7.52527,539.72,620.01
7.54622,542.18,622.19
7.56611,541.82,622.03
7.58529,540.04,623.09
7.60624,540.74,619.89
7.62618,542.85,621.87
7.64504,541.79,619.15
7.66652,542.66,618.43
7.68617,541.18,620.13
7.70475,542.05,616.94
7.72538,541.53,617.55
7.74627,539.02,629.38
7.76550,542.65,651.85
7.78543,547.34,695.18
7.80639,548.56,745.24
7.82622,556.41,777.58
7.84685,557.18,796.35
7.86480,555.92,798.59
7.88501,550.93,791.48
7.90567,550.08,776.68
7.92587,547.61,758.94
7.94607,542.83,737.60
7.96566,544.56,720.80
7.98506,542.32,705.26
8.00602,542.56,692.69
8.02539,543.25,683.13
8.04619,539.87,671.51
8.06547,542.00,663.16
8.08600,540.21,658.48
8.10656,543.44,650.90
8.12499,541.52,646.65
8.14621,539.47,643.93
8.16495,540.86,642.07
8.18580,540.17,637.09
8.20515,539.73,637.06
8.22589,540.75,633.77
8.24765,544.22,632.61
8.26772,543.80,631.53
8.28607,544.13,630.41
8.30726,545.06,630.71
8.32712,544.69,630.66
8.34656,545.27,631.65
8.36741,543.46,632.50
8.38611,545.33,633.39
8.40677,543.83,631.14
8.42720,544.24,629.22
8.44644,546.91,630.85
8.46736,544.79,628.85
8.48688,544.67,629.06
8.50599,547.18,628.70
8.52696,546.82,632.33
8.54650,546.26,630.28
8.56731,547.71,630.62
8.58675,548.18,631.61
8.60720,545.58,629.56
8.62686,546.70,631.83
8.64713,543.81,631.12
8.66754,545.16,628.28
8.68766,546.42,629.72
8.70753,547.51,627.59
8.72581,543.60,627.21
8.74609,544.18,625.72
8.76713,544.28,624.22
8.78593,547.31,623.67
8.80572,544.78,622.55
8.82754,544.33,621.64
8.84682,544.59,626.03
8.86731,542.51,615.95
8.88754,540.90,605.34
8.90692,540.95,582.74
8.92581,538.02,559.88
8.94608,536.58,532.80
8.96619,530.19,511.82
8.98625,526.85,497.58
9.00637,528.07,492.52
9.02631,526.63,486.90
9.04726,527.62,489.52
9.06697,529.77,496.34
9.08699,530.67,502.54
9.10593,534.10,510.44
9.12772,534.13,523.21
9.14647,536.00,532.73
9.16641,534.83,543.02
9.18738,536.80,551.86
9.20763,538.93,563.27
9.22675,540.96,570.61
9.24694,540.05,579.49
9.26586,541.36,586.65
9.28702,544.41,593.31
9.30765,543.09,599.30
9.32653,543.75,601.26
9.34625,544.17,605.67
9.36686,541.61,610.68
9.38641,542.92,613.67
9.40715,545.49,618.35
9.42757,542.70,619.63
9.44629,545.63,618.52
9.46601,541.64,621.34
9.48720,542.70,624.95
9.50602,542.35,622.36
9.52626,544.17,623.52
9.54568,546.65,625.79
9.56703,546.31,627.43
9.58761,544.58,626.77
9.60758,548.84,628.75
9.62758,547.67,632.85
9.64754,549.74,638.18
9.66721,552.38,638.65
9.68820,551.16,640.09
9.70725,550.33,639.61
9.72858,551.18,638.47
9.74810,553.16,639.76
9.76879,550.83,637.21
9.78870,552.32,649.25
9.80998,552.77,674.64
9.82986,558.31,711.74
9.85072,559.50,745.28
9.86966,563.79,770.60
9.89063,565.84,793.68
9.90865,565.21,797.54
9.92942,563.45,792.69
9.94959,566.06,778.98
9.96881,560.94,761.77
9.98887,561.02,746.19
10.00962,558.60,728.29
10.03060,558.43,714.35
10.04925,555.07,699.41
10.06924,558.60,691.65
10.08953,558.09,680.83
10.10966,553.29,675.56
10.12875,552.39,666.23
10.15063,551.36,661.78
10.16989,549.40,657.47
10.19021,549.52,652.08
10.21054,549.86,648.17
10.22932,551.15,645.13
10.24984,549.61,642.77
10.26961,547.30,642.88
10.29016,548.46,641.74
10.30928,549.77,638.51
10.32946,545.62,637.08
10.35048,544.66,636.87
10.37038,543.26,635.67
10.38894,542.89,633.53
10.40871,543.13,635.65
10.43000,546.35,632.98
10.44908,543.56,634.05
10.46875,543.55,630.48
10.48901,545.20,630.92
10.51038,542.75,628.21
10.52902,542.27,628.05
10.54906,540.87,629.63
10.56933,542.47,627.84
10.59046,541.26,629.56
10.60999,539.65,629.86
10.62901,539.63,628.41
10.65070,543.24,627.47
10.66939,540.51,628.67
10.68873,543.87,628.29
10.71024,542.04,625.40
10.72939,545.36,625.21
10.74894,544.26,627.59
10.76985,544.15,626.99
10.79044,544.79,631.94
10.80908,548.53,632.39
10.82957,545.66,625.72
10.84979,544.44,614.41
10.86990,540.78,595.07
10.89022,540.08,577.12
10.91024,538.95,559.24
10.93003,538.12,543.88
10.94870,535.85,531.43
10.96954,534.47,517.51
10.98858,533.70,508.69
11.00899,532.63,499.34
11.02913,532.82,496.19
11.05046,531.94,498.11
11.07018,533.41,501.11
11.09028,532.52,505.80
11.10872,534.94,513.77
11.13023,535.43,518.41
11.14992,537.20,526.67
11.16850,537.27,539.20
11.18971,538.05,548.14
11.20970,537.99,557.77
11.22930,538.46,566.77
11.24954,538.73,574.44
11.26939,540.07,581.92
11.29043,541.34,586.19
11.30942,540.23,590.63
11.32889,541.71,596.69
11.34968,541.47,601.46
11.36967,540.40,602.84
11.38867,540.06,608.42
11.41012,542.29,608.56
11.43023,539.85,613.52
11.44972,543.77,613.70
11.47061,542.28,615.92
11.48946,540.62,616.98
11.50949,542.10,617.60
11.52938,544.56,620.04
11.55008,541.39,621.04
11.56995,540.61,621.13
11.58861,543.29,620.44
11.60995,544.80,622.27
11.62866,543.36,624.79
11.64975,543.42,624.44
11.67039,545.11,625.58
11.68872,545.19,623.79
11.70933,542.13,624.70
11.72931,544.59,624.97
11.74894,541.51,622.90
11.77046,540.78,623.24
11.78966,540.20,625.78
11.80978,544.16,623.36
11.82898,544.85,624.91
11.84931,542.59,644.59
11.86920,545.92,674.04
11.89048,551.31,714.54
11.91019,553.53,755.38
11.92873,551.23,788.26
11.95010,551.37,809.63
11.97052,551.11,822.52
11.98993,548.60,820.82
12.01116,550.97,802.75
12.03084,547.69,783.73
12.05003,549.43,761.51
12.07055,546.70,739.12
12.09139,545.27,721.83
12.11236,541.85,707.29
12.13182,543.93,689.12
12.15147,541.86,677.22
12.17170,540.84,669.78
12.19136,541.02,661.71
12.21310,539.83,654.59
12.23185,539.76,650.43
12.25295,541.77,644.51
12.27248,537.77,641.66
12.29199,540.56,636.99
12.31168,539.59,632.37
12.33368,542.05,634.06
12.35307,541.28,633.06
12.37339,543.26,627.57
12.39339,543.48,625.74
12.41369,542.31,624.66
12.43422,543.60,625.22
12.45300,546.46,623.42
12.47432,544.32,617.98
12.49391,547.84,617.81
12.51394,544.49,620.45
12.53302,547.05,618.41
12.55424,543.70,616.38
12.57428,543.30,619.89
12.59424,544.13,617.48
12.61442,546.16,619.39
12.63421,545.09,618.52
12.65332,541.86,619.07
12.67437,540.73,618.93
12.69379,544.58,617.82
12.71337,542.59,620.33
12.73316,541.05,617.99
12.75314,542.68,618.80
12.77395,541.87,619.25
12.79418,539.88,617.79
12.81362,542.67,619.96
12.83396,543.56,621.02
12.85497,540.27,619.63
12.87503,542.13,614.34
12.89453,542.92,608.63
12.91403,541.65,608.98
12.93461,540.79,605.57
12.95488,539.71,606.79
12.97539,539.65,608.17
12.99392,543.06,608.06
13.01456,540.15,613.14
13.03384,539.29,612.15
13.05542,543.50,615.50
13.07384,542.67,613.61
13.09382,543.12,612.81
13.11380,542.63,617.91
13.13458,546.66,613.71
13.15556,547.11,610.51
13.17392,542.73,598.78
13.19523,544.63,586.37
13.21538,539.38,571.13
13.23363,540.43,552.91
13.25525,538.82,541.05
13.27436,536.70,528.72
13.29431,532.08,522.16
13.31374,529.63,514.48
13.33468,530.94,511.79
13.35545,530.50,508.96
13.37522,526.59,509.13
13.39514,529.82,513.37
13.41436,528.65,515.70
13.43353,530.75,523.91
13.45426,531.67,530.41
13.47402,535.97,539.77
13.49490,537.12,546.80
13.51428,541.07,552.87
13.53536,538.19,560.07
13.55366,538.38,570.68
13.57458,540.42,576.25
13.59550,538.41,583.28
13.61491,540.29,586.38
13.63413,540.75,589.94
13.65495,539.50,593.30
13.67500,540.61,597.15
13.69466,539.30,600.18
13.71476,539.07,602.61
13.73420,541.05,605.32
13.75494,541.98,604.69
13.77418,545.26,608.46
13.79617,544.96,610.53
13.81636,546.47,613.21
13.83512,548.60,614.92
13.85562,548.02,617.74
13.87527,547.95,617.23
13.89527,549.01,619.27
13.91643,548.02,620.10
13.93527,548.54,617.66
13.95637,544.81,620.90
13.97645,544.86,619.20
13.99551,544.96,623.23
14.01769,543.58,625.35
14.03657,547.31,625.32
14.05711,545.75,624.03
14.07735,547.71,628.15
14.09655,547.83,631.08
14.11736,545.48,631.25
14.13654,546.00,631.26
14.15626,545.03,628.50
14.17741,548.08,630.41
14.19648,548.23,629.45
14.21567,546.54,628.25
14.23720,545.22,628.00
14.25556,545.71,626.49
14.27708,545.50,625.16
14.29655,550.14,630.30
14.31723,552.61,659.99
14.33665,553.64,696.89
14.35744,552.31,733.38
14.37716,553.79,761.91
14.39708,550.48,779.74
14.41812,552.20,796.32
14.43781,552.23,800.11
14.45709,556.02,793.56
14.47651,555.73,778.91
14.49684,555.62,759.74
14.51859,552.33,740.36
14.53794,552.50,723.64
14.55771,549.97,707.65
14.57690,548.99,694.89
14.59781,545.82,685.56
14.61847,546.50,673.35
14.63796,546.87,668.37
14.65765,546.22,660.01
14.67807,548.65,654.93
14.69673,544.76,650.12
14.71678,550.55,648.89
14.73830,552.79,643.35
14.75831,549.63,640.90
14.77704,548.89,638.06
14.79849,549.04,637.39
14.81657,549.54,633.39
14.83712,548.52,632.03
14.85734,549.28,629.45
14.87716,549.29,630.16
14.89700,549.92,629.85
14.91810,550.13,628.38
14.93909,548.50,625.60
14.95833,547.38,626.82
14.97904,546.30,623.34
14.99827,544.88,624.78
15.01930,547.02,626.04
15.03943,546.81,625.61
15.05951,548.22,626.89
15.07908,544.85,626.37
15.09828,545.34,627.52
15.11940,547.18,625.46
15.13914,545.28,623.88
15.15831,546.53,623.20
15.17889,547.73,623.48
15.19803,547.74,624.23
15.21944,544.46,626.91
15.23815,545.31,627.08
15.25785,545.17,624.25
15.27927,542.40,618.15
15.29779,537.85,608.70
15.31833,535.07,596.09
15.33938,530.85,583.97
15.35887,523.16,569.72
15.37827,522.97,555.37
15.39834,520.76,543.72
15.41828,520.55,534.08
15.43869,521.00,528.15
15.45784,527.55,520.97
15.47865,528.99,516.62
15.49834,534.82,509.54
15.51825,536.73,509.45
15.53888,536.51,511.66
15.55855,543.54,513.97
15.57790,546.85,517.21
15.59795,549.34,523.06
15.61949,549.68,525.76
15.63805,549.46,535.70
15.65808,550.87,541.27
15.67931,553.55,550.15
15.69874,551.33,557.38
15.71874,549.91,566.36
15.73927,552.63,572.80
15.75846,550.07,575.97
15.77790,552.09,583.57
15.79828,549.52,591.18
15.81777,549.18,595.53
15.83765,549.82,599.71
15.85942,547.73,604.29
15.87821,547.16,608.16
15.89900,549.07,615.05
15.91923,549.62,617.40
15.93952,547.83,621.43
15.95778,549.70,623.86
15.97934,547.68,625.43
15.99805,545.57,624.70
16.01859,544.96,625.98
16.03883,545.20,626.00
16.05896,545.08,624.60
16.07920,546.01,625.55
16.09917,547.67,626.63
16.11793,548.15,625.32
16.13839,549.23,625.50
16.15769,546.09,625.83
16.17891,546.97,631.80
16.19771,545.76,631.87
16.21780,545.06,634.28
16.23781,546.88,633.68
16.25869,544.30,634.08
16.27877,545.09,632.60
16.29888,545.52,633.54
16.31850,545.54,632.61
16.33841,543.23,629.85
16.35798,542.50,629.64
16.37815,544.74,628.36
16.39824,544.38,625.25
16.41833,545.37,622.84
16.43949,544.23,622.25
16.45932,546.10,619.12
16.47831,545.30,619.52
16.49895,542.37,615.59
16.51910,544.73,616.84
16.53838,542.31,614.32
16.55770,543.24,615.01
16.57867,543.70,614.01
16.59882,541.42,614.89
16.61868,543.40,615.90
16.63789,543.28,618.05
16.65798,543.79,618.90
16.67823,542.44,617.27
16.69919,544.41,619.66
16.71958,545.58,619.67
16.73785,543.96,620.37
16.75885,541.20,620.26
16.77911,542.34,617.75
16.79813,543.25,630.40
16.81761,546.47,656.71
16.83858,550.52,697.50
16.86039,550.22,741.37
16.87960,551.48,773.88
16.89934,551.00,793.06
16.92005,548.21,792.23
16.93914,547.87,786.06
16.95993,546.02,773.28
16.97963,546.49,752.94
17.00004,545.10,739.56
17.01883,546.84,719.72
17.03893,543.61,708.05
17.06047,544.58,693.79
17.08001,543.43,684.22
17.09840,541.80,672.46
17.11873,542.51,663.72
17.13867,539.73,655.81
17.15884,539.50,646.82
17.17919,543.48,641.57
17.20022,545.83,637.56
17.21868,544.55,634.49
17.23925,544.28,629.47
17.26026,544.52,629.35
17.27987,544.37,622.45
17.29952,543.68,621.68
17.31884,543.90,620.90
17.33937,541.75,618.49
17.36120,540.09,619.02
17.38000,540.53,615.52
17.40037,539.35,616.45
17.42118,540.77,618.73
17.44195,537.93,615.11
17.46115,540.29,615.74
17.48203,539.83,612.51
17.50073,539.59,613.53
17.52162,541.44,614.26
17.54059,540.28,612.95
17.56114,542.04,614.94
17.58150,541.99,622.70
17.60245,540.79,619.80
17.62190,539.10,616.50
17.64161,542.49,605.16
17.66136,540.60,589.58
17.68223,539.97,570.73
17.70167,538.83,556.26
17.72045,539.27,543.75
17.74081,539.34,533.48
17.76107,536.40,525.06
17.78143,535.59,515.28
17.80084,532.17,511.14
17.82224,534.60,503.96
17.84098,536.47,502.03
17.86248,536.05,503.92
17.88118,539.38,506.73
17.90094,539.11,512.39
17.92205,535.74,519.51
17.94235,533.70,523.60
17.96216,533.79,531.47
17.98317,535.79,541.55
18.00240,538.36,547.67
18.02196,537.60,556.92
18.04222,537.16,563.19
18.06288,536.65,569.10
18.08253,537.89,574.36
18.10181,535.55,583.32
18.12336,536.96,587.38
18.14194,536.32,591.67
18.16286,536.16,595.36
18.18289,534.83,596.95
18.20229,535.84,600.01
18.22211,536.03,601.66
18.24161,538.13,606.76
18.26194,537.38,607.96
18.28243,538.22,606.53
18.30222,537.69,609.09
18.32255,539.74,609.63
18.34256,541.35,612.02
18.36336,537.10,611.91
18.38194,538.84,613.31
18.40183,539.71,612.67
18.42195,537.72,615.70
18.44346,537.93,615.62
18.46154,537.57,615.45
18.48334,537.69,615.18
18.50257,540.23,617.26
18.52227,541.51,616.79
18.54245,540.72,616.80
18.56205,540.16,616.35
18.58220,543.32,615.40
18.60265,542.40,615.49
18.62308,540.85,621.60
18.64163,540.67,645.54
18.66229,545.36,682.27
18.68301,546.38,717.61
18.70216,549.22,749.09
18.72212,551.51,779.42
18.74302,548.42,795.54
18.76226,550.70,805.32
18.78189,549.24,807.00
18.80314,548.98,796.41
18.82190,549.90,785.30
18.84351,550.74,765.92
18.86150,548.12,746.61
18.88349,548.87,727.82
18.90164,546.53,709.91
18.92131,546.96,693.61
18.94211,543.81,681.81
18.96257,543.05,673.03
18.98178,541.54,663.18
19.00207,544.18,653.10
19.02293,540.53,646.38
19.04358,541.91,637.82
19.06295,543.73,630.07
19.08273,542.32,625.54
19.10336,543.05,616.89
19.12307,541.69,611.80
19.14239,542.15,609.30
19.16152,542.18,606.06
19.18152,539.08,602.34
19.20341,539.12,600.54
19.22284,540.48,601.44
19.24320,540.03,604.04
19.26161,541.86,600.33
19.28270,541.09,600.86
19.30166,541.95,606.09
19.32301,543.62,604.64
19.34278,545.74,606.80
19.36325,542.41,609.85
19.38238,542.44,610.21
19.40220,541.91,611.33
19.42146,540.08,611.98
19.44177,539.72,614.29
19.46250,541.81,612.98
19.48300,541.52,612.19
19.50183,539.45,611.51
19.52141,541.58,612.43
19.54245,539.29,613.65
19.56198,539.00,615.75
19.58317,544.29,609.71
19.60158,545.91,598.48
19.62234,546.45,586.21
19.64176,546.37,570.25
19.66169,549.29,555.87
19.68352,551.11,538.73
19.70205,551.26,527.88
19.72175,550.45,518.85
19.74314,549.97,510.42
19.76256,547.27,507.28
19.78328,548.11,502.87
19.80222,546.54,499.98
19.82199,543.21,501.88
19.84158,541.60,503.53
19.86279,541.76,508.92
19.88210,537.41,515.55
19.90155,537.00,516.85
19.92212,537.01,523.40
19.94182,535.89,530.37
19.96290,535.27,539.46
19.98294,534.59,548.32
20.00214,535.17,554.10
20.02327,533.24,564.72
20.04134,537.41,571.37
20.06166,535.74,576.83
20.08289,540.21,582.52
20.10190,540.09,590.61
20.12329,539.54,595.79
20.14152,538.68,599.58
20.16242,541.73,602.01
20.18180,541.89,610.29
20.20323,541.57,612.05
20.22390,541.53,615.70
20.24416,541.38,619.72
20.26350,542.51,623.70
20.28411,541.11,623.12
20.30315,540.32,626.32
20.32352,541.00,626.88
20.34439,540.33,624.72
20.36479,540.90,625.20
20.38423,542.93,624.80
20.40425,543.76,625.62
20.42557,545.90,625.95
20.44392,543.33,622.59
20.46404,547.09,625.89
20.48408,546.43,624.05
20.50393,550.32,624.81
20.52448,547.52,623.57
20.54541,548.54,626.93
20.56446,546.46,623.62
20.58382,544.72,624.91
20.60428,546.42,623.93
20.62424,545.10,625.40
20.64387,544.33,643.24
20.66433,547.17,678.46
20.68372,549.97,729.63
20.70467,549.34,775.18
20.72425,552.34,811.85
20.74389,555.41,826.59
20.76508,555.98,832.11
20.78428,555.98,824.54
20.80468,551.96,808.75
20.82492,551.19,788.45
20.84374,550.57,765.80
20.86424,546.34,747.06
20.88403,546.41,726.59
20.90368,545.89,708.07
20.92359,544.04,691.06
20.94366,546.30,677.64
20.96505,544.29,670.98
20.98524,547.65,660.90
21.00464,544.92,655.13
21.02425,547.13,650.77
21.04481,543.25,642.69
21.06418,546.78,639.00
21.08461,547.11,635.19
21.10393,547.96,631.21
21.12407,548.21,629.52
21.14353,551.49,626.81
21.16486,550.69,627.24
21.18393,550.80,626.26
21.20513,547.31,625.88
21.22549,546.68,627.22
21.24469,548.09,626.93
21.26541,546.42,624.07
21.28446,545.76,624.62
21.30511,546.68,627.55
21.32522,549.41,627.54
21.34423,547.72,627.43
21.36418,550.37,625.44
21.38384,549.95,626.44
21.40476,549.60,628.57
21.42467,547.93,626.34
21.44402,545.12,626.61
21.46490,546.85,629.05
21.48390,543.89,625.47
21.50424,542.13,624.03
21.52447,544.11,624.93
21.54377,544.77,622.41
21.56359,543.93,624.75
21.58471,545.70,625.30
21.60412,546.46,625.55
21.62376,542.85,629.06
21.64524,543.13,624.11
21.66384,543.90,618.75
21.68421,545.10,601.93
21.70508,544.42,586.39
21.72510,543.46,564.76
21.74471,543.81,549.39
21.76539,540.50,536.83
21.78457,538.06,521.68
21.80374,537.60,512.62
21.82493,536.36,506.75
21.84497,534.81,504.90
21.86496,533.45,503.61
21.88416,535.38,504.37
21.90434,538.46,507.68
21.92464,539.66,514.05
21.94375,537.73,519.10
21.96386,537.53,528.81
21.98422,540.52,534.24
22.00346,539.35,546.38
22.02496,539.73,553.08
22.04518,540.89,561.25
22.06372,542.14,567.75
22.08387,543.09,572.67
22.10505,545.07,579.19
22.12488,543.42,587.07
22.14370,545.61,590.87
22.16511,545.28,595.29
22.18494,546.56,600.54
22.20519,544.28,603.99
22.22549,545.57,606.36
22.24489,543.71,608.80
22.26492,544.94,608.11
22.28446,544.80,612.19
22.30358,547.28,613.31
22.32372,544.64,613.64
22.34488,546.47,617.55
22.36528,545.83,616.86
22.38360,544.87,616.62
22.40331,547.66,618.49
22.42336,543.79,620.28
22.44502,543.99,623.22
22.46536,544.96,624.66
22.48449,545.06,627.08
22.50488,545.12,628.20
22.52363,543.86,629.37
22.54399,542.03,628.52
22.56393,541.36,627.66
22.58484,543.61,627.68
22.60389,541.40,628.05
22.62466,542.78,626.98
22.64453,543.46,624.85
22.66369,541.77,623.43
22.68515,538.85,623.90
22.70375,541.26,644.45
22.72482,542.10,677.52
22.74363,540.86,718.11
22.76392,542.13,756.10
22.78466,543.08,779.88
22.80480,546.06,801.23
22.82537,546.10,806.55
22.84388,548.48,802.19
22.86481,548.41,787.51
22.88412,546.93,770.56
22.90476,548.74,753.13
22.92402,547.90,731.91
22.94454,544.67,717.87
22.96626,543.00,702.08
22.98453,544.20,690.16
23.00544,541.17,675.50
23.02591,543.48,667.57
23.04535,541.18,661.71
23.06578,542.61,653.10
23.08464,540.60,648.83
23.10481,541.09,642.78
23.12635,544.49,640.34
23.14694,544.31,636.96
23.16592,542.62,631.81
23.18659,539.25,627.94
23.20616,539.06,625.77
23.22538,542.80,626.95
23.24724,540.93,624.82
23.26657,540.45,622.56
23.28766,543.29,622.46
23.30838,541.14,619.98
23.32817,541.55,620.14
23.34714,541.44,621.27
23.36672,538.19,621.21
23.38716,538.78,618.25
23.40824,539.42,617.25
23.42692,536.97,616.58
23.44833,536.72,619.28
23.46698,538.03,617.01
23.48801,538.34,621.12
23.50731,539.07,616.54
23.52821,538.59,619.47
23.54812,539.69,618.24
23.56713,537.63,616.24
23.58763,538.39,616.84
23.60803,538.33,618.33
23.62763,540.58,619.58
23.64677,537.13,613.23
23.66708,538.73,607.19
23.68748,535.73,597.26
23.70777,532.60,582.42
23.72732,529.79,567.04
23.74643,531.12,551.96
23.76768,527.66,536.41
23.78674,529.56,521.22
23.80633,528.25,510.76
23.82806,527.22,500.46
23.84787,531.17,495.26
23.86775,532.21,494.55
23.88740,537.27,495.58
23.90744,537.03,496.23
23.92810,540.07,502.75
23.94714,540.46,511.00
23.96712,538.77,521.07
23.98780,539.94,529.41
24.00805,538.18,537.93
24.02663,539.31,550.23
24.04719,540.05,556.24
24.06694,541.49,565.80
24.08808,538.81,570.95
24.10744,538.74,578.13
24.12691,539.63,585.95
24.14695,543.57,588.51
24.16685,544.89,594.43
24.18723,541.58,596.45
24.20660,542.62,601.30
24.22680,543.50,606.17
24.24791,544.05,605.14
24.26714,544.12,608.33
24.28802,545.67,610.49
24.30652,542.71,612.01
24.32764,543.30,612.03
24.34672,544.13,614.39
24.36669,543.10,615.05
24.38746,538.81,614.22
24.40709,538.67,615.60
24.42688,540.00,616.95
24.44645,539.73,614.63
24.46820,540.34,614.31
24.48635,540.04,617.14
24.50839,538.61,616.28
24.52777,539.48,616.38
24.54670,538.67,615.74
24.56683,540.49,616.65
24.58633,541.28,617.33
24.60782,539.75,618.82
24.62775,541.36,616.79
24.64675,541.54,615.80
24.66721,540.75,616.67
24.68759,539.15,619.70
24.70842,543.24,619.94
24.72829,543.56,636.89
24.74783,547.12,673.88
24.76886,550.10,721.52
24.78857,551.95,759.49
24.80769,551.97,794.39
24.82823,551.89,808.70
24.84925,554.82,810.35
24.86898,554.91,795.35
24.88868,553.80,777.22
24.90817,551.08,759.32
24.92723,549.08,740.41
24.94752,548.68,720.57
24.96845,547.16,705.46
24.98870,546.88,693.36
25.00778,545.58,683.83
25.02772,546.48,671.46
25.04733,544.21,664.18
25.06912,544.28,655.29
25.08892,542.45,646.76
25.10848,544.50,645.05
25.12908,542.50,641.97
25.14824,543.35,636.99
25.16894,538.18,631.02
25.18726,538.43,628.80
25.20903,540.93,625.37
25.22843,541.39,623.85
25.24894,540.89,623.11
25.26900,540.21,623.18
25.28826,541.57,620.86
25.30878,538.69,621.64
25.32804,538.46,621.78
25.34745,539.64,622.23
25.36794,540.83,622.50
25.38785,540.49,621.21
25.40818,541.64,618.36
25.42932,539.86,619.19
25.44922,544.34,620.82
25.46844,543.68,619.88
25.48810,546.00,618.63
25.50885,544.14,618.73
25.52960,543.53,621.20
25.54940,544.27,623.29
25.56988,543.63,623.31
25.58851,543.75,620.39
25.60923,541.97,622.88
25.62911,544.59,624.37
25.64941,542.03,623.76
25.66876,545.02,620.02
25.68933,546.49,619.37
25.70997,543.53,619.74
25.72953,545.61,622.48
25.74963,542.51,625.26
25.76991,544.54,622.46
25.78824,542.57,616.67
25.81015,539.70,603.90
25.83012,538.99,589.67
25.84997,535.48,570.04
25.86910,528.80,557.21
25.88920,530.02,545.47
25.90841,531.25,532.16
25.92959,528.48,522.35
25.94967,530.37,519.24
25.97008,531.17,513.91
25.98824,533.76,508.86
26.00857,534.75,507.44
26.03024,537.36,511.41
26.04982,539.16,515.22
26.06921,543.05,521.32
26.08921,543.24,524.58
26.10964,545.97,533.29
26.13008,548.15,543.05
26.14978,544.82,550.40
26.16971,544.96,558.72
26.18987,547.71,564.81
26.20975,544.77,570.88
26.22918,545.85,577.13
26.24901,546.29,583.77
26.26933,545.63,586.28
26.28912,548.54,589.87
26.30901,548.45,594.20
26.32914,548.52,599.49
26.35038,552.37,601.71
26.36997,548.32,603.37
26.38972,549.64,608.00
26.40959,550.55,611.30
26.43016,547.71,611.06
26.44873,548.34,614.71
26.46978,547.75,616.22
26.48971,549.35,616.07
26.51026,545.68,619.13
26.52967,546.61,617.15
26.54950,545.18,619.06
26.56960,543.94,619.39
26.59015,543.58,618.94
26.60873,540.85,621.18
26.62866,544.40,620.42
26.64861,543.82,622.71
26.66836,542.58,620.73
26.69011,544.87,620.92
26.70997,545.17,621.38
26.73012,545.06,619.46
26.74887,545.60,620.76
26.76926,544.96,620.87
26.78853,542.41,617.53
26.81000,542.48,634.81
26.82958,547.41,670.73
26.84990,548.63,712.25
26.86999,552.99,746.88
26.88970,555.64,775.89
26.90918,555.36,794.59
26.92834,556.77,799.43
26.94894,556.23,792.81
26.97012,555.80,778.91
26.98949,554.90,758.86
27.00992,553.66,741.38
27.02891,551.93,724.94
27.04909,553.56,706.78
27.06852,552.56,693.05
27.08918,549.46,683.88
27.11010,547.15,675.08
27.12921,547.25,663.72
27.15025,545.33,657.10
27.16864,543.39,651.99
27.18951,545.89,645.43
27.20829,546.50,642.51
27.22928,546.44,636.55
27.24835,543.16,633.07
27.26869,545.78,629.47
27.28904,545.25,629.82
27.31019,543.01,629.60
27.32903,543.40,631.32
27.34876,544.45,639.87
27.36899,542.14,644.71
27.38855,541.09,647.97
27.41012,541.90,646.55
27.43027,540.51,645.26
27.44897,540.02,642.74
27.46915,539.99,641.98
27.48932,539.86,641.16
27.50848,541.59,635.00
27.52945,540.49,633.49
27.54938,545.01,632.37
27.56980,544.25,632.22
27.59019,542.38,628.63
27.60961,543.80,630.74
27.63006,542.97,629.09
27.64953,544.29,627.93
27.66921,545.52,627.46
27.68966,542.95,621.50
27.70853,543.15,621.79
27.72967,542.70,621.13
27.74981,540.52,624.57
27.76875,540.07,627.63
27.78998,542.54,634.39
27.80946,545.45,642.09
27.83002,543.60,643.01
27.84860,549.56,640.20
27.86969,548.39,635.02
27.88846,546.37,623.11
27.90890,547.24,612.52
27.92932,541.20,597.55
27.95045,538.90,580.34
27.96946,538.26,559.68
27.98913,540.25,544.10
28.00883,537.17,530.59
28.02850,537.59,516.23
28.04855,537.64,508.03
28.06989,539.67,502.46
28.08989,538.71,502.67
28.10845,540.87,503.64
28.12963,539.40,506.34
28.15021,537.53,510.82
28.17009,538.06,519.28
28.18905,538.24,529.75
28.21004,541.27,539.59
28.22974,541.95,544.69
28.24927,542.40,552.38
28.27085,542.90,561.97
28.29041,541.95,568.47
28.30979,544.83,572.62
28.33100,544.87,580.99
28.35110,547.94,585.67
28.37097,545.73,590.24
28.39105,545.31,593.56
28.41027,544.84,600.77
28.43105,545.02,603.55
28.45101,544.12,607.33
28.47108,546.13,607.16
28.49092,542.97,612.87
28.50998,543.26,612.74
28.53035,542.29,617.11
28.54990,543.93,621.27
28.56948,543.47,620.21
28.59042,546.13,619.76
28.60939,545.65,623.71
28.62956,545.24,625.99
28.65094,545.42,624.32
28.67023,544.19,624.46
28.68956,547.15,624.07
28.70968,543.49,624.92
28.73129,546.28,622.90
28.75036,545.38,622.18
28.77094,545.57,622.62
28.78970,543.23,622.76
28.80947,543.14,641.86
28.83060,545.05,671.30
28.85009,545.56,710.01
28.87043,547.17,748.76
28.89034,547.98,778.74
28.91047,548.49,795.54
28.93000,547.78,800.68
28.94956,549.34,797.36
28.97060,550.53,787.24
28.98935,551.88,770.69
29.01051,547.93,754.43
29.03103,546.63,735.20
29.04984,547.65,718.56
29.06934,544.03,706.66
29.09121,547.30,693.29
29.10932,549.58,682.84
29.13102,548.64,674.16
29.15091,545.95,661.87
29.17014,545.41,654.57
29.19069,548.05,652.99
29.20942,546.03,643.57
29.23100,545.63,639.43
29.25067,544.85,639.11
29.27009,543.91,633.29
29.28958,545.31,628.61
29.31062,547.02,627.17
29.33084,547.55,623.91
29.35065,548.82,622.91
29.36982,550.16,620.81
29.39103,550.12,620.72
29.40921,549.56,620.23
29.43095,548.42,618.17
29.45081,547.85,616.71
29.46961,548.10,616.93
29.49010,548.50,616.96
29.51013,548.23,617.68
29.52962,544.68,619.51
29.54958,547.35,621.62
29.57116,546.65,620.81
29.58985,543.65,618.99
29.61025,546.23,620.53
29.62999,543.08,621.33
29.65107,542.27,622.97
29.67043,546.06,621.14
29.69021,546.03,620.89
29.71019,545.81,623.43
29.73008,546.41,620.64
29.75015,543.53,621.17
29.77105,544.19,619.75
29.79016,542.97,621.19
29.81005,543.58,623.31
29.82933,543.20,618.35
29.84956,546.53,607.86
29.87127,543.80,592.03
29.89002,546.09,570.38
29.91090,545.43,555.78
29.92997,544.16,540.53
29.95119,545.38,529.01
29.97048,546.35,518.24
29.98958,540.90,512.12
30.00994,542.01,510.79
30.03106,539.67,509.85
30.05001,536.20,511.92
30.07042,538.10,515.42
30.08935,537.12,522.65
30.11111,539.03,532.93
30.13108,540.01,540.13
30.15015,537.36,547.90
30.17062,537.28,554.85
30.19035,537.47,556.19
30.21096,539.18,559.19
30.22996,540.80,563.67
30.25037,543.57,565.87
30.26941,543.17,573.42
30.29064,542.22,576.21
30.31114,543.12,579.84
30.33059,541.61,583.76
30.34961,543.80,588.86
30.37074,541.92,591.67
30.39085,542.31,594.50
30.41095,542.76,597.68
30.43056,543.17,600.13
30.45052,541.02,603.35
30.47025,542.53,605.02
30.48996,543.13,608.50
30.51104,541.25,611.03
30.53017,544.10,609.06
30.55076,543.29,612.01
30.57109,541.03,612.78
30.59071,540.13,611.42
30.61027,541.70,612.69
30.63021,542.36,614.83
30.65068,543.41,613.83
30.67057,541.32,617.08
30.69080,540.10,614.31
30.70945,543.05,614.50
30.72935,542.25,618.36
30.75042,541.76,627.96
30.77093,540.09,656.85
30.78983,537.32,702.62
30.80917,535.52,745.14
30.83100,534.83,785.58
30.84948,536.70,810.46
30.87002,538.63,820.69
30.89126,540.58,826.20
30.90994,544.71,820.55
30.92962,544.67,802.00
30.94986,544.82,783.33
30.97007,543.02,762.92
30.99041,541.83,744.07
31.01100,543.64,722.32
31.02938,543.65,708.09
31.05016,549.37,689.50
31.07072,548.08,675.55
31.09017,549.10,661.47
31.10953,547.20,651.97
31.13028,549.90,645.11
31.15024,548.68,640.40
31.17023,546.21,633.00
31.19110,546.85,632.65
31.20946,549.01,626.73
31.23080,548.52,625.05
31.25069,544.79,620.49
31.27103,545.39,621.39
31.29072,546.00,619.34
31.31085,545.37,617.55
31.33082,543.36,613.53
31.34969,544.46,614.95
31.36969,544.92,613.48
31.39102,543.15,610.80
31.41056,543.03,609.80
31.43056,544.30,610.93
31.44985,544.16,613.41
31.46973,543.00,612.05
31.49100,542.06,615.88
31.51060,540.67,615.36
31.53056,539.74,617.58
31.54970,539.13,614.90
31.57046,542.70,618.56
31.59109,539.46,617.02
31.61033,540.27,618.12
31.62951,539.94,617.12
31.65087,539.67,617.35
31.67036,539.28,621.14
31.69063,540.70,614.64
31.71022,538.18,605.29
31.72999,534.14,587.17
31.75085,529.14,574.60
31.77060,527.86,558.76
31.78928,529.58,542.43
31.81079,526.07,530.76
31.83020,527.76,518.21
31.85094,526.76,509.44
31.86964,531.32,501.40
31.89027,530.38,497.84
31.90933,532.47,496.29
31.93032,535.17,498.72
31.94958,533.64,502.56
31.96933,538.03,511.66
31.99065,539.53,519.89
32.01077,538.84,527.81
32.02970,539.08,537.09
32.05106,542.54,550.60
32.07003,543.86,557.07
32.09034,543.63,567.94
32.11028,544.37,575.95
32.13013,543.72,580.54
32.15020,545.36,585.08
32.16987,546.79,587.65
32.18928,547.78,592.03
32.21094,544.61,597.64
32.22931,545.04,600.33
32.25022,546.15,601.48
32.26976,545.54,600.64
32.28987,544.07,601.37
32.31020,543.51,603.32
32.32998,541.65,605.95
32.35104,542.51,605.34
32.37071,544.40,606.63
32.38947,542.49,607.06
32.41087,543.36,609.51
32.42966,543.56,608.91
32.44981,542.05,612.84
32.47093,540.95,613.01
32.48941,539.07,612.78
32.51082,541.58,613.37
32.52959,543.14,614.06
32.54992,541.87,616.60
32.57049,542.14,613.77
32.58940,541.05,614.84
32.61116,540.61,616.04
32.63024,542.54,617.03
32.65014,543.65,614.80
32.66934,538.80,615.02
32.69088,540.80,613.95
32.70944,542.29,613.37
32.73006,543.53,611.40
32.74938,540.76,621.21
32.76999,541.72,650.26
32.78958,539.85,687.72
32.81109,541.76,734.87
32.83073,542.85,772.05
32.85004,545.35,797.09
32.87080,550.03,811.73
32.89063,549.89,809.62
32.90956,550.40,794.70
32.92944,551.08,775.11
32.95095,552.26,757.32
32.97153,552.92,737.03
32.99143,551.24,719.18
33.01121,551.54,701.95
33.03308,547.30,687.50
33.05221,548.98,675.39
33.07315,544.84,669.71
33.09378,547.31,660.14
33.11228,542.71,653.52
33.13398,543.09,649.89
33.15321,544.85,645.48
33.17396,544.90,637.61
33.19414,545.33,633.73
33.21318,543.71,631.37
33.23403,543.76,626.32
33.25314,544.28,627.06
33.27393,540.74,620.20
33.29375,539.95,619.84
33.31253,539.40,621.39
33.33408,539.75,620.49
33.35273,541.04,619.36
33.37410,542.36,622.44
33.39383,540.83,620.66
33.41272,541.86,619.23
33.43371,544.15,619.59
33.45245,545.44,618.71
33.47255,542.49,621.72
33.49252,543.00,620.38
33.51402,542.85,619.89
33.53302,545.79,624.38
33.55475,543.89,622.45
33.57462,539.41,622.55
33.59441,541.37,623.32
33.61485,540.67,623.15
33.63432,541.77,620.63
33.65399,541.31,623.38
33.67356,542.88,624.62
33.69399,543.54,621.14
33.71477,543.76,621.19
33.73347,542.51,622.50
33.75421,543.86,620.74
33.77429,542.54,621.89
33.79434,542.61,620.65
33.81338,543.19,623.93
33.83418,542.37,622.68
33.85329,545.48,624.68
33.87324,543.79,622.90
33.89489,544.75,625.55
33.91411,542.78,625.09
33.93449,544.93,631.03
33.95360,543.70,628.18
33.97458,543.55,614.71
33.99325,545.82,598.64
34.01396,541.88,579.27
34.03489,540.47,561.87
34.05310,541.62,544.47
34.07378,541.69,530.02
34.09344,537.05,519.95
34.11392,538.65,507.82
34.13476,537.87,504.41
34.15607,538.99,500.54
34.17542,538.11,502.73
34.19662,538.71,503.65
34.21606,539.26,510.57
34.23637,538.72,517.79
34.25787,538.68,524.49
34.27686,540.70,533.15
34.29709,540.36,540.95
34.31696,545.05,551.35
34.33643,543.37,559.50
34.35752,543.64,568.49
34.37708,545.12,577.47
34.39747,547.35,583.29
34.41899,545.15,590.56
34.43871,544.11,593.46
34.45896,543.77,598.39
34.47823,542.79,605.24
34.49863,540.80,606.83
34.51851,542.55,609.05
34.53956,539.92,615.81
34.56099,542.57,614.91
34.58249,539.48,616.66
34.60240,538.52,616.28
34.62186,539.61,619.01
34.64303,538.80,616.82
34.66139,538.00,617.61
34.68140,536.80,618.88
34.70219,539.68,621.81
34.72255,538.34,623.02
34.74180,539.62,623.97
34.76284,538.76,622.57
34.78236,540.78,622.63
34.80289,539.32,622.73
34.82318,542.42,622.81
34.84243,542.69,619.54
34.86221,539.65,620.61
34.88270,539.83,621.37
34.90216,538.65,619.83
34.92249,541.17,619.18
34.94289,541.00,615.65
34.96432,540.89,614.96
34.98378,539.23,614.01
35.00310,540.47,613.22
35.02434,539.20,609.96
35.04509,540.81,611.78
35.06636,538.62,609.46
35.08541,539.64,612.37
35.10765,540.85,616.87
35.12644,540.90,631.95
35.14790,541.89,663.26
35.16653,542.92,704.68
35.18708,541.98,737.93
35.20634,546.18,764.53
35.22759,549.27,785.00
35.24747,551.44,793.42
35.26615,553.15,802.58
35.28725,552.58,801.62
35.30608,553.22,790.72
35.32603,549.76,771.79
35.34687,550.86,754.88
35.36637,550.09,738.34
35.38855,545.85,716.82
35.40761,549.12,700.16
35.42804,547.53,685.76
35.44721,546.97,676.80
35.46798,545.37,665.34
35.48765,544.29,659.67
35.50704,543.61,651.50
35.52837,544.18,644.08
35.54891,540.27,638.05
35.56774,541.45,635.27
35.58742,542.00,630.67
35.60789,541.01,628.08
35.62713,540.15,625.37
35.64708,540.61,621.01
35.66822,538.65,620.84
35.68841,539.23,619.83
35.70854,540.07,620.19
35.72804,541.79,616.60
35.74712,541.92,615.78
35.76828,539.32,614.70
35.78770,541.25,618.47
35.80768,539.71,616.90
35.82743,542.12,617.92
35.84776,538.14,615.78
35.86875,538.31,618.42
35.88849,537.42,616.31
35.90824,542.20,616.79
35.92801,542.84,619.19
35.94826,540.99,617.19
35.96967,542.23,620.44
35.98973,543.14,617.97
36.00841,545.68,617.65
36.03008,543.30,618.08
36.04976,545.72,617.99
36.06843,544.87,618.49
36.08919,546.04,618.05
36.11008,543.07,617.02
36.12988,545.65,617.77
36.14973,543.40,616.78
36.16924,546.11,619.31
36.18924,545.48,617.25
36.20841,546.50,616.89
36.22967,544.22,620.07
36.25001,542.72,618.63
36.26941,546.47,619.25
36.29090,542.82,622.57
36.30932,544.83,631.24
36.33003,542.78,639.20
36.34936,543.90,647.52
36.36914,542.98,647.35
36.38895,543.18,643.83
36.41051,539.05,631.11
36.43066,538.54,609.74
36.45086,533.81,588.55
36.47090,536.25,560.61
36.49104,531.85,538.14
36.51096,529.09,518.10
36.53098,532.87,501.90
36.54955,532.37,490.73
36.56971,531.60,487.09
36.59066,530.68,485.74
36.60998,535.43,490.27
36.62988,533.77,498.01
36.65082,535.57,507.60
36.67016,537.39,520.14
36.68947,538.68,530.31
36.70949,538.81,540.38
36.73115,541.01,551.04
36.74996,542.32,559.76
36.77118,542.95,568.16
36.79027,542.94,573.89
36.81146,542.54,582.49
36.83057,543.73,586.91
36.85062,547.59,591.12
36.87144,548.16,597.67
36.89253,549.83,599.85
36.91119,549.94,605.37
36.93384,551.92,606.24
36.95320,547.58,609.23
36.97391,548.50,611.10
36.99378,548.52,613.71
37.01432,547.99,614.85
37.03447,547.21,613.81
37.05287,545.54,617.28
37.07329,545.29,616.72
37.09432,544.20,617.69
37.11324,545.99,620.39
37.13423,542.63,620.79
37.15332,546.05,621.70
37.17423,545.59,623.38
37.19342,543.05,622.89
37.21510,542.46,621.24
37.23411,542.64,620.81
37.25314,543.92,619.50
37.27466,541.82,621.37
37.29478,543.83,617.16
37.31487,542.42,618.42
37.33389,539.89,614.13
37.35301,540.20,615.39
37.37313,541.75,631.13
37.39419,540.39,672.38
37.41476,542.79,711.48
37.43463,542.09,750.63
37.45447,544.66,777.53
37.47294,546.61,795.32
37.49326,547.01,801.48
37.51400,548.59,793.79
37.53314,549.85,776.66
37.55343,550.27,759.78
37.57448,550.56,743.01
37.59294,546.86,727.82
37.61467,546.60,710.86
37.63489,547.17,695.75
37.65336,546.84,682.99
37.67391,546.19,671.34
37.69471,545.76,662.91
37.71364,542.84,658.13
37.73439,542.19,651.45
37.75325,542.21,648.04
37.77491,543.70,642.40
37.79447,545.80,637.81
37.81356,543.99,635.02
37.83408,542.88,633.12
37.85366,541.40,627.31
37.87297,542.02,624.90
37.89333,539.62,623.58
37.91488,541.36,624.17
37.93466,538.41,623.08
37.95297,540.04,622.20
37.97472,540.79,621.71
37.99439,542.28,620.38
38.01470,539.18,620.69
38.03482,541.57,619.62
38.05311,540.37,617.89
38.07515,540.97,621.46
38.09434,541.79,619.14
38.11319,540.85,620.28
38.13438,539.31,619.88
38.15341,540.12,618.33
38.17412,539.53,619.42
38.19340,538.67,617.62
38.21285,538.94,618.28
38.23401,538.09,616.05
38.25452,538.28,619.88
38.27489,538.15,618.30
38.29413,539.99,617.53
38.31579,537.62,609.13
38.33505,536.19,594.04
38.35597,537.54,577.33
38.37599,536.66,557.21
38.39434,534.09,542.10
38.41595,531.96,532.17
38.43569,531.27,518.28
38.45387,530.88,509.22
38.47400,528.06,497.70
38.49389,527.73,494.71
38.51545,531.11,490.53
38.53500,529.57,492.01
38.55425,531.48,496.21
38.57499,531.93,505.89
38.59548,533.07,514.00
38.61494,532.12,521.92
38.63430,532.02,532.35
38.65554,533.53,545.06
38.67495,534.97,553.86
38.69680,536.70,560.21
38.71779,536.68,571.36
38.73857,538.43,576.71
38.75771,538.01,582.45
38.77758,542.68,586.93
38.79969,541.82,591.20
38.81988,544.56,595.20
38.83820,544.85,598.25
38.85966,541.37,600.04
38.87875,544.47,604.36
38.90002,540.78,606.35
38.91864,542.64,609.42
38.93822,541.43,614.12
38.95891,542.24,613.26
38.97940,540.63,615.81
38.99859,541.71,616.16
39.02068,540.44,618.68
39.04116,541.05,620.41
39.05994,541.78,617.52
39.08184,540.57,618.85
39.10247,541.65,619.44
39.12185,541.87,622.29
39.14246,542.85,624.50
39.16120,540.31,624.63
39.18128,538.54,625.01
39.20294,538.27,627.30
39.22398,541.50,624.71
39.24276,542.90,626.31
39.26276,541.00,622.87
39.28358,544.09,623.52
39.30377,544.66,622.77
39.32288,543.67,623.29
39.34329,541.66,620.63
39.36329,545.38,620.55
39.38308,545.08,617.88
39.40416,544.20,616.12
39.42465,543.37,615.78
39.44422,543.90,617.25
39.46468,542.32,615.50
39.48418,542.65,616.09
39.50456,541.41,613.05
39.52338,544.00,611.92
39.54461,541.27,612.57
39.56400,544.98,634.77
39.58494,543.82,672.36
39.60495,546.83,710.95
39.62590,552.06,748.42
39.64582,554.14,777.06
39.66584,554.85,795.26
39.68612,556.59,802.61
39.70747,554.40,792.00
39.72710,552.71,780.23
39.74910,551.65,759.82
39.77006,549.13,740.14
39.79030,546.21,723.99
39.81164,544.58,707.78
39.82994,543.37,693.44
39.85176,541.58,682.95
39.87167,542.37,672.62
39.89002,539.85,663.38
39.91004,539.49,653.18
39.93122,540.69,648.30
39.95032,542.32,639.94
39.97049,538.82,637.76
39.99172,541.26,632.49
40.01068,537.04,632.10
40.03030,537.08,625.31
40.05099,539.28,624.10
40.07363,537.26,623.13
40.09509,536.70,621.38
40.11496,540.41,622.13
40.13302,535.38,621.24
40.15449,538.75,626.19
40.17515,537.42,625.61
40.19568,535.74,626.59
40.21432,535.86,624.91
40.23436,534.60,625.11
40.25410,534.07,624.29
40.27499,533.25,623.09
40.29476,532.09,621.34
40.31427,533.50,619.85
40.33498,532.74,619.93
40.35550,534.60,617.57
40.37529,532.72,617.39
40.39553,536.52,619.22
40.41439,534.23,616.12
40.43442,537.26,615.35
40.45380,540.44,616.07
40.47588,542.45,616.93
40.49551,541.53,616.58
40.51468,542.00,612.85
40.53516,541.63,612.33
40.55480,540.83,614.23
40.57420,542.47,617.02
40.59477,544.07,615.47
40.61455,545.09,621.29
40.63519,543.99,626.39
40.65557,542.78,623.14
40.67527,541.70,607.44
40.69671,543.19,586.82
40.71701,542.49,564.95
40.73696,542.96,541.01
40.75577,541.80,522.35
40.77575,537.96,506.66
40.79495,538.27,496.72
40.81532,537.47,492.20
40.83665,538.13,490.16
40.85640,537.74,488.58
40.87679,537.55,494.17
40.89582,536.61,500.53
40.91540,539.44,510.94
40.93769,540.68,519.50
40.95758,537.64,531.22
40.97855,537.87,541.87
40.99874,540.40,550.77
41.01868,540.41,560.64
41.03857,541.46,569.12
41.05689,542.75,576.97
41.07757,544.00,581.85
41.09877,544.39,587.18
41.12002,544.37,590.73
41.14023,543.29,595.89
41.16135,542.73,597.40
41.18161,541.27,602.91
41.20069,543.53,605.60
41.22140,541.74,608.72
41.24264,542.36,612.46
41.26276,540.08,613.77
41.28308,541.00,617.05
41.30271,541.65,619.13
41.32242,540.58,617.98
41.34281,541.38,619.83
41.36205,542.56,620.45
41.38301,542.95,621.54
41.40214,545.61,621.54
41.42248,544.61,621.84
41.44348,543.10,624.56
41.46522,540.35,624.84
41.48560,542.06,620.82
41.50562,540.77,622.31
41.52502,539.52,621.66
41.54493,540.02,620.30
41.56502,539.06,619.94
41.58604,539.08,623.15
41.60671,541.04,619.69
41.62600,541.46,621.50
41.64578,540.30,623.37
41.66693,539.54,620.72
41.68639,540.83,620.98
41.70672,543.20,619.99
41.72680,542.74,619.74
41.74617,540.68,622.51
41.76614,541.20,620.08
41.78869,537.79,617.80
41.80893,538.46,619.49
41.82923,539.21,619.28
41.85184,538.37,620.90
41.87028,539.30,647.09
41.88994,542.03,699.20
41.91142,545.83,761.93
41.93197,550.23,819.38
41.95199,553.65,860.13
41.97127,556.99,876.45
41.99142,558.72,877.67
42.01275,559.68,865.71
42.03088,556.91,845.56
42.05273,558.07,818.07
42.07177,555.54,788.12
42.09240,550.09,757.42
42.11365,548.54,725.95
42.13278,543.81,697.26
42.15330,542.08,673.89
42.17191,538.26,652.20
42.19194,538.59,634.94
42.21252,535.61,620.76
42.23187,538.53,615.46
42.25198,539.19,603.85
42.27349,539.18,600.91
42.29182,538.56,597.59
42.31335,537.94,598.05
42.33174,538.24,595.50
42.35220,536.14,597.82
42.37306,535.20,593.52
42.39378,536.64,592.03
42.41255,537.16,593.46
42.43183,534.32,595.39
42.45243,537.31,597.51
42.47350,537.94,598.96
42.49384,538.73,601.74
42.51324,536.05,602.39
42.53206,537.82,603.75
42.55264,536.44,605.79
42.57358,537.19,606.64
42.59292,538.56,608.93
42.61203,541.20,612.13
42.63286,540.38,612.75
42.65192,538.74,612.35
42.67316,540.67,617.46
42.69194,538.54,618.32
42.71218,538.92,617.79
42.73267,539.94,618.78
42.75359,539.19,619.12
42.77331,540.35,616.22
42.79193,537.05,617.30
42.81308,538.02,619.60
42.83374,540.15,616.14
42.85385,538.23,616.59
42.87302,540.06,619.12
42.89332,542.14,620.12
42.91354,542.64,618.18
42.93191,546.41,619.51
42.95191,544.78,621.64
42.97347,543.16,615.02
42.99311,541.09,601.54
43.01352,539.25,588.91
43.03314,536.56,570.18
43.05272,535.86,557.60
43.07336,532.43,541.87
43.09263,530.70,526.36
43.11257,531.35,517.56
43.13308,529.27,507.54
43.15362,529.53,505.17
43.17276,531.27,504.55
43.19247,529.29,506.45
43.21300,531.23,510.35
43.23238,530.36,518.36
43.25287,532.64,526.41
43.27303,535.53,533.79
43.29325,536.33,543.18
43.31304,538.60,551.43
43.33333,541.23,563.24
43.35304,542.56,570.27
43.37306,540.59,577.82
43.39377,543.58,582.88
43.41220,543.83,588.13
43.43255,540.96,594.73
43.45373,544.05,596.34
43.47293,545.34,596.71
43.49463,550.99,598.41
43.51370,549.10,599.17
43.53482,550.34,604.04
43.55538,547.50,606.82
43.57582,549.40,605.18
43.59567,547.74,609.09
43.61614,547.85,610.04
43.63533,545.71,612.78
43.65587,546.80,615.66
43.67753,544.69,617.67
43.69708,543.68,616.08
43.71767,543.26,619.65
43.73672,545.37,618.29
43.75787,543.69,620.83
43.77693,545.10,620.10
43.79707,546.76,618.62
43.81656,543.72,623.48
43.83732,544.82,622.94
43.85666,545.27,622.80
43.87744,544.90,621.53
43.89790,543.22,621.63
43.91827,541.95,618.92
43.93721,542.84,622.51
43.95828,542.97,619.40
43.97824,540.49,633.97
43.99865,543.32,661.32
44.01855,541.52,694.41
44.03688,542.94,727.49
44.05884,539.50,753.27
44.07779,539.49,776.83
44.09756,542.58,791.98
44.11727,548.41,796.60
44.13854,549.61,795.60
44.15873,551.40,785.69
44.17896,552.14,772.00
44.19866,550.18,751.92
44.21917,547.54,732.56
44.23935,548.01,717.61
44.26001,545.58,700.47
44.28117,541.68,683.96
44.30021,541.87,674.77
44.32125,540.54,665.04
44.34375,542.11,654.48
44.36348,540.58,646.85
44.38456,542.05,638.61
44.40467,541.20,633.34
44.42339,540.04,630.26
44.44516,540.92,625.75
44.46523,543.59,620.29
44.48445,542.24,617.71
44.50538,540.25,620.30
44.52470,539.27,616.36
44.54548,538.45,617.43
44.56669,539.36,614.10
44.58704,541.66,611.50
44.60722,542.70,611.62
44.62665,539.24,610.54
44.64730,536.59,612.36
44.66773,539.70,611.63
44.68694,541.17,614.64
44.70772,540.07,613.17
44.72776,539.93,613.86
44.74750,538.40,615.79
44.76829,539.63,615.27
44.78836,537.68,614.48
44.80810,537.72,614.57
44.82766,536.34,615.19
44.84878,538.65,615.66
44.86781,537.64,615.85
44.88877,539.21,611.96
44.90866,535.25,616.02
44.92773,535.46,617.31
44.94865,537.46,617.83
44.96827,539.63,618.40
44.98879,538.25,619.50
45.00738,540.22,617.88
45.02787,538.41,620.95
45.04738,540.86,620.81
45.06678,543.91,618.74
45.08837,542.79,619.29
45.10890,541.76,616.25
45.12916,542.37,605.20
45.14949,543.95,593.89
45.16982,544.34,573.03
45.18967,543.54,556.86
45.20792,545.35,539.24
45.22865,542.76,523.22
45.24885,538.56,508.71
45.26797,539.36,496.94
45.28800,536.70,490.05
45.30787,531.79,489.03
45.32924,532.60,490.44
45.34964,531.57,497.45
45.36944,531.52,503.92
45.39039,535.21,515.25
45.40981,534.11,525.42
45.43027,537.09,535.40
45.44985,537.74,545.87
45.46996,534.56,557.18
45.49087,535.03,563.77
45.50882,535.03,573.49
45.53027,536.62,578.58
45.55023,537.21,584.95
45.56917,540.53,592.31
45.58964,538.74,599.78
45.61020,542.04,604.85
45.63039,543.87,608.40
45.65072,543.50,611.79
45.67211,546.30,614.33
45.69171,543.55,617.26
45.71144,544.44,618.14
45.73161,541.80,617.83
45.75073,544.00,619.45
45.77192,546.75,620.61
45.79199,543.13,622.03
45.81101,545.17,623.56
45.83096,548.25,622.58
45.85211,545.48,624.48
45.87125,543.86,623.51
45.89225,546.57,624.36
45.91135,543.31,628.15
45.93321,541.59,625.56
45.95270,543.59,627.71
45.97198,543.18,624.93
45.99225,541.22,626.98
46.01253,543.02,623.84
46.03258,539.30,628.33
46.05349,540.15,628.74
46.07162,538.47,628.90
46.09357,538.70,627.38
46.11359,540.37,627.51
46.13223,538.15,627.92
46.15290,540.57,625.72
46.17275,541.16,623.52
46.19358,538.80,623.89
46.21555,538.24,623.16
46.23540,539.51,629.26
46.25669,541.51,651.91
46.27506,543.04,688.05
46.29479,544.94,733.03
46.31658,551.01,765.55
46.33668,549.42,794.84
46.35640,550.50,809.46
46.37577,553.73,815.99
46.39623,551.73,812.53
46.41599,549.58,800.00
46.43581,550.23,784.34
46.45543,548.77,763.20
46.47614,546.75,744.22
46.49562,545.51,730.05
46.51642,542.02,713.74
46.53618,540.75,698.28
46.55477,541.41,684.92
46.57520,540.48,677.23
46.59677,540.48,665.32
46.61843,539.38,657.19
46.63719,536.53,647.26
46.65775,538.22,639.14
46.67928,537.60,634.80
46.69860,539.34,632.83
46.72068,535.44,628.85
46.74083,536.46,626.03
46.75965,536.19,625.34
46.78074,539.62,626.40
46.80077,537.11,626.67
46.82156,538.66,625.96
46.84044,539.26,623.33
46.86147,537.45,622.99
46.88119,535.28,622.52
46.90001,535.72,622.18
46.92127,535.66,621.83
46.94160,535.20,623.78
46.96094,538.32,623.00
46.98045,539.55,622.04
47.00010,539.72,621.23
47.02079,537.71,621.35
47.04109,539.23,621.66
47.06079,538.52,619.66
47.08022,540.91,622.74
47.10107,541.56,620.81
47.12026,540.53,623.13
47.14150,538.03,627.01
47.16186,535.54,613.58
47.18019,534.88,594.09
47.20086,533.92,568.35
47.22100,528.79,542.98
47.24182,531.21,523.70
47.26048,529.36,508.47
47.27982,529.16,496.47
47.30104,523.89,488.14
47.32148,522.51,486.79
47.34062,524.25,488.76
47.36020,526.32,492.04
47.38069,526.33,498.75
47.40180,531.12,508.54
47.42019,530.28,515.62
47.44140,534.08,526.58
47.46091,534.91,535.91
47.47984,535.54,543.79
47.49962,533.87,553.13
47.52078,536.96,562.06
47.54089,534.06,569.36
47.56143,535.62,575.42
47.57969,535.58,580.39
47.60030,536.64,587.58
47.62006,539.91,592.60
47.64036,537.78,594.76
47.66134,538.68,598.22
47.68094,539.71,602.67
47.70120,536.96,605.40
47.72130,536.85,605.22
47.74107,540.20,608.60
47.76078,537.70,611.98
47.78009,538.21,611.82
47.80148,537.52,614.58
47.82047,540.79,615.72
47.84087,541.33,616.48
47.86106,538.86,618.84
47.88113,537.55,617.84
47.90106,538.66,620.52
47.92015,539.90,619.81
47.94122,540.47,620.51
47.96019,537.17,620.23
47.98107,540.13,621.65
48.00098,536.94,622.11
48.02063,540.45,622.16
48.04015,539.70,623.91
48.06074,539.18,624.83
48.08083,539.04,624.49
48.09989,538.90,624.77
48.12120,538.89,623.11
48.14059,536.41,622.93
48.16082,540.37,626.00
48.18060,538.53,622.71
48.20062,540.01,624.21
48.22020,541.34,623.35
48.24040,541.07,624.34
48.26040,541.05,625.85
48.28163,541.62,622.95
48.29998,541.73,623.08
48.32115,539.27,623.64
48.34242,540.24,625.01
48.36063,540.70,625.14
48.38224,540.98,623.85
48.40144,541.99,626.35
48.42062,538.14,625.19
48.44244,537.85,623.25
48.46195,540.40,622.59
48.48118,537.11,624.29
48.50117,540.23,644.19
48.52198,542.69,678.89
48.54167,541.07,720.43
48.56226,545.73,758.23
48.58109,549.96,781.93
48.60245,548.01,789.13
48.62095,546.76,783.19
48.64354,547.78,773.67
48.66234,548.51,756.34
48.68177,544.43,742.95
48.70170,547.02,723.52
48.72282,544.21,709.63
48.74358,544.34,695.04
48.76339,545.08,683.97
48.78268,544.54,675.50
48.80188,544.75,669.40
48.82281,542.55,663.48
48.84294,545.69,658.02
48.86395,544.11,658.24
48.88473,544.39,657.46
48.90381,546.67,656.30
48.92498,545.50,651.78
48.94549,544.10,649.69
48.96582,543.23,646.56
48.98498,540.26,644.59
49.00478,540.00,642.96
49.02542,542.51,644.07
49.04483,542.52,642.03
49.06560,541.38,641.61
49.13199,539.82,639.14
49.13257,539.10,637.06
49.13173,540.79,638.17
49.14413,541.56,637.41
49.16550,540.81,635.98
49.18355,539.78,634.46
49.20513,540.10,634.98
49.22466,538.46,636.95
49.24533,537.40,633.33
49.26511,539.84,633.82
49.28404,539.99,631.79
49.30513,539.34,634.57
49.32401,538.75,631.57
49.34428,542.66,632.04
49.36554,542.73,629.56
49.38498,541.81,629.16
49.40436,540.71,628.99
49.42562,541.08,629.23
49.44495,541.25,627.45
49.46610,543.59,630.48
49.48648,544.67,629.33
49.50708,542.76,627.70
49.52742,540.00,627.63
49.54683,540.53,626.36
49.56733,538.59,624.66
49.58647,538.07,625.56
49.60613,540.79,626.31
49.62700,541.32,625.92
49.64604,539.72,625.49
49.66763,539.05,626.12
49.68657,541.11,625.44
49.70862,540.65,627.29
49.72859,538.03,630.83
49.74702,538.66,626.36
49.76790,537.13,614.04
49.78940,533.45,594.10
49.81003,530.04,569.69
49.82932,529.31,551.87
49.85033,526.64,531.94
49.86920,527.85,521.65
49.89042,524.89,510.61
49.90917,527.60,502.73
49.92968,532.42,503.15
49.95021,533.50,505.45
49.97067,531.36,511.80
49.99063,535.19,517.22
50.00863,534.65,522.56
50.02883,537.99,532.98
50.04894,535.07,542.92
50.06900,538.26,551.09
50.08933,536.82,559.56
50.10894,538.35,565.33
50.13034,538.34,571.71
50.14941,538.51,579.99
50.16880,541.81,584.68
50.18896,540.99,590.42
50.20963,541.01,596.32
50.22919,542.84,598.72
50.24923,540.54,602.11
50.26913,538.71,606.21
50.29039,538.19,608.89
50.30991,537.74,613.21
50.33021,539.70,611.52
50.34896,537.71,612.09
50.37047,539.36,613.40
50.38888,535.70,615.29
50.40965,533.96,618.23
50.43039,533.87,617.34
50.45094,536.78,617.38
50.47027,536.82,620.93
50.48988,536.63,625.93
50.51034,537.16,626.85
50.52996,536.82,627.84
50.55096,535.57,628.48
50.57093,539.76,630.13
50.59169,538.81,627.93
50.61216,538.64,630.29
50.63310,539.72,629.65
50.65259,540.14,627.93
50.67260,538.64,626.32
50.69324,539.66,627.57
50.71224,537.28,626.07
50.73158,538.68,625.60
50.75268,537.39,625.54
50.77279,539.27,623.66
50.79352,540.63,625.84
50.81363,537.58,624.34
50.83439,536.79,624.58
50.85646,537.51,622.35
50.87604,538.82,623.25
50.89746,540.20,622.56
50.91776,540.69,629.59
50.93744,543.52,650.04
50.95691,543.85,683.73
50.97799,545.70,717.07
50.99865,547.09,749.40
51.01794,547.74,760.64
51.03749,548.62,759.04
51.05820,549.19,747.86
51.07736,548.56,737.78
51.09712,545.67,722.49
51.11689,547.22,709.92
51.13788,545.58,702.30
51.15787,547.38,704.86
51.17794,550.06,707.75
51.19664,552.22,702.93
51.21831,552.44,698.38
51.23901,551.84,690.80
51.25960,553.26,684.47
51.27769,552.23,675.48
51.29903,550.56,670.60
51.31878,548.20,659.93
51.33892,546.49,655.75
51.35917,545.69,654.03
51.37834,547.15,649.37
51.39873,548.37,647.04
51.41861,545.72,642.08
51.44050,548.90,638.79
51.46134,547.58,638.83
51.48093,547.29,636.07
51.50208,547.89,631.98
51.52209,546.53,630.46
51.54167,544.21,632.11
51.56207,545.31,630.31
51.58243,542.13,627.91
51.60179,543.77,626.97
51.62292,540.86,625.03
51.64318,542.44,623.04
51.66357,543.11,624.85
51.68336,544.81,622.04
51.70244,542.23,623.32
51.72261,542.41,624.41
51.74249,538.77,623.39
51.76295,538.73,626.67
51.78409,537.15,629.11
51.80462,541.10,629.27
51.82372,540.67,629.89
51.84560,542.04,628.42
51.86436,543.07,627.69
51.88391,542.39,625.95
51.90446,540.12,625.89
51.92414,539.38,625.26
51.94406,539.84,622.61
51.96386,537.87,623.05
51.98516,538.72,624.16
52.00370,538.47,620.01
52.02426,536.49,620.36
52.04508,538.74,620.09
52.06414,538.06,620.13
52.08523,536.71,616.94
52.10546,538.27,618.06
52.12381,539.50,620.01
52.14473,540.30,618.81
52.16431,541.23,607.18
52.18467,540.15,585.49
52.20388,536.72,573.08
52.22447,538.02,565.27
52.24476,537.52,564.44
52.26394,540.35,566.25
52.28545,541.32,567.12
52.30468,541.56,570.88
52.32415,542.25,578.03
52.34405,540.93,583.64
52.36407,540.80,585.43
52.38536,539.37,592.71
52.40702,536.36,595.58
52.42639,539.45,597.43
52.44747,538.91,603.08
52.46799,536.88,604.26
52.48702,538.75,604.92
52.50728,537.76,607.50
52.52705,539.70,610.85
52.54828,539.78,610.25
52.56819,538.70,611.13
52.58795,538.06,610.35
52.60808,538.96,613.00
52.62789,539.31,613.20
52.64945,539.50,616.50
52.66803,540.84,614.75
52.68872,540.35,616.53
52.70867,539.35,616.87
52.72864,541.29,618.28
52.74776,538.85,619.16
52.76817,541.23,621.88
52.78964,538.43,620.80
52.80806,537.70,625.34
52.82880,539.14,625.60
52.84854,540.51,626.45
52.86772,538.59,627.25
52.88925,538.26,628.04
52.90879,537.74,626.74
52.92826,538.65,628.86
52.94915,538.77,633.17
52.96816,538.01,645.96
52.98891,542.40,664.81
53.00918,539.88,683.34
53.02804,542.89,698.15
53.04816,543.26,700.86
53.06903,541.12,690.85
53.08898,542.78,686.39
53.10825,541.66,679.95
53.12917,544.00,670.86
53.14861,541.49,665.85
53.16926,541.17,656.80
53.18849,540.94,649.54
53.20913,542.90,643.81
53.22761,539.66,636.82
53.24948,537.48,635.42
53.26858,535.64,628.26
53.28972,536.31,627.19
53.30969,540.32,627.44
53.32834,535.42,622.72
53.34894,535.85,622.90
53.36877,537.45,622.56
53.38824,533.87,620.27
53.40791,531.29,622.46
53.42892,533.35,620.73
53.44823,532.44,621.57
53.46948,538.25,618.66
53.48832,540.41,607.62
53.50875,546.72,597.66
53.52798,549.73,588.81
53.54818,550.33,587.42
53.56986,552.84,587.18
53.59016,551.36,583.96
53.60873,548.12,590.11
53.62967,548.03,594.48
53.64976,548.47,597.49
53.67029,544.80,600.20
53.68909,544.27,606.21
53.70953,545.20,608.29
53.72962,544.41,609.10
53.74918,548.39,611.68
53.76961,544.47,615.72
53.79011,545.22,614.94
53.80975,547.56,618.71
53.82878,550.40,616.50
53.85045,556.93,610.74
53.86974,568.42,608.92
53.88863,574.08,608.03
53.91105,571.03,603.61
53.93197,563.77,585.08
53.95088,553.94,562.58
53.97278,547.92,537.21
53.99331,536.81,516.69
54.01382,529.12,501.31
54.03218,521.07,494.92
54.05250,517.86,491.82
54.07355,512.97,489.23
54.09250,511.84,494.43
54.11274,512.29,504.02
54.13178,514.14,517.22
54.15162,513.39,527.84
54.17178,516.49,538.20
54.19329,517.35,547.61
54.21339,517.57,557.67
54.23269,519.89,566.79
54.25221,524.07,574.44
54.27321,524.40,580.75
54.29335,525.96,587.89
54.31273,529.36,593.08
54.33223,528.74,595.20
54.35251,529.88,602.01
54.37285,534.51,604.68
54.39471,534.62,606.90
54.41424,535.10,612.56
54.43316,533.63,617.03
54.45415,533.58,622.70
54.47336,533.08,628.68
54.49302,531.75,630.53
54.51405,534.69,633.72
54.53391,535.58,635.25
54.55331,535.66,633.94
54.57394,537.00,635.57
54.59318,537.19,633.83
54.61360,543.71,638.69
54.63397,547.14,647.40
54.65319,547.73,648.14
54.67341,551.05,650.56
54.69380,552.95,650.91
54.71278,554.19,648.25
54.73390,550.69,644.93
54.75252,550.98,645.18
54.77270,550.96,643.29
54.79273,546.50,641.68
54.81527,544.16,637.86
54.83364,544.44,635.94
54.85532,541.12,636.24
54.87500,544.27,631.80
54.89353,545.02,630.63
54.91442,540.97,629.86
54.93367,541.03,630.56
54.95516,540.47,628.98
54.97561,540.24,627.04
54.99711,538.19,623.81
55.01696,536.99,624.28
55.03585,538.26,621.69
55.05690,535.22,618.12
55.07621,536.91,618.17
55.09811,533.04,624.51
55.11884,534.19,652.16
55.13863,530.03,689.64
55.16035,533.22,727.01
55.17941,534.50,763.18
55.19938,538.64,778.20
55.21982,537.92,779.84
55.24005,538.39,771.66
55.25983,540.07,754.77
55.28020,541.10,740.31
55.29973,541.92,724.15
55.31913,540.14,712.11
55.33997,538.87,699.34
55.36112,539.82,687.72
55.38142,541.83,675.73
55.40217,541.03,669.12
55.42198,540.91,658.72
55.44101,539.10,654.86
55.46308,540.18,646.61
55.48248,537.42,645.23
55.50360,540.46,642.41
55.52163,536.52,639.15
55.54268,539.64,638.42
55.56200,536.10,632.69
55.58272,537.10,633.36
55.60214,536.14,630.83
55.62340,535.67,627.80
55.64169,533.94,630.22
55.66185,537.84,628.73
55.68156,535.36,626.02
55.70256,536.66,624.28
55.72442,538.48,622.13
55.74328,533.79,625.38
55.76245,534.49,622.55
55.78404,535.66,623.34
55.80421,537.07,622.57
55.82375,536.32,623.29
55.84364,538.37,623.52
55.86497,537.12,625.17
55.88479,537.81,621.63
55.90531,538.35,623.97
55.92617,538.30,625.17
55.94529,538.57,622.57
55.96661,540.31,622.50
55.98580,540.59,621.29
56.00655,539.61,620.64
56.02697,541.36,622.53
56.04798,539.34,623.94
56.06822,541.84,620.27
56.08844,542.54,621.90
56.10883,541.96,621.09
56.13099,543.36,621.77
56.15065,541.93,623.13
56.17313,540.05,621.71
56.19240,541.19,622.20
56.21192,539.57,621.09
56.23201,543.83,619.65
56.25227,542.11,619.35
56.27203,539.78,619.04
56.29165,541.63,621.17
56.31328,540.58,620.70
56.33247,541.22,621.89
56.35291,541.92,618.46
56.37240,541.21,620.63
56.39208,542.33,621.43
56.41187,540.55,617.66
56.43292,541.27,621.67
56.45318,538.77,622.94
56.47190,538.41,618.87
56.49297,539.00,606.31
56.51222,534.46,588.52
56.53215,532.87,563.38
56.55218,527.28,546.53
56.57228,525.88,525.50
56.59188,524.87,510.08
56.61172,524.27,497.08
56.63342,526.49,490.57
56.65293,527.36,489.07
56.67310,530.62,491.97
56.69274,530.98,498.50
56.71332,531.44,507.69
56.73224,534.14,515.07
56.75328,534.44,522.60
56.77532,535.52,534.20
56.79486,536.69,544.18
56.81508,535.39,549.16
56.83415,538.87,559.36
56.85410,540.50,567.50
56.87343,542.05,577.19
56.89363,542.74,586.17
56.91472,544.30,592.14
56.93568,543.50,596.13
56.95531,547.34,599.60
56.97621,550.15,606.51
56.99556,547.87,605.18
57.01738,552.23,607.52
57.03766,550.58,608.52
57.05824,551.70,610.88
57.07858,549.54,613.07
57.09884,550.97,612.87
57.11863,546.71,614.70
57.13909,544.06,616.55
57.15932,543.15,616.36
57.17910,542.47,616.41
57.19760,542.34,618.53
57.21831,541.41,620.36
57.23842,539.45,618.82
57.25830,539.50,619.24
57.27887,538.62,619.71
57.29855,537.31,620.80
57.31822,539.47,620.32
57.33762,539.40,622.39
57.35920,536.89,622.80
57.37934,540.50,619.91
57.39763,535.47,620.54
57.41828,535.84,620.94
57.43916,534.30,622.44
57.45989,536.84,620.31
57.48040,534.98,619.37
57.50010,537.38,620.49
57.52027,538.07,621.07
57.53890,535.76,618.11
57.55972,535.39,621.16
57.57924,538.40,621.32
57.59853,535.96,620.56
57.61944,536.25,621.28
57.63988,536.72,621.32
57.65900,536.91,619.35
57.67978,536.56,620.76
57.69852,532.88,617.85
57.71896,534.65,620.39
57.73975,533.33,616.90
57.75884,534.45,616.12
57.77885,532.92,616.98
57.80011,531.46,613.06
57.81988,535.41,613.01
57.83841,535.28,611.00
57.86002,531.59,613.02
57.87861,533.70,609.27
57.89903,531.45,611.03
57.91928,532.65,612.88
57.93907,535.02,612.65
57.95882,535.80,620.45
57.97903,537.99,645.68
57.99915,536.66,686.43
58.01888,540.57,724.55
58.03983,544.87,757.63
58.05934,549.95,778.11
58.07902,549.03,781.99
58.10000,549.14,771.84
58.11885,548.37,758.88
58.13967,546.70,743.82
58.15919,548.01,729.75
58.18042,550.06,713.90
58.19922,547.82,704.67
58.21916,546.09,693.24
58.23959,546.47,679.67
58.25883,549.72,670.26
58.28006,547.25,663.76
58.30023,546.55,657.66
58.31963,546.92,654.16
58.33991,545.51,649.48
58.36013,541.35,643.43
58.38002,543.64,639.65
58.39949,542.62,638.13
58.42054,542.20,634.45
58.44002,544.54,619.48
58.45970,541.87,610.15
58.47913,539.61,598.93
58.49896,541.26,596.35
58.51879,538.77,591.78
58.53946,539.65,591.91
58.55917,542.71,592.28
58.57902,543.17,597.76
58.59966,541.39,599.04
58.61965,543.02,599.78
58.63850,541.78,602.92
58.65853,543.36,608.01
58.67995,543.51,609.48
58.69940,545.42,613.27
58.71949,543.97,614.52
58.73863,543.46,616.12
58.75931,544.63,616.27
58.77965,545.31,618.62
58.80016,545.10,617.76
58.81991,542.67,620.27
58.83872,543.29,622.21
58.85955,543.97,622.52
58.87917,541.67,626.25
58.89928,544.76,631.67
58.92005,541.99,646.91
58.93971,537.06,665.03
58.95874,522.24,685.92
58.97982,514.14,689.93
59.00000,512.85,684.40
59.01907,513.00,672.31
59.03925,514.51,656.79
59.06035,515.21,643.39
59.07989,519.16,631.73
59.10059,519.62,619.71
59.11978,522.54,611.05
59.14188,523.28,604.33
59.16062,527.07,602.49
59.18190,530.90,600.04
59.20234,531.07,599.35
59.22054,532.43,599.69
59.24063,536.71,600.76
59.26242,540.42,599.91
59.28118,540.54,601.13
59.30209,541.93,604.15
59.32259,544.89,605.89
59.34066,545.33,610.24
59.36071,546.55,611.97
59.38138,544.00,611.44
59.40186,546.16,616.35
59.42142,546.25,618.27
59.44068,547.05,619.84
59.46080,547.19,623.02
59.48073,547.46,625.73
59.50089,548.23,617.99
59.52040,560.23,610.89
59.54151,566.34,601.51
59.56173,569.29,595.49
59.58234,571.61,596.61
59.60294,571.97,597.98
59.62197,566.95,599.38
59.64237,568.14,601.73
59.66316,565.25,603.01
59.68320,564.18,603.84
59.70398,562.53,606.31
59.72606,561.04,605.95
59.74626,557.17,607.77
59.76760,559.22,606.40
59.78706,554.72,608.75
59.80664,556.79,611.96
59.82626,551.93,613.22
59.84688,550.00,613.71
59.86635,551.91,618.28
59.88629,548.37,626.01
59.90722,549.34,624.04
59.92717,548.26,629.20
59.94660,544.39,630.74
59.96651,541.19,630.06
59.98550,541.51,628.95
