Program Time [s],data 0,data 1
3.79412,547.98,554.73
3.81416,548.24,557.74
3.83429,546.45,558.03
3.85419,548.89,558.52
3.87479,546.84,561.34
3.89372,548.09,561.02
3.91518,547.89,560.75
3.93399,547.36,561.41
3.95510,547.09,561.03
3.97511,545.28,558.64
3.99492,547.90,556.95
4.01685,548.11,555.65
4.03492,544.97,555.29
4.05556,547.89,554.59
4.07512,545.67,555.68
4.09500,542.24,555.03
4.11503,542.66,555.94
4.13534,543.70,556.57
4.15516,543.16,557.65
4.17558,543.38,559.08
4.19382,545.61,556.63
4.21362,545.41,556.20
4.23383,546.27,558.14
4.25384,547.99,557.74
4.27549,550.51,556.86
4.29402,548.35,557.54
4.31466,550.01,555.72
4.33464,547.16,556.44
4.35367,547.15,558.10
4.37512,547.50,556.06
4.39454,544.65,555.70
4.41479,544.55,555.87
4.43433,543.97,556.08
4.45382,543.00,555.08
4.47438,544.99,554.65
4.49522,545.89,553.55
4.51539,542.51,553.91
4.53570,542.74,555.96
4.55459,541.81,558.94
4.57503,541.90,560.96
4.59509,542.25,560.41
4.61414,543.71,560.51
4.63419,543.29,564.85
4.65480,545.56,561.65
4.67474,543.25,558.82
4.69490,541.85,557.99
4.71638,542.89,557.44
4.73531,542.93,558.30
4.75595,546.56,560.42
4.77541,545.02,559.47
4.79527,547.18,558.36
4.81526,544.29,560.61
4.83572,545.19,557.12
4.85593,546.46,557.50
4.87559,544.66,555.74
4.89498,542.26,555.49
4.91528,546.56,558.15
4.93476,546.39,557.99
4.95568,544.87,557.55
4.97543,543.70,558.37
4.99553,544.34,558.34
5.01610,546.52,558.74
5.03636,544.58,557.26
5.05531,543.91,558.93
5.07476,545.69,557.42
5.09607,546.74,557.90
5.11619,544.27,559.88
5.13547,547.16,559.44
5.15540,546.53,561.18
5.17565,545.59,561.36
5.19627,544.00,561.77
5.21570,546.82,561.11
5.23616,546.94,561.26
5.25608,546.41,557.55
5.27484,545.88,560.34
5.29603,543.70,558.93
5.31652,542.22,556.24
5.33635,542.86,559.28
5.35562,541.68,556.19
5.37465,543.81,558.41
5.39634,543.55,555.52
5.41523,539.96,557.61
5.43589,541.69,558.14
5.45534,539.21,556.14
5.47615,537.89,559.54
5.49530,537.72,556.71
5.51606,536.24,558.13
5.53652,539.67,558.83
5.55553,537.07,559.50
5.57635,536.17,556.14
5.59605,540.02,558.82
5.61619,540.19,560.09
5.63497,537.45,560.64
5.65497,537.98,560.76
5.67631,535.64,559.20
5.69639,536.60,557.90
5.71588,537.16,559.65
5.73627,536.46,558.16
5.75582,539.35,556.14
5.77620,539.46,558.26
5.79648,539.61,555.71
5.81532,538.77,555.53
5.83537,540.90,555.71
5.85620,540.00,555.80
5.87518,538.77,557.67
5.89649,540.41,561.31
5.91626,537.87,551.13
5.93480,536.48,537.89
5.95467,532.62,517.73
5.97504,531.85,495.85
5.99553,527.91,473.97
6.01448,522.92,453.42
6.03472,521.46,434.83
6.05499,520.28,419.96
6.07510,522.07,413.06
6.09696,522.92,407.74
6.11631,521.80,407.44
6.13673,521.06,414.14
6.15718,521.83,423.45
6.17675,525.17,431.03
6.19745,528.43,442.41
6.21719,529.14,457.20
6.23684,530.22,466.17
6.25573,531.74,478.21
6.27748,530.95,486.97
6.29663,535.15,495.27
6.31645,535.31,500.90
6.33648,540.32,508.59
6.35691,540.24,517.10
6.37770,541.82,519.75
6.39734,543.46,524.28
6.41693,542.84,530.92
6.43657,540.99,529.98
6.45653,539.82,535.83
6.47681,541.20,537.04
6.49618,539.08,538.42
6.51726,539.98,538.34
6.53567,539.23,550.06
6.55720,540.47,582.61
6.57613,542.69,627.68
6.59651,547.08,673.14
6.61571,546.77,709.33
6.63658,552.60,731.50
6.65670,549.78,734.85
6.67637,549.44,731.65
6.69604,547.84,716.30
6.71646,547.28,698.70
6.73739,544.33,681.42
6.75713,542.97,669.29
6.77570,543.09,654.17
6.79621,543.09,639.97
6.81646,542.23,625.76
6.83713,543.31,620.12
6.85676,543.57,608.86
6.87634,542.44,602.18
6.89671,540.93,595.19
6.91694,541.15,591.58
6.93678,541.08,583.77
6.95761,536.79,579.76
6.97662,539.23,577.96
6.99565,537.07,573.01
7.01613,539.32,570.50
7.03740,540.44,569.07
7.05706,537.12,565.79
7.07584,538.22,564.58
7.09574,537.66,566.18
7.11651,534.27,562.81
7.13613,533.64,560.93
7.15625,532.92,563.74
7.17728,534.42,562.54
7.19654,534.00,564.62
7.21629,532.89,561.01
7.23675,531.91,561.30
7.25694,532.70,560.84
7.27696,530.44,560.74
7.29640,531.06,561.26
7.31733,533.51,557.23
7.33594,532.19,557.36
7.35629,533.66,557.24
7.37660,532.51,555.79
7.39700,532.47,556.09
7.41629,531.93,558.08
7.43756,535.29,554.40
7.45734,534.09,557.66
7.47604,531.89,555.28
7.49703,532.36,556.82
7.51598,534.28,555.28
7.53735,535.68,555.65
7.55624,534.49,558.06
7.57640,532.06,554.58
7.59675,534.40,554.70
7.61573,533.93,557.47
7.63672,533.95,556.69
7.65619,535.44,553.57
7.67594,533.24,554.93
7.69543,531.66,555.34
7.71688,534.51,551.78
7.73615,535.49,552.71
7.75718,535.56,554.43
7.77735,533.98,554.67
7.79600,534.14,553.68
7.81643,530.32,551.86
7.83621,529.66,551.47
7.85590,533.23,556.11
7.87591,533.48,554.31
7.89742,532.92,552.40
7.91636,533.21,555.17
7.93645,532.80,552.99
7.95704,532.67,553.32
7.97708,532.70,555.38
7.99580,533.56,551.39
8.01626,531.30,551.36
8.03582,532.22,552.59
8.05582,533.30,554.18
8.07732,531.54,554.46
8.09672,532.80,555.00
8.11593,531.30,552.94
8.13610,532.26,552.53
8.15714,532.90,553.55
8.17744,533.54,553.06
8.19592,531.00,553.59
8.21670,533.00,553.24
8.23645,534.59,554.62
8.25592,536.09,555.68
8.27562,533.04,554.58
8.29641,533.53,555.42
8.31707,535.15,556.84
8.33584,532.40,556.48
8.35779,533.60,552.07
8.37801,532.59,551.18
8.39802,534.13,554.69
8.41759,532.87,550.72
8.43712,532.25,550.64
8.45842,532.82,554.31
8.47711,533.98,552.95
8.49914,532.48,553.27
8.51755,530.34,551.42
8.53933,529.91,551.57
8.55840,530.55,553.04
8.57800,531.56,551.29
8.59937,534.42,552.69
8.61759,532.73,554.58
8.63886,532.20,555.17
8.65798,533.18,552.51
8.67876,533.04,552.48
8.69844,535.24,552.98
8.71851,533.65,553.14
8.73806,535.98,553.97
8.75931,536.68,552.35
8.77878,536.09,553.90
8.79827,536.70,553.54
8.81910,532.93,552.95
8.83866,533.97,550.49
8.85946,533.55,550.50
8.87780,535.58,552.05
8.89870,535.91,553.16
8.91807,534.20,552.48
8.93796,534.21,553.19
8.95919,537.93,550.85
8.97771,535.21,551.53
8.99747,536.23,550.89
9.01792,534.69,548.28
9.03804,535.40,550.05
9.05842,535.44,550.62
9.07947,535.35,548.06
9.09829,533.77,547.73
9.11937,534.59,545.33
9.13766,534.53,545.23
9.15855,534.46,546.28
9.17834,535.37,544.91
9.19795,534.20,544.17
9.21863,534.29,546.82
9.23750,537.06,545.51
9.25875,534.08,544.46
9.27892,535.37,543.89
9.29856,534.56,547.41
9.31867,535.50,544.14
9.33862,536.15,548.22
9.35915,536.03,548.42
9.37885,535.48,548.50
9.39881,536.56,549.86
9.41763,534.53,540.01
9.43869,533.22,524.88
9.45772,530.68,506.39
9.47787,529.14,485.57
9.49766,526.11,461.09
9.51902,518.62,438.94
9.53857,517.87,420.34
9.55937,519.35,406.92
9.57975,520.39,394.96
9.59931,520.65,391.30
9.62026,523.05,391.94
9.63915,524.75,398.98
9.66044,529.71,405.31
9.67976,528.66,413.36
9.69949,530.93,429.14
9.71956,535.22,440.90
9.74038,535.72,450.62
9.76040,537.51,466.00
9.77932,537.83,473.77
9.79930,534.56,485.88
9.82108,535.65,493.16
9.84108,538.65,501.00
9.86264,538.53,509.72
9.88238,539.71,530.25
9.90224,543.08,567.16
9.92216,545.74,611.76
9.94166,550.29,658.52
9.96217,550.81,692.86
9.98173,554.45,719.42
10.00328,555.87,735.38
10.02226,556.65,733.08
10.04183,556.87,721.32
10.06171,554.78,704.48
10.08212,553.48,690.85
10.10200,553.16,672.58
10.12334,555.26,657.92
10.14302,552.90,640.66
10.16307,555.01,629.28
10.18319,555.78,620.23
10.20256,554.48,610.88
10.22334,554.97,602.51
10.24157,553.64,596.00
10.26195,551.69,588.76
10.28229,548.18,585.13
10.30162,546.15,583.16
10.32264,547.34,578.63
10.34325,548.74,573.92
10.36256,546.21,571.42
10.38270,546.07,570.63
10.40310,549.91,567.39
10.42305,549.45,563.96
10.44163,548.40,561.62
10.46277,546.35,564.18
10.48305,549.15,562.64
10.50195,549.35,563.94
10.52188,549.15,561.01
10.54343,546.63,559.95
10.56297,549.83,558.55
10.58271,547.11,560.23
10.60178,547.07,558.03
10.62257,546.83,556.28
10.64186,547.02,556.06
10.66293,547.27,557.02
10.68218,548.66,556.45
10.70198,549.83,555.36
10.72204,548.70,555.25
10.74161,550.57,554.06
10.76324,548.82,554.96
10.78330,550.70,556.23
10.80203,552.83,554.85
10.82348,548.65,557.11
10.84164,549.51,556.53
10.86196,548.10,557.42
10.88289,549.14,559.42
10.90157,550.94,559.32
10.92313,550.33,557.29
10.94359,548.27,556.96
10.96193,550.90,557.62
10.98252,551.96,556.94
11.00294,549.39,557.00
11.02283,549.25,556.19
11.04292,548.84,556.48
11.06233,547.73,554.98
11.08294,548.55,557.25
11.10179,545.76,556.02
11.12188,548.44,554.44
11.14319,546.55,554.74
11.16201,548.36,556.38
11.18130,546.22,555.47
11.20344,548.96,557.71
11.22186,549.08,557.19
11.24246,549.59,557.40
11.26328,548.56,557.64
11.28194,547.37,556.69
11.30224,550.39,556.02
11.32186,548.85,557.40
11.34300,549.08,557.43
11.36313,548.67,556.91
11.38330,547.82,556.87
11.40141,550.95,557.61
11.42259,551.38,556.74
11.44195,550.49,556.54
11.46249,550.12,556.49
11.48249,552.26,558.48
11.50164,550.00,554.47
11.52229,552.32,554.81
11.54243,549.96,553.79
11.56200,551.10,555.96
11.58203,549.27,555.72
11.60219,550.90,558.61
11.62246,551.15,557.23
11.64329,548.94,560.41
11.66171,547.80,559.95
11.68217,550.54,559.90
11.70303,550.02,558.07
11.72257,550.52,559.88
11.74219,551.05,556.28
11.76201,549.57,558.27
11.78324,548.11,559.61
11.80160,550.82,556.17
11.82438,551.10,556.80
11.84273,549.36,556.80
11.86342,548.69,558.81
11.88351,549.64,560.17
11.90318,550.08,557.08
11.92427,550.02,560.23
11.94312,551.23,559.03
11.96401,553.96,558.81
11.98300,551.92,561.04
12.00367,551.55,559.33
12.02261,552.99,557.19
12.04357,552.57,556.64
12.06420,551.01,556.38
12.08290,553.29,556.87
12.10337,552.31,559.76
12.12359,554.01,557.50
12.14429,552.18,559.94
12.16267,550.26,560.67
12.18374,551.90,559.75
12.20525,552.09,558.04
12.22427,550.83,559.12
12.24413,550.80,560.57
12.26467,550.25,559.76
12.28517,551.39,560.19
12.30508,550.26,558.22
12.32489,553.16,559.25
12.34467,551.42,558.32
12.36377,551.61,557.44
12.38516,553.97,561.00
12.40637,553.60,558.61
12.42511,549.93,559.52
12.44574,551.39,560.62
12.46590,552.35,558.63
12.48605,547.46,560.12
12.50513,546.54,559.47
12.52519,548.00,558.03
12.54583,550.02,558.67
12.56584,550.96,556.28
12.58571,551.43,557.76
12.60575,550.03,556.62
12.62451,550.83,557.43
12.64598,551.95,558.05
12.66513,548.06,559.66
12.68566,551.46,561.11
12.70618,549.03,560.54
12.72580,547.49,558.47
12.74594,546.74,557.63
12.76494,547.33,558.98
12.78476,546.62,556.73
12.80563,544.46,557.21
12.82545,547.77,557.02
12.84624,545.08,556.94
12.86567,549.13,557.64
12.88601,548.26,557.01
12.90605,549.66,557.70
12.92586,545.34,558.06
12.94639,547.34,560.31
12.96650,548.66,559.47
12.98631,549.13,561.21
13.00633,546.68,561.04
13.02741,547.36,562.66
13.04571,547.13,560.76
13.06573,550.41,561.39
13.08628,549.72,560.57
13.10669,547.11,563.91
13.12693,546.16,554.04
13.14797,542.20,540.30
13.16827,539.27,517.03
13.18722,531.18,492.41
13.20838,527.20,469.08
13.22829,520.58,449.73
13.24704,518.58,429.25
13.26782,518.79,417.45
13.28708,518.50,406.48
13.30653,516.37,402.83
13.32781,518.48,405.94
13.34781,523.08,408.34
13.36789,524.39,416.31
13.38707,524.90,426.42
13.40799,530.06,435.57
13.42810,530.06,447.97
13.44669,536.44,458.51
13.46806,537.27,468.58
13.48727,537.72,478.03
13.50815,540.14,488.90
13.52669,539.23,495.18
13.54712,540.52,503.24
13.56713,542.08,509.60
13.58758,543.35,516.36
13.60682,543.86,522.53
13.62693,545.48,526.74
13.64780,543.15,533.22
13.66820,543.40,535.82
13.68725,541.29,539.76
13.70796,543.02,553.35
13.72674,548.60,586.48
13.74737,548.54,628.19
13.76819,552.65,668.47
13.78674,555.77,706.08
13.80808,557.09,729.47
13.82701,561.68,741.73
13.84747,563.46,741.27
13.86629,564.60,730.14
13.88748,564.53,715.04
13.90715,564.65,695.08
13.92679,562.39,679.69
13.94759,558.14,658.88
13.96770,558.34,644.25
13.98644,553.90,631.42
14.00723,554.39,619.95
14.02796,551.29,609.47
14.04721,550.79,602.36
14.06795,547.38,593.69
14.08680,547.34,590.59
14.10726,548.79,586.03
14.12720,549.21,579.91
14.14734,547.26,575.91
14.16661,545.88,575.03
14.18736,544.93,571.53
14.20771,544.39,569.13
14.22809,545.76,566.94
14.24770,544.51,564.18
14.26749,542.64,563.24
14.28791,543.98,562.15
14.30721,544.68,559.07
14.32740,543.50,559.41
14.34821,546.09,557.46
14.36765,542.87,559.62
14.38697,545.49,557.47
14.40686,544.03,559.63
14.42731,546.34,559.30
14.44665,546.05,557.97
14.46784,544.55,557.63
14.48761,543.02,556.35
14.50629,541.46,557.83
14.52684,543.78,556.34
14.54740,542.66,558.00
14.56774,543.25,556.80
14.58849,542.39,557.92
14.60855,542.97,556.95
14.62925,539.88,558.45
14.64786,539.86,559.30
14.66770,541.90,558.61
14.68924,540.62,558.85
14.70721,537.99,555.74
14.72852,537.94,555.58
14.74814,539.24,554.12
14.76810,537.82,556.90
14.78841,538.18,555.92
14.80750,540.99,557.40
14.82910,537.43,557.12
14.84947,537.71,555.75
14.86748,536.59,557.12
14.88836,537.01,553.48
14.90923,535.77,554.56
14.92948,535.77,554.61
14.94927,532.63,553.38
14.96903,534.66,552.95
14.99012,533.86,553.04
15.00843,533.82,554.34
15.02961,532.62,555.12
15.04950,532.81,552.43
15.06950,532.23,554.71
15.08937,535.72,554.32
15.10940,533.87,551.24
15.13019,535.69,551.76
15.14949,535.91,552.11
15.17024,535.70,554.73
15.18950,537.52,553.54
15.20882,537.06,555.49
15.23008,534.48,555.57
15.24902,535.09,556.76
15.26859,536.08,556.55
15.28997,534.91,554.55
15.30856,538.16,557.14
15.32878,536.13,553.43
15.34936,533.54,555.54
15.36878,532.39,554.99
15.38934,532.80,551.32
15.40911,533.71,553.34
15.42873,534.03,553.60
15.44924,535.40,552.97
15.46994,535.45,553.36
15.48993,531.74,550.64
15.51084,532.67,552.47
15.53040,534.95,552.81
15.55021,535.85,552.01
15.56951,533.38,550.88
15.59051,533.33,550.45
15.61073,533.26,552.00
15.63076,535.18,552.25
15.65103,535.15,550.72
15.67083,535.77,552.73
15.68938,535.33,550.51
15.70943,535.23,553.73
15.73084,534.81,552.26
15.75099,534.61,551.94
15.76939,534.80,553.78
15.79005,535.32,552.49
15.81051,532.81,551.47
15.83125,532.54,550.03
15.85055,534.11,549.71
15.86957,533.01,548.37
15.89059,534.48,550.34
15.91026,532.33,550.78
15.93114,532.60,551.71
15.94979,534.31,551.50
15.96960,533.64,550.07
15.99078,532.01,552.10
16.01090,530.74,555.20
16.03120,533.26,551.55
16.04997,530.50,551.09
16.06942,534.55,553.32
16.09087,533.60,552.22
16.11049,535.49,550.00
16.13108,535.89,549.72
16.14998,534.08,550.81
16.17077,535.07,551.41
16.19097,535.00,551.59
16.21098,535.71,550.08
16.23114,535.71,550.91
16.25081,535.84,553.86
16.26924,535.73,552.08
16.28984,536.49,554.83
16.31082,536.36,553.90
16.33030,535.85,552.28
16.35077,538.37,554.31
16.36989,535.96,553.34
16.39012,536.56,551.08
16.41089,539.36,553.52
16.42947,536.65,551.79
16.45047,535.47,551.43
16.47091,533.80,552.35
16.48990,535.26,553.07
16.51023,534.68,553.07
16.52977,531.63,550.90
16.55095,533.70,550.80
16.56957,532.89,550.74
16.59149,532.62,549.83
16.60940,532.96,550.91
16.63097,534.38,550.65
16.65041,537.30,552.10
16.67042,536.73,551.32
16.68997,534.95,553.46
16.71095,536.07,552.20
16.73008,534.47,553.49
16.75001,536.31,553.36
16.77034,532.76,552.43
16.79095,533.97,549.00
16.81134,535.17,550.42
16.83040,534.08,548.01
16.85144,532.53,546.92
16.87082,533.35,548.05
16.89187,534.25,550.46
16.91246,533.24,549.34
16.93231,536.51,551.07
16.95221,536.12,551.54
16.97299,533.36,550.16
16.99264,536.54,553.42
17.01200,534.64,552.08
17.03321,537.32,552.38
17.05293,537.52,551.27
17.07259,535.07,549.67
17.09250,535.42,551.28
17.11199,537.38,549.62
17.13311,534.89,551.47
17.15259,533.94,552.71
17.17301,534.94,549.44
17.19281,537.83,547.52
17.21233,534.08,534.49
17.23298,532.56,515.16
17.25197,529.05,496.59
17.27254,525.64,479.75
17.29142,526.07,469.11
17.31257,523.58,455.00
17.33204,522.29,445.39
17.35177,520.79,435.32
17.37196,520.48,425.47
17.39226,519.41,421.63
17.41300,519.86,414.65
17.43180,519.44,414.28
17.45208,522.03,418.40
17.47321,521.57,421.33
17.49278,524.63,429.76
17.51249,529.21,434.72
17.53237,527.83,444.25
17.55301,532.53,455.93
17.57180,534.13,463.44
17.59320,535.51,472.65
17.61136,533.68,480.94
17.63168,532.05,489.97
17.65272,534.28,495.59
17.67258,534.45,501.65
17.69140,533.15,508.61
17.71238,535.16,526.06
17.73305,535.93,560.26
17.75176,532.76,602.42
17.77425,538.69,649.55
17.79388,540.73,684.19
17.81338,543.67,713.81
17.83476,546.81,730.42
17.85533,548.95,730.91
17.87619,549.22,720.64
17.89720,553.45,705.42
17.91784,553.49,692.11
17.93699,554.17,677.76
17.95880,553.39,660.47
17.97879,556.35,645.66
17.99745,553.13,636.98
18.01862,555.12,623.40
18.03849,553.37,613.92
18.05765,554.41,608.70
18.07843,555.24,598.61
18.09919,552.33,594.12
18.11877,549.67,590.86
18.13775,552.29,584.17
18.15764,553.22,579.29
18.17880,553.71,574.43
18.19883,554.71,571.88
18.21786,555.93,570.03
18.23819,555.83,569.73
18.25763,554.48,565.83
18.27873,553.86,563.56
18.29854,555.09,564.51
18.31915,554.11,563.74
18.33846,556.18,561.82
18.35951,552.09,559.01
18.37848,552.13,561.17
18.39864,554.46,560.97
18.41863,554.23,560.60
18.44049,554.66,562.23
18.46047,553.57,561.02
18.48118,552.36,560.31
18.50236,554.20,559.53
18.52037,553.45,562.59
18.54194,550.62,561.95
18.56038,553.80,562.81
18.58223,551.73,561.20
18.60197,554.06,560.52
18.62093,553.01,561.78
18.64074,553.26,561.70
18.66084,550.59,558.91
18.68148,553.38,561.61
18.70219,550.58,557.84
18.72149,551.11,563.44
18.74179,550.39,565.33
18.76191,547.90,567.53
18.78227,549.68,568.53
18.80160,547.49,567.14
18.82065,549.26,567.20
18.84059,549.28,567.80
18.86146,548.32,565.81
18.88115,547.59,568.24
18.90177,546.52,567.53
18.92127,548.27,567.89
18.94162,547.30,566.94
18.96214,546.93,568.08
18.98040,547.70,565.86
19.00188,548.42,567.26
19.02199,547.34,567.38
19.04087,548.83,566.61
19.06228,547.68,564.26
19.08215,549.95,566.40
19.10267,548.63,563.63
19.12405,548.59,562.85
19.14308,546.66,564.95
19.16334,543.40,562.22
19.18273,544.30,560.65
19.20408,544.68,563.09
19.22321,542.42,560.78
19.24354,542.11,560.75
19.26215,543.99,558.72
19.28244,541.05,557.63
19.30376,542.80,557.80
19.32372,541.35,560.81
19.34313,539.33,558.87
19.36294,539.69,557.11
19.38239,541.60,556.04
19.40289,543.23,556.70
19.42481,540.95,554.80
19.44404,540.81,555.51
19.46430,540.04,556.36
19.48446,538.39,554.20
19.50534,537.08,555.83
19.52516,538.71,555.13
19.54503,536.54,555.24
19.56483,540.56,554.92
19.58332,539.11,557.01
19.60352,536.41,558.01
19.62353,538.63,555.08
19.64425,536.86,557.89
19.66476,537.44,556.92
19.68396,536.93,559.11
19.70447,535.61,561.87
19.72469,535.18,559.30
19.74370,537.73,561.37
19.76389,535.74,560.03
19.78472,537.40,557.22
19.80350,537.59,557.44
19.82444,535.97,558.25
19.84436,537.08,556.22
19.86477,535.53,557.51
19.88540,538.02,556.85
19.90486,537.07,554.30
19.92462,538.00,552.75
19.94577,535.30,552.93
19.96602,536.80,552.95
19.98552,536.35,552.64
20.00449,536.91,554.95
20.02452,535.29,552.36
20.04558,532.10,553.92
20.06536,534.87,552.91
20.08621,535.69,553.45
20.10540,534.47,550.21
20.12413,537.21,552.85
20.14602,533.56,552.61
20.16585,535.52,550.45
20.18585,535.83,552.52
20.20514,535.64,549.96
20.22441,534.31,551.74
20.24512,534.13,549.47
20.26523,535.63,549.76
20.28528,533.91,551.69
20.30576,534.50,549.39
20.32516,536.94,552.13
20.34586,536.31,550.51
20.36453,536.83,551.80
20.38525,533.44,550.28
20.40461,535.39,549.11
20.42462,534.54,551.87
20.44513,536.27,551.25
20.46494,533.50,550.15
20.48517,537.46,549.00
20.50499,533.96,550.74
20.52512,534.89,552.28
20.54514,534.85,554.84
20.56459,535.27,552.55
20.58473,533.35,551.74
20.60605,535.80,554.18
20.62521,534.52,551.87
20.64615,535.58,553.96
20.66492,531.21,552.42
20.68437,535.82,551.89
20.70542,533.96,549.47
20.72473,537.02,550.47
20.74555,533.84,551.27
20.76516,535.70,550.00
20.78607,534.92,548.42
20.80614,534.88,549.07
20.82431,533.82,548.79
20.84436,536.92,552.29
20.86578,536.32,550.12
20.88458,536.25,548.31
20.90532,533.64,550.29
20.92628,532.46,549.79
20.94510,531.39,539.39
20.96589,530.79,523.37
20.98512,531.59,507.68
21.00555,532.72,490.70
21.02506,531.42,476.34
21.04482,530.81,459.59
21.06514,527.05,444.24
21.08450,527.25,428.07
21.10598,525.88,413.89
21.12473,524.43,407.98
21.14455,523.70,400.76
21.16603,524.08,402.75
21.18499,523.21,403.80
21.20551,524.66,409.99
21.22560,525.19,417.71
21.24515,525.62,429.70
21.26607,526.00,440.05
21.28446,528.62,449.28
21.30563,529.16,463.46
21.32531,529.69,471.98
21.34449,529.11,484.64
21.36590,532.09,493.37
21.38516,531.55,501.53
21.40577,531.92,506.77
21.42532,533.07,514.22
21.44431,532.65,520.16
21.46574,527.28,524.42
21.48442,523.66,528.23
21.50556,525.48,533.08
21.52477,522.47,536.22
21.54473,520.94,536.45
21.56599,521.54,536.32
21.58490,523.04,538.09
21.60553,523.03,541.80
21.62531,522.42,556.24
21.64544,523.71,583.22
21.66438,528.40,624.11
21.68586,530.06,669.23
21.70445,535.39,708.97
21.72591,543.25,739.46
21.74604,547.26,753.45
21.76502,550.12,752.15
21.78571,552.64,742.90
21.80501,554.25,726.43
21.82472,552.67,706.75
21.84449,551.45,685.77
21.86482,549.18,667.71
21.88547,549.27,652.66
21.90435,547.08,636.29
21.92510,544.56,624.71
21.94485,540.77,612.53
21.96580,540.74,606.80
21.98601,541.21,597.10
22.00444,540.92,592.20
22.02558,542.99,584.96
22.04496,539.41,578.78
22.06498,540.03,575.71
22.08485,537.80,568.50
22.10442,537.25,567.06
22.12569,537.35,563.13
22.14476,537.96,563.38
22.16494,537.84,560.77
22.18419,536.63,557.63
22.20543,535.04,557.47
22.22579,531.60,558.08
22.24424,535.19,555.15
22.26588,536.66,552.44
22.28572,535.48,550.67
22.30583,535.44,553.27
22.32567,536.02,552.79
22.34553,532.34,549.88
22.36608,533.58,549.69
22.38500,531.08,549.82
22.40533,531.77,550.21
22.42616,530.68,552.89
22.44503,533.59,552.21
22.46597,530.61,552.64
22.48512,534.24,552.85
22.50438,533.68,551.99
22.52409,534.17,550.09
22.54513,536.13,548.97
22.56564,535.16,549.52
22.58580,535.35,548.80
22.60418,532.11,549.32
22.62580,534.53,550.28
22.64414,533.95,547.50
22.66600,532.48,549.93
22.68525,531.04,549.82
22.70482,532.52,549.17
22.72496,533.23,550.24
22.74472,530.43,551.89
22.76626,532.04,551.27
22.78521,532.09,550.42
22.80588,533.64,550.76
22.82446,533.87,550.61
22.84640,534.53,548.67
22.86506,535.05,548.58
22.88521,533.86,552.42
22.90505,532.70,550.08
22.92504,534.30,551.48
22.94577,532.87,553.48
22.96444,533.10,551.20
22.98608,531.59,553.58
23.00469,532.09,554.73
23.02597,531.40,554.72
23.04492,532.52,553.66
23.06439,529.90,552.84
23.08592,531.94,553.82
23.10597,530.14,555.08
23.12515,532.73,555.24
23.14574,531.73,556.85
23.16497,534.02,553.63
23.18423,533.61,556.82
23.20581,536.42,554.92
23.22448,533.59,553.06
23.24592,535.08,551.73
23.26600,535.16,551.92
23.28473,535.20,550.40
23.30553,538.00,549.80
23.32609,537.29,551.53
23.34538,535.47,547.74
23.36613,533.84,548.49
23.38433,536.89,550.00
23.40594,533.88,548.46
23.42556,535.65,549.72
23.44417,534.15,552.42
23.46594,533.87,552.04
23.48523,534.62,551.53
23.50441,534.09,549.69
23.52601,530.84,548.88
23.54616,529.63,548.59
23.56576,531.14,547.46
23.58515,533.05,545.46
23.60553,531.40,544.83
23.62545,531.22,545.59
23.64707,530.48,545.99
23.66547,532.85,546.34
23.68683,530.09,545.62
23.70653,533.53,544.85
23.72672,533.80,547.17
23.74525,529.51,545.15
23.76658,532.02,545.53
23.78689,530.31,549.04
23.80624,532.52,550.57
23.82553,534.75,550.61
23.84562,533.75,547.62
23.86637,533.61,549.14
23.88660,531.82,547.95
23.90691,532.27,546.66
23.92573,532.55,548.82
23.94706,537.41,546.18
23.96640,536.62,547.02
23.98584,537.06,546.78
24.00715,534.11,545.77
24.02562,536.00,545.87
24.04522,534.78,547.19
24.06708,535.96,547.95
24.08529,538.79,547.66
24.10552,537.58,544.26
24.12716,537.35,547.74
24.14615,536.98,546.71
24.16607,538.83,546.74
24.18675,536.94,543.72
24.20582,538.02,547.72
24.22668,538.04,543.71
24.24672,538.51,545.27
24.26595,535.90,546.90
24.28542,534.66,546.19
24.30541,534.14,543.71
24.32686,533.58,547.07
24.34578,534.82,544.20
24.36547,532.40,547.42
24.38605,533.62,547.02
24.40555,535.97,546.66
24.42562,534.20,548.82
24.44653,537.46,545.73
24.46671,536.83,547.76
24.48581,536.20,546.47
24.50664,535.21,548.09
24.52702,536.13,547.96
24.54631,536.48,548.00
24.56614,536.72,549.76
24.58682,535.56,548.06
24.65084,536.23,550.94
24.65093,536.54,547.99
24.65061,536.09,549.66
24.66649,534.46,547.44
24.68633,534.27,548.26
24.70524,534.88,548.23
24.72532,532.85,548.72
24.74690,534.22,546.50
24.76561,531.94,547.57
24.78709,534.15,544.51
24.80557,533.36,548.56
24.82713,535.87,547.55
24.84708,535.25,545.12
24.86650,536.97,544.24
24.88688,535.36,543.42
24.90600,537.68,545.54
24.92646,537.41,546.04
24.94751,536.39,546.21
24.96762,539.18,546.58
24.98733,539.23,548.73
25.00733,539.26,547.13
25.02677,535.80,549.28
25.04742,537.05,546.87
25.06631,537.64,549.09
25.08830,536.06,548.63
25.10705,538.65,551.05
25.12637,539.49,549.39
25.14673,539.42,549.37
25.16634,536.95,548.73
25.18781,541.18,550.23
25.20705,541.45,553.75
25.22705,539.18,555.05
25.24905,539.02,550.60
25.26735,538.80,540.60
25.28762,533.02,523.78
25.30910,528.90,502.08
25.32751,525.72,480.75
25.34882,520.65,460.93
25.36866,519.07,444.07
25.38908,520.12,425.26
25.40787,519.49,414.77
25.42801,516.93,406.30
25.44913,519.39,405.12
25.46812,521.47,407.65
25.48825,525.37,412.46
25.50873,530.44,416.77
25.52860,532.38,426.18
25.54885,533.84,435.80
25.56821,534.11,444.94
25.58867,539.28,457.68
25.60800,539.66,469.60
25.62876,539.96,480.23
25.64720,541.03,487.07
25.66809,541.67,493.51
25.68757,543.87,504.63
25.70909,542.73,510.05
25.72907,544.16,511.97
25.74774,546.58,517.26
25.76886,544.29,520.66
25.78899,544.81,526.74
25.80891,543.35,530.14
25.82853,545.05,531.91
25.84770,544.79,533.14
25.86891,546.75,534.89
25.88888,545.79,541.63
25.90861,547.51,565.16
25.92883,548.26,601.28
25.94773,549.56,648.89
25.96717,555.83,692.39
25.98731,557.28,729.83
26.00812,561.37,756.90
26.02837,564.53,760.79
26.04740,566.46,749.02
26.06849,563.08,731.54
26.08738,561.61,714.71
26.10780,560.23,689.41
26.12872,560.47,669.99
26.14919,558.81,650.68
26.16877,558.93,635.35
26.18725,557.07,620.98
26.20906,553.20,606.15
26.22850,554.27,598.04
26.24782,553.59,588.07
26.26770,552.90,583.78
26.28817,551.51,578.53
26.30771,555.29,576.91
26.32803,553.38,571.00
26.34793,555.50,568.32
26.36755,553.70,566.67
26.38779,552.27,563.55
26.40703,553.60,560.55
26.42871,552.91,559.56
26.44875,553.97,557.01
26.46744,550.64,556.69
26.48819,553.12,555.71
26.50841,552.58,555.84
26.52879,551.01,557.81
26.54910,548.41,555.08
26.56797,550.69,556.35
26.58812,550.11,557.26
26.60864,550.60,553.86
26.62840,550.20,557.04
26.64844,550.17,554.19
26.66778,546.64,555.04
26.68714,547.76,555.36
26.70850,545.86,554.29
26.72721,548.96,552.99
26.74795,546.91,553.50
26.76727,548.64,551.12
26.78903,546.26,554.16
26.80783,546.40,554.46
26.82793,549.66,552.11
26.84845,550.53,554.21
26.86739,548.06,553.65
26.88869,549.38,556.72
26.90820,551.51,557.18
26.92858,552.12,557.53
26.94810,550.62,557.21
26.96748,549.86,556.29
26.98800,550.18,558.87
27.00846,551.49,558.63
27.02782,551.92,559.01
27.04742,551.60,555.83
27.06776,551.48,556.22
27.08759,548.55,555.53
27.10769,549.96,555.00
27.12767,550.66,556.51
27.14857,550.88,555.61
27.16803,552.02,555.24
27.18752,552.67,555.15
27.20849,553.14,554.20
27.22850,549.11,556.58
27.24841,550.91,556.65
27.26717,549.88,552.70
27.28872,547.96,554.75
27.30757,551.20,553.94
27.32772,549.42,552.50
27.34860,552.25,554.59
27.36756,552.02,551.78
27.38809,550.56,553.37
27.40724,551.00,553.15
27.42888,550.38,553.66
27.44788,549.16,551.76
27.46850,547.48,552.30
27.48727,549.74,553.92
27.50774,551.91,554.89
27.52747,551.13,553.47
27.54772,551.75,554.14
27.56756,549.91,552.98
27.58822,552.15,555.48
27.60733,552.01,555.66
27.62882,551.94,555.23
27.64774,553.93,553.68
27.66734,551.58,555.43
27.68759,553.80,553.41
27.70785,553.59,557.23
27.72754,553.41,554.97
27.74885,551.20,556.71
27.76731,552.25,556.28
27.78850,550.86,555.94
27.80761,552.81,556.75
27.82800,550.64,555.71
27.84916,549.63,557.07
27.86878,549.90,556.76
27.88876,548.16,553.59
27.90812,549.84,553.52
27.92862,549.90,557.01
27.94783,550.58,553.22
27.96730,548.09,555.11
27.98724,551.98,551.76
28.00829,550.47,553.51
28.02781,550.53,554.25
28.04807,550.79,551.05
28.06725,550.05,554.34
28.08819,550.04,552.58
28.10809,550.99,550.08
28.12755,551.84,554.65
28.14850,549.56,553.01
28.16799,550.88,553.61
28.18691,552.77,556.51
28.20808,552.36,553.96
28.22893,553.62,557.31
28.24808,551.12,554.75
28.26874,550.95,554.29
28.28805,550.68,557.38
28.30853,548.46,556.47
28.32749,551.72,557.22
28.34791,548.61,553.53
28.36897,550.83,555.56
28.38772,550.91,554.57
28.40851,550.83,556.34
28.42852,552.33,554.24
28.44842,552.58,555.39
28.46789,552.27,556.30
28.48958,551.29,555.25
28.50938,552.69,557.47
28.52791,557.63,559.27
28.54829,556.97,556.37
28.56925,553.58,558.47
28.58978,555.11,557.89
28.60961,555.99,556.32
28.62978,554.24,557.27
28.64988,555.21,556.80
28.66794,552.40,557.89
28.68988,551.93,558.30
28.70822,552.47,558.06
28.72951,551.88,556.55
28.74955,550.18,555.90
28.76963,547.44,556.06
28.78933,549.10,555.01
28.80872,548.45,555.78
28.82892,550.11,555.92
28.84836,548.26,556.84
28.86919,552.35,556.04
28.88973,548.64,555.26
28.90918,548.10,558.57
28.92926,548.93,557.49
28.94826,549.81,557.71
28.96911,547.18,560.19
28.98899,549.86,557.78
29.00953,550.11,559.84
29.03004,549.57,558.05
29.04968,548.19,557.27
29.06957,547.62,557.33
29.08902,548.11,556.62
29.10899,547.40,558.02
29.13006,548.08,555.89
29.14974,548.78,559.15
29.16936,548.12,557.79
29.18951,548.46,557.54
29.21020,548.68,558.24
29.22818,550.90,556.28
29.24993,552.33,556.93
29.26904,551.92,558.30
29.28917,552.91,558.01
29.30881,551.47,557.82
29.32901,552.44,555.00
29.34915,551.16,554.79
29.36919,552.94,553.40
29.38902,553.46,557.18
29.40849,552.10,557.91
29.42944,550.76,557.30
29.44999,548.14,555.66
29.47004,548.09,557.10
29.49031,548.43,556.90
29.50977,548.69,556.22
29.52979,548.52,557.42
29.55108,550.46,559.19
29.56994,547.17,556.93
29.59016,546.99,559.84
29.61057,551.07,560.03
29.63022,553.31,561.32
29.64915,552.42,559.22
29.67095,552.32,561.13
29.68936,552.75,558.61
29.71084,550.60,559.48
29.72974,552.01,557.61
29.74886,551.03,547.98
29.76994,546.94,531.62
29.79025,544.61,512.81
29.81066,541.46,490.93
29.82964,541.10,469.53
29.85080,537.92,449.22
29.87058,535.92,434.47
29.88906,533.72,423.89
29.90997,535.06,416.32
29.93015,534.37,414.71
29.95071,534.78,414.42
29.97049,534.15,419.31
29.98950,534.18,427.06
30.01040,535.95,434.82
30.03027,537.81,446.48
30.05034,541.69,455.66
30.06989,543.97,466.66
30.08998,544.08,475.06
30.11008,543.79,484.77
30.13074,547.40,493.36
30.14947,544.71,503.20
30.17002,546.75,510.77
30.19010,546.89,518.89
30.20989,545.48,522.38
30.22942,545.73,527.93
30.25082,547.63,533.63
30.26975,546.23,537.15
30.28971,548.09,563.51
30.30951,552.66,600.30
30.32995,556.13,648.63
30.35085,556.00,689.36
30.37021,558.20,720.13
30.38992,559.14,737.77
30.41012,561.22,740.54
30.43075,562.21,735.43
30.45051,564.88,723.25
30.46955,563.17,707.59
30.49001,561.09,687.63
30.51021,559.83,670.61
30.53086,557.74,653.23
30.54981,556.59,637.11
30.56949,555.51,624.29
30.59069,556.74,611.39
30.61010,553.90,604.93
30.63041,554.81,594.85
30.65048,552.63,586.65
30.67066,553.13,581.04
30.69062,552.25,576.03
30.71097,553.24,572.15
30.73089,550.12,570.31
30.74949,549.50,567.05
30.77059,548.62,563.65
30.78967,548.73,565.36
30.81107,548.57,561.76
30.82997,546.32,558.87
30.84990,544.43,558.24
30.87044,545.85,559.23
30.89034,548.93,558.68
30.91031,546.45,558.80
30.93056,547.52,562.20
30.95024,550.58,559.44
30.96989,550.87,561.32
30.99065,548.26,563.29
31.00925,549.56,561.43
31.03043,550.60,562.76
31.05058,547.73,560.03
31.07075,547.74,559.43
31.09025,552.32,561.33
31.10960,552.51,560.47
31.12985,551.70,560.52
31.14929,549.10,557.26
31.17013,550.76,557.28
31.19046,547.17,555.76
31.21007,549.35,555.86
31.22925,550.06,558.81
31.25056,550.61,558.70
31.26940,548.15,556.62
31.28936,550.22,557.67
31.30953,550.52,558.00
31.32880,549.80,555.19
31.34944,550.64,557.91
31.37032,547.09,555.73
31.38906,549.45,555.78
31.41016,549.50,555.34
31.42996,547.63,553.96
31.45033,546.54,555.92
31.46947,549.22,555.10
31.48955,545.68,555.49
31.51027,544.31,556.68
31.53095,545.04,557.65
31.55003,544.38,557.35
31.57066,546.77,560.34
31.58978,546.04,560.64
31.61077,546.86,561.07
31.62964,546.84,562.84
31.65048,546.09,559.67
31.66934,545.77,559.01
31.69015,548.47,558.78
31.71074,548.47,559.32
31.72944,548.26,559.39
31.74908,549.06,556.42
31.77033,548.94,555.30
31.79050,550.06,557.54
31.80962,546.24,556.95
31.82926,546.10,556.97
31.85054,547.29,556.28
31.87046,543.16,555.11
31.88898,543.84,556.84
31.90947,542.56,556.22
31.92946,542.85,557.56
31.95021,542.32,556.95
31.96947,544.36,557.83
31.99107,545.18,556.46
32.01045,544.50,557.16
32.02957,548.77,554.94
32.04942,549.34,559.06
32.06905,548.77,557.97
32.08953,548.19,558.26
32.10971,545.92,557.75
32.13052,547.30,556.55
32.14960,544.97,556.53
32.16881,547.39,560.12
32.18937,545.72,560.76
32.21077,546.90,560.05
32.22949,546.40,559.08
32.25007,548.27,559.39
32.26927,548.33,562.90
32.29073,546.20,561.26
32.30995,546.55,561.06
32.33067,547.79,559.72
32.34885,545.66,559.45
32.37082,544.01,560.32
32.38911,544.46,560.22
32.41048,543.61,558.41
32.43097,544.59,556.83
32.45001,544.85,560.39
32.47041,545.95,556.90
32.48938,547.13,558.05
32.51030,543.44,554.89
32.53017,547.36,554.17
32.54901,542.71,556.19
32.57020,544.84,553.94
32.59014,546.69,555.25
32.61076,544.40,555.41
32.63028,544.77,555.65
32.65082,544.20,555.60
32.67085,544.79,554.53
32.68916,547.44,554.71
32.71054,544.95,556.31
32.72891,546.19,554.12
32.74926,545.11,555.49
32.77024,544.41,555.84
32.79015,544.36,556.56
32.81098,545.19,556.12
32.82923,545.40,556.18
32.85048,545.47,556.06
32.86993,545.27,557.92
32.89020,544.08,553.95
32.91066,545.91,555.86
32.92904,544.97,553.96
32.95011,545.15,554.16
32.96934,543.45,554.63
32.98950,544.43,554.35
33.00919,545.43,554.72
33.02947,544.05,555.07
33.05002,542.24,555.81
33.06885,543.64,556.77
33.08958,543.02,553.35
33.11031,541.00,554.77
33.12939,540.77,556.02
33.15089,542.68,555.08
33.16977,544.25,555.56
33.18903,545.35,555.81
33.21047,543.48,555.97
33.22996,544.88,555.50
33.25015,544.57,554.90
33.27068,542.91,555.36
33.29049,541.11,555.02
33.30962,541.51,555.06
33.33028,543.30,554.61
33.35018,543.09,554.53
33.36943,543.77,556.11
33.39089,540.69,556.61
33.40998,540.79,555.40
33.43098,539.11,554.90
33.44945,541.60,555.44
33.47036,539.92,554.24
33.48910,540.66,555.62
33.50950,541.74,554.30
33.52932,542.91,553.26
33.54955,545.41,554.46
33.56968,543.18,553.85
33.58968,542.04,552.27
33.60911,544.30,552.74
33.62961,541.30,553.96
33.64931,539.76,553.06
33.66912,542.07,552.46
33.68921,542.88,555.65
33.70986,539.10,553.11
33.72991,543.52,552.76
33.75040,542.80,554.11
33.77062,543.60,552.85
33.78963,542.22,555.08
33.81035,541.97,552.61
33.82999,541.53,555.72
33.84993,543.20,552.27
33.86883,541.40,555.74
33.89001,540.14,555.89
33.91127,540.67,555.55
33.93135,540.23,555.21
33.95186,539.93,554.50
33.97135,539.35,552.06
33.99212,536.62,550.59
34.01136,535.70,551.34
34.03295,537.49,550.65
34.05254,534.39,551.60
34.07084,537.60,549.83
34.09217,535.02,552.59
34.11226,534.77,551.63
34.13176,536.39,548.89
34.15248,534.50,548.57
34.17172,535.13,549.95
34.19158,536.29,550.21
34.21257,534.51,549.52
34.23200,536.14,548.77
34.25160,533.33,546.78
34.27125,535.27,549.12
34.29190,536.09,549.74
34.31183,534.70,548.84
34.33187,535.50,548.83
34.35160,537.02,551.61
34.37144,534.38,551.49
34.39275,534.03,553.70
34.41162,533.47,555.88
34.43109,534.21,551.16
34.45188,533.66,531.04
34.47171,532.41,505.21
34.49166,526.56,483.49
34.51264,520.91,460.22
34.53154,518.67,438.55
34.55153,515.90,425.75
34.57194,516.28,413.14
34.59142,517.40,404.65
34.61225,515.62,404.76
34.63220,519.70,406.26
34.65216,521.65,411.70
34.67216,525.32,420.14
34.69161,529.41,431.93
34.71136,534.69,443.32
34.73320,537.35,451.74
34.75297,540.16,464.81
34.77283,539.76,475.75
34.79281,540.21,482.89
34.81385,537.52,489.64
34.83208,537.27,497.26
34.85284,539.54,503.41
34.87250,536.14,509.39
34.89244,538.34,516.36
34.91293,530.79,518.84
34.93303,530.02,523.11
34.95384,526.17,527.52
34.97212,523.94,531.35
34.99302,524.58,530.81
35.01217,523.60,532.21
35.03319,526.19,536.04
35.05261,526.49,537.77
35.07268,528.95,548.55
35.09358,531.83,574.36
35.11200,537.84,618.16
35.13245,545.08,659.62
35.15313,550.37,696.44
35.17343,553.69,725.20
35.19329,554.88,738.49
35.21329,551.48,739.41
35.23311,553.39,727.22
35.25368,549.09,712.33
35.27226,546.77,694.40
35.29303,545.19,673.42
35.31339,542.45,658.06
35.33266,541.64,643.00
35.35338,539.36,629.44
35.37333,540.63,614.84
35.39356,536.13,606.96
35.41301,537.54,596.91
35.43318,533.78,590.79
35.45199,534.50,583.55
35.47367,531.47,578.07
35.49214,533.16,573.32
35.51396,531.83,570.22
35.53389,534.60,566.34
35.55245,532.05,562.56
35.57392,531.98,560.61
35.59255,531.24,558.31
35.61355,531.25,556.17
35.63266,533.78,554.30
35.65187,531.86,553.65
35.67344,532.09,551.51
35.69372,533.38,552.27
35.71368,533.01,552.03
35.73364,531.45,551.32
35.75176,532.07,555.80
35.77351,533.78,563.05
35.79289,531.99,567.98
35.81363,534.57,568.22
35.83203,534.21,566.27
35.85340,532.57,566.23
35.87339,532.17,562.17
35.89276,532.69,560.04
35.91383,531.03,556.51
35.93226,529.57,555.74
35.95355,531.71,552.94
35.97272,533.52,549.10
35.99315,534.45,551.25
36.01366,534.04,548.64
36.03280,532.48,546.08
36.05182,534.29,545.44
36.07372,533.81,545.02
36.09228,534.13,545.11
36.11390,533.39,544.33
36.13318,534.87,548.77
36.15345,533.75,557.92
36.17343,534.68,573.91
36.19378,539.88,602.73
36.21378,542.89,639.58
36.23251,543.39,669.43
36.25300,543.28,677.00
36.27285,543.35,669.78
36.29274,540.80,650.96
36.31299,540.84,627.65
36.33378,535.20,601.96
36.35321,532.20,578.36
36.37279,530.29,557.68
36.39251,528.71,540.80
36.41221,526.39,528.61
36.43199,528.16,515.62
36.45262,527.92,510.94
36.47364,526.65,503.94
36.49372,528.51,502.68
36.51223,526.36,502.35
36.53212,524.75,501.27
36.55197,525.37,503.15
36.57389,526.02,507.27
36.59346,526.82,511.77
36.61323,527.45,516.64
36.63424,528.77,519.07
36.65554,528.67,519.85
36.67518,529.07,526.91
36.69407,529.93,527.76
36.71403,530.01,531.57
36.73398,528.97,534.66
36.75472,531.85,538.13
36.77465,533.00,540.05
36.79574,534.19,540.28
36.81553,536.52,545.22
36.83553,537.03,546.32
36.85521,536.90,546.33
36.87567,534.54,546.91
36.89531,532.96,546.74
36.91674,533.16,547.36
36.93521,534.96,546.70
36.95563,534.87,546.51
36.97643,534.30,549.67
36.99475,534.61,550.82
37.01676,535.40,550.40
37.03548,536.93,550.85
37.05693,536.14,551.99
37.07675,535.03,549.25
37.09506,540.14,552.16
37.11655,538.63,552.88
37.13568,536.61,551.92
37.15667,537.77,550.58
37.17520,538.69,550.21
37.19472,540.89,553.61
37.21646,538.45,549.31
37.23509,540.70,552.89
37.25655,538.99,548.93
37.27611,538.37,550.27
37.29536,540.26,551.95
37.31641,537.79,548.26
37.33631,539.80,549.99
37.35569,539.54,549.06
37.37634,538.22,546.60
37.39600,537.69,547.18
37.41653,539.47,547.66
37.43658,539.91,547.13
37.45543,539.90,548.99
37.47647,537.43,549.18
37.49611,538.94,547.44
37.51640,542.21,549.02
37.53599,542.30,548.41
37.55692,541.32,547.84
37.57510,539.08,548.12
37.59542,537.80,548.98
37.61513,537.91,552.43
37.63570,538.53,552.34
37.65595,539.76,552.63
37.67564,538.48,549.84
37.69673,540.15,550.02
37.71519,540.78,552.02
37.73634,538.30,550.45
37.75541,540.29,549.87
37.77509,537.80,551.49
37.79633,537.23,549.77
37.81619,537.92,551.60
37.83516,537.67,550.99
37.85654,537.84,552.28
37.87661,540.77,549.01
37.89612,538.03,549.54
37.91639,537.41,551.44
37.93672,540.68,550.38
37.95609,539.64,552.47
37.97511,539.59,550.46
37.99678,543.72,553.29
38.01568,540.50,552.41
38.03501,540.66,552.10
38.05654,539.29,551.19
38.07654,541.16,548.99
38.09573,540.15,547.90
38.11559,540.39,548.99
38.13489,539.76,546.64
38.15554,539.58,547.06
38.17682,543.46,550.09
38.19606,543.11,549.16
38.21673,544.61,548.10
38.23703,542.41,552.10
38.25617,541.48,548.66
38.27691,539.78,550.98
38.29657,538.58,550.66
38.31603,541.97,552.97
38.33682,542.52,550.74
38.35597,543.53,551.66
38.37630,545.29,553.32
38.39751,543.82,554.37
38.41602,543.87,552.28
38.43677,543.56,554.27
38.45744,542.48,553.65
38.47765,540.41,552.43
38.49729,540.01,552.58
38.51653,542.10,554.41
38.53760,539.83,551.40
38.55687,539.95,552.46
38.57601,539.93,554.33
38.59638,539.41,552.34
38.61679,543.34,551.60
38.63682,543.65,553.92
38.65714,546.89,553.89
38.67598,545.88,553.43
38.69601,542.61,553.95
38.71668,544.78,553.97
38.73688,542.41,551.96
38.75655,544.44,555.00
38.77655,542.89,553.21
38.79672,543.19,555.60
38.81702,545.59,552.61
38.83597,546.33,551.16
38.85581,544.41,552.82
38.87646,545.52,554.49
38.89732,546.24,557.52
38.91781,545.17,553.91
38.93585,544.95,542.40
38.95748,543.33,523.39
38.97767,540.65,502.56
38.99639,537.59,477.34
39.01770,534.18,459.93
39.03717,530.32,439.06
39.05845,529.68,428.71
39.07798,528.49,422.20
39.09762,526.50,415.59
39.11760,524.92,416.17
39.13694,525.69,415.56
39.15746,527.53,418.53
39.17837,531.85,428.55
39.19712,533.06,437.38
39.21832,532.11,443.14
39.23897,533.82,451.64
39.25863,535.33,464.49
39.27799,538.52,471.44
39.29708,537.36,482.34
39.31842,538.55,492.37
39.33753,542.77,502.21
39.35869,544.14,508.10
39.37946,548.59,513.93
39.39987,548.40,519.84
39.41888,550.41,524.40
39.43857,551.05,529.19
39.45895,552.03,531.24
39.47809,550.67,535.48
39.49794,552.78,538.70
39.51934,553.98,539.12
39.53945,551.68,553.05
39.55824,552.83,586.38
39.57792,559.03,630.98
39.59926,560.84,669.10
39.61979,562.98,703.98
39.63977,567.03,723.85
39.65805,567.25,736.83
39.67831,566.65,736.22
39.69946,568.03,724.98
39.71779,565.81,709.58
39.73968,564.25,689.15
39.75797,562.10,672.93
39.77917,562.81,654.06
39.79913,564.00,637.76
39.81819,562.37,625.00
39.83778,559.24,613.53
39.85934,560.05,607.37
39.87834,555.76,598.57
39.89846,557.54,591.96
39.91918,554.51,584.09
39.93931,556.33,580.55
39.95976,554.47,573.89
39.97890,553.34,570.05
39.99972,553.24,567.93
40.01884,550.83,565.55
40.03877,552.21,565.89
40.05934,551.97,562.16
40.07974,549.13,563.77
40.09955,551.63,561.63
40.11875,550.94,560.60
40.13963,550.98,560.39
40.15849,551.72,561.43
40.17905,552.98,560.98
40.19854,550.71,557.45
40.21806,552.74,557.91
40.23901,551.23,556.84
40.26033,551.59,559.73
40.27972,549.73,557.49
40.30045,549.36,559.74
40.32019,550.16,556.09
40.33911,549.80,558.95
40.35940,551.10,558.21
40.38055,550.70,559.43
40.39939,550.71,558.01
40.42019,552.07,561.51
40.43914,550.83,560.56
40.46074,550.31,557.46
40.47988,552.48,558.55
40.49927,553.50,557.40
40.51961,551.66,558.58
40.54088,551.54,557.46
40.55863,552.82,559.08
40.58030,550.57,558.78
40.60062,553.01,558.35
40.61922,549.32,559.58
40.63947,550.99,557.13
40.65988,550.05,560.40
40.68080,548.86,561.21
40.69934,552.53,561.38
40.72038,550.28,558.12
40.73979,552.49,561.76
40.75932,552.91,560.73
40.77934,553.55,558.07
40.79935,552.89,559.75
40.81959,551.79,561.12
40.83905,553.84,561.09
40.85949,553.28,558.49
40.87930,552.75,555.72
40.90018,551.36,555.89
40.92030,552.94,558.72
40.93901,553.55,556.72
40.95884,551.92,555.20
40.98075,554.00,556.36
40.99996,549.64,558.50
41.02039,548.54,557.01
41.03889,549.72,556.27
41.05954,550.10,558.81
41.08074,547.77,556.80
41.10035,549.38,558.89
41.11901,549.49,559.46
41.14013,546.27,558.60
41.16140,549.68,559.40
41.18068,548.45,557.49
41.19991,548.41,558.33
41.22106,550.19,557.99
41.24056,547.83,558.98
41.26158,547.85,558.35
41.28023,549.11,556.02
41.30015,550.43,556.99
41.32165,551.80,557.77
41.34074,549.60,557.94
41.36079,551.81,558.70
41.38026,551.11,557.81
41.40060,551.19,559.09
41.42028,553.08,559.17
41.44130,552.24,559.44
41.46075,551.08,557.89
41.48020,552.93,558.39
41.50183,553.64,561.51
41.52079,549.79,562.58
41.54016,553.34,561.67
41.56058,553.40,558.91
41.58058,550.39,562.08
41.60167,552.33,560.49
41.62017,553.73,557.73
41.64062,552.72,560.99
41.66166,553.47,557.34
41.68016,554.12,558.76
41.70130,554.86,559.27
41.72082,558.11,559.85
41.74128,557.04,559.69
41.76122,557.26,557.77
41.78041,558.31,556.62
41.80120,558.52,557.92
41.82045,555.66,555.17
41.84096,554.93,557.03
41.86041,555.60,557.38
41.88117,555.98,557.04
41.89999,556.42,556.16
41.92179,554.78,555.88
41.94161,554.14,555.42
41.95987,554.31,554.33
41.98060,551.73,555.12
42.00032,548.94,555.63
42.02128,549.81,555.18
42.04009,549.93,554.27
42.05989,551.40,555.01
42.08007,551.02,555.50
42.10026,550.50,556.16
42.12055,549.48,556.55
42.13993,547.37,556.75
42.16064,547.80,558.81
42.18051,547.48,558.84
42.20051,545.01,554.68
42.22108,548.59,558.27
42.24049,548.51,557.02
42.26040,547.78,556.09
42.28152,544.45,555.40
42.30006,548.21,555.34
42.32045,546.38,554.02
42.34111,548.03,554.91
42.36014,549.06,554.02
42.38155,549.77,554.45
42.40101,545.69,557.62
42.42059,547.11,561.22
42.44016,549.31,563.70
42.46094,548.63,566.34
42.48113,549.21,564.35
42.50150,550.36,561.26
42.52110,549.18,560.45
42.54029,550.13,559.08
42.56014,546.65,558.37
42.58105,549.86,557.27
42.60108,548.41,556.99
42.62118,548.19,558.69
42.64100,549.20,558.17
42.66002,548.96,556.06
42.68067,550.31,556.16
42.70142,550.27,555.07
42.72094,550.33,557.85
42.74053,550.41,555.48
42.76068,549.74,556.88
42.78145,551.78,557.96
42.80043,551.77,558.04
42.81996,552.09,558.20
42.83974,547.91,558.89
42.85994,547.77,559.68
42.88008,549.73,556.95
42.89981,549.04,558.98
42.92006,549.97,559.20
42.94071,551.60,558.92
42.96070,548.76,556.55
42.98014,547.85,556.22
43.00160,550.60,558.55
43.01985,550.45,557.04
43.04159,549.20,555.83
43.06140,551.41,553.52
43.08040,548.86,553.61
43.10124,548.79,554.48
43.12079,551.95,553.19
43.14051,550.16,554.51
43.16105,550.40,555.16
43.17999,547.37,557.65
43.20109,549.31,555.21
43.22063,550.01,554.95
43.23987,552.31,558.31
43.25996,550.66,557.39
43.28126,548.93,559.19
43.30056,550.76,558.22
43.32159,551.53,558.25
43.34173,550.20,558.98
43.36119,549.18,556.97
43.38133,551.34,561.17
43.40120,551.56,560.44
43.42091,551.17,557.72
43.44179,548.84,545.69
43.46119,547.26,531.55
43.48070,543.08,507.04
43.50108,537.29,480.83
43.51981,534.70,455.16
43.54085,527.22,432.17
43.56101,525.50,418.38
43.58045,521.51,405.84
43.60069,522.28,401.36
43.61998,521.97,400.32
43.64024,524.76,402.27
43.66118,529.77,409.74
43.68083,530.63,417.80
43.70060,530.70,428.27
43.72026,532.59,436.50
43.74042,536.90,449.74
43.76103,537.12,459.03
43.77997,537.04,469.90
43.80064,540.25,479.07
43.82000,542.97,489.88
43.83995,541.43,500.47
43.86021,543.60,506.11
43.88171,546.56,515.89
43.90080,552.45,529.36
43.91996,556.89,547.37
43.94103,562.57,564.90
43.96170,566.53,581.55
43.98161,571.31,591.79
44.00168,571.22,595.57
44.02060,570.07,593.45
44.04196,571.85,592.60
44.06151,568.37,585.04
44.08161,565.26,590.44
44.10118,564.17,616.17
44.12258,559.86,647.50
44.14197,554.99,681.66
44.16101,550.99,703.54
44.18208,549.64,714.44
44.20094,546.13,713.63
44.22081,546.55,702.54
44.24136,543.66,690.61
44.26105,542.49,675.86
44.28263,542.33,662.47
44.30179,544.88,649.05
44.32190,542.09,633.96
44.34182,542.22,624.21
44.36314,539.10,612.82
44.38199,541.81,609.16
44.40197,542.49,600.33
44.42190,540.46,594.69
44.44284,540.58,589.49
44.46241,543.57,584.92
44.48171,549.08,576.50
44.50226,552.62,571.73
44.52311,550.76,569.85
44.54338,552.35,567.39
44.56179,554.06,563.15
44.58214,551.43,559.83
44.60206,552.77,558.78
44.62316,552.51,559.80
44.64235,551.18,558.95
44.66309,552.71,559.56
44.68227,549.94,558.47
44.70315,547.85,558.34
44.72233,549.63,560.50
44.74248,547.68,559.83
44.76313,546.79,557.76
44.78181,547.50,558.42
44.80189,545.95,559.21
44.82230,547.02,559.25
44.84266,545.35,558.73
44.86314,545.82,561.85
44.88319,545.02,559.84
44.90188,543.21,560.18
44.92347,541.68,559.56
44.94246,541.74,559.59
44.96312,542.23,558.80
44.98222,542.07,556.43
45.00259,540.43,559.37
45.02350,541.04,557.41
45.04212,543.64,557.87
45.06291,543.41,557.11
45.08208,543.83,557.30
45.10225,542.18,557.40
45.12293,539.96,560.12
45.14353,540.55,557.83
45.16184,541.08,559.40
45.18250,541.29,558.57
45.20337,539.98,560.78
45.22231,539.97,558.79
45.24344,540.09,557.69
45.26251,541.22,558.14
45.28314,538.63,556.30
45.30329,538.52,556.73
45.32289,537.75,556.99
45.34211,538.17,558.00
45.36336,539.97,556.94
45.38375,540.23,557.87
45.40360,538.71,558.21
45.42443,540.02,556.28
45.44354,539.66,559.77
45.46360,539.98,559.62
45.48260,539.24,558.02
45.50358,537.18,554.51
45.52397,539.01,554.45
45.54476,539.32,555.60
45.56276,536.49,554.70
45.58318,535.84,558.03
45.60425,538.74,564.31
45.62397,536.50,566.62
45.64429,536.65,566.10
45.66476,537.86,568.20
45.68270,538.23,570.16
45.70371,538.14,568.48
45.72453,538.36,568.40
45.74359,536.24,567.58
45.76430,536.88,565.49
45.78384,537.08,565.23
45.80430,532.34,564.78
45.82556,534.51,563.23
45.84519,532.07,561.87
45.86574,532.95,559.89
45.88645,535.13,560.12
45.90579,533.69,561.46
45.92585,534.64,560.25
45.94485,533.93,559.91
45.96588,531.88,557.72
45.98623,531.68,559.87
46.00676,534.67,558.68
46.02482,534.47,560.81
46.04625,532.62,557.76
46.06554,536.01,560.27
46.08769,536.02,559.05
46.10661,536.49,554.98
46.12670,534.12,553.85
46.14681,536.16,554.87
46.16888,532.75,554.89
46.18743,532.48,552.52
46.20741,532.46,554.78
46.22816,534.33,550.99
46.24730,534.31,552.86
46.26781,533.24,551.65
46.28832,533.33,553.26
46.30681,532.44,550.07
46.32687,532.55,549.87
46.34721,533.66,549.50
46.36848,532.83,551.74
46.38845,530.63,549.07
46.40694,533.54,546.78
46.42861,534.55,547.33
46.44738,532.39,545.81
46.46712,531.28,546.17
46.48770,533.94,546.70
46.50796,532.40,547.56
46.52868,532.58,549.58
46.54929,535.02,546.96
46.56843,535.79,550.80
46.58791,533.85,550.78
46.60874,533.13,550.46
46.63034,536.17,550.67
46.65000,536.26,551.17
46.66988,538.41,551.56
46.68995,535.79,552.89
46.71027,538.69,552.71
46.73072,538.51,554.50
46.75000,541.07,553.44
46.77004,539.90,553.03
46.79128,539.64,554.41
46.81162,539.58,554.79
46.83044,538.62,554.21
46.85128,537.38,554.51
46.87014,540.36,552.13
46.89017,539.14,552.69
46.90982,538.16,551.80
46.92970,540.50,551.69
46.95100,541.08,554.08
46.97080,539.61,553.24
46.99105,538.49,554.02
47.00971,539.99,551.74
47.03049,539.56,552.29
47.05030,543.59,553.17
47.07138,540.22,552.65
47.08994,541.50,553.94
47.11043,544.08,551.89
47.13023,541.95,553.54
47.15086,544.21,551.60
