Program Time [s],data 0,data 1
6.44141,513.57,564.81
6.46105,511.47,561.46
6.48248,510.84,561.71
6.50140,513.07,559.11
6.52182,514.17,557.01
6.54148,511.55,556.28
6.56163,510.54,553.48
6.58276,511.36,551.85
6.60291,511.88,550.85
6.62216,518.54,546.88
6.64231,520.18,545.77
6.66157,524.48,542.14
6.68146,525.88,538.45
6.70169,524.15,537.62
6.72137,520.93,533.77
6.74262,515.57,535.58
6.76178,515.68,531.95
6.78309,515.68,529.23
6.80214,510.28,520.41
6.82251,510.18,518.27
6.84241,509.71,516.75
6.86364,510.39,517.24
6.88343,511.01,513.63
6.90217,509.65,516.53
6.92224,505.33,517.82
6.94265,505.89,518.20
6.96297,506.36,516.87
6.98285,507.92,522.49
7.00305,503.43,525.36
7.02404,503.14,526.59
7.04367,502.72,533.03
7.06185,499.05,537.60
7.08320,502.27,536.82
7.10247,499.85,541.05
7.12347,502.24,538.85
7.14370,499.04,539.78
7.16211,501.00,541.76
7.18199,504.45,539.48
7.20248,500.37,540.03
7.22357,505.51,542.60
7.24258,503.62,543.79
7.26376,506.98,542.80
7.28239,508.05,541.64
7.30342,507.31,540.65
7.32320,506.30,539.11
7.34215,506.83,541.73
7.36245,507.59,538.91
7.38256,505.24,540.08
7.40384,504.22,540.68
7.42364,503.42,540.81
7.44331,506.15,540.78
7.46185,505.61,539.31
7.48215,507.31,536.67
7.50311,507.92,537.58
7.52207,506.00,536.25
7.54193,508.03,536.88
7.56257,506.29,534.19
7.58310,506.81,534.50
7.60271,509.42,534.60
7.62324,507.73,532.85
7.64326,506.35,534.12
7.66322,504.68,532.97
7.68341,503.90,529.70
7.70283,502.84,529.97
7.72287,502.15,529.50
7.74286,501.48,528.10
7.76224,502.36,528.65
7.78293,499.32,529.83
7.80282,501.44,528.19
7.82245,500.86,528.93
7.84230,501.59,527.58
7.86200,498.27,526.58
7.88342,498.42,523.72
7.90267,498.91,525.62
7.92179,500.13,521.47
7.94324,498.48,523.68
7.96313,501.87,522.58
7.98351,502.98,519.73
8.00219,504.31,520.15
8.02257,503.97,521.89
8.04301,505.66,523.12
8.06304,501.76,523.99
8.08290,500.11,524.39
8.10210,503.29,524.66
8.12269,499.10,521.50
8.14219,498.69,522.50
8.16458,500.93,522.04
8.18438,502.48,520.36
8.20444,502.69,519.29
8.22434,500.07,520.39
8.24326,502.45,517.86
8.26494,502.94,520.27
8.28440,505.47,520.07
8.30425,504.58,520.55
8.32412,503.01,518.49
8.34416,505.40,519.91
8.36287,504.00,516.98
8.38375,502.61,510.36
8.40422,500.18,509.83
8.42424,499.20,503.83
8.44309,496.69,502.71
8.46431,491.69,501.18
8.48366,486.26,503.05
8.50305,485.45,500.30
8.52470,487.44,502.61
8.54271,490.27,500.72
8.56309,492.16,499.84
8.58317,491.56,502.24
8.60361,493.81,502.98
8.62353,496.72,507.48
8.64368,497.83,507.29
8.66328,501.12,512.46
8.68432,502.26,512.99
8.70486,502.50,523.87
8.72465,507.21,534.85
8.74343,514.27,552.81
8.76406,519.64,567.48
8.78297,517.76,575.00
8.80449,516.59,578.28
8.82389,517.64,577.36
8.84364,517.76,566.56
8.86369,516.70,556.09
8.88341,515.87,548.85
8.90364,512.83,540.06
8.92369,512.89,533.26
8.94383,508.70,526.05
8.96394,511.56,521.68
8.98455,510.60,514.55
9.00363,505.62,514.13
9.02434,508.80,511.92
9.04392,505.97,509.43
9.06293,507.66,513.07
9.08297,510.15,527.32
9.10450,513.08,535.04
9.12398,510.41,542.08
9.14393,512.65,542.31
9.16309,510.55,541.11
9.18427,510.20,540.25
9.20376,509.49,534.37
9.22316,514.35,533.80
9.24349,510.47,527.62
9.26450,509.96,529.00
9.28392,509.31,525.07
9.30404,509.00,524.63
9.32316,506.14,518.78
9.34384,505.99,519.19
9.36291,506.16,517.08
9.38269,502.47,518.98
9.40447,504.00,519.94
9.42436,503.55,522.60
9.44301,501.71,526.35
9.46434,498.55,528.34
9.48571,500.45,529.56
9.50394,498.57,533.40
9.52532,499.25,535.52
9.54458,500.60,537.42
9.56533,501.75,537.05
9.58495,501.90,533.41
9.60407,502.00,534.47
9.62524,499.53,531.86
9.64505,503.65,534.50
9.66406,504.63,534.10
9.68386,501.37,532.94
9.70382,504.30,530.22
9.72384,500.61,530.54
9.74425,499.25,531.96
9.76549,499.84,530.94
9.78561,498.51,530.85
9.80497,499.82,534.98
9.82664,497.41,533.15
9.84610,500.77,535.84
9.86610,500.02,534.85
9.88681,502.06,534.06
9.90644,500.70,538.17
9.92512,502.97,535.93
9.94634,503.19,539.96
9.96734,502.20,540.20
9.98781,501.02,538.59
10.00635,504.54,538.50
10.02662,501.84,540.60
10.04603,503.17,541.22
10.06626,504.36,541.94
10.08684,502.36,540.37
10.10676,500.02,538.97
10.12678,500.99,539.86
10.14711,501.64,539.69
10.16701,500.22,538.32
10.18634,499.91,538.33
10.20602,499.90,537.50
10.22724,497.60,537.24
10.24723,498.18,534.06
10.26700,497.84,536.63
10.28724,498.02,536.47
10.30744,499.41,534.76
10.32633,497.54,538.27
10.34740,499.01,540.18
10.36611,503.08,534.98
10.38630,500.93,520.40
10.40654,499.18,502.51
10.42790,497.43,480.04
10.44754,492.80,455.66
10.46755,489.16,437.33
10.48651,489.25,417.74
10.50616,483.09,406.79
10.52749,484.95,396.89
10.54846,486.65,393.69
10.56837,485.14,395.49
10.58709,488.49,399.12
10.60800,489.59,404.87
10.62833,491.43,411.90
10.64823,490.91,420.47
10.66883,494.82,433.22
10.68812,491.43,443.91
10.70878,491.35,456.04
10.72878,495.74,463.30
10.74757,497.41,473.84
10.76837,497.93,482.02
10.78805,496.14,489.28
10.80790,498.96,495.99
10.82740,498.70,501.63
10.84780,501.09,505.59
10.86756,501.49,509.31
10.88813,504.77,516.22
10.90849,507.61,524.33
10.92839,508.95,528.11
10.94850,512.48,532.87
10.96873,514.56,536.69
10.98909,511.49,535.75
11.00974,512.90,537.60
11.02942,511.44,539.25
11.05058,511.12,539.11
11.06912,511.92,539.30
11.09018,512.88,542.30
11.10920,508.90,542.94
11.13005,509.21,541.79
11.15146,506.28,546.47
11.17039,504.43,547.21
11.19001,502.57,547.96
11.21124,505.10,548.53
11.23054,502.93,545.71
11.25023,500.88,546.23
11.26990,502.69,544.55
11.29030,502.17,545.74
11.31190,499.33,545.06
11.32983,499.43,546.07
11.35150,501.66,546.62
11.37148,498.83,546.54
11.38980,501.90,545.45
11.40975,502.46,555.55
11.43182,501.96,583.90
11.45056,504.76,625.43
11.46994,505.65,672.55
11.49138,507.70,708.56
11.51150,508.42,729.84
11.53116,506.68,728.19
11.55120,510.13,718.05
11.57143,505.08,699.77
11.59106,505.29,677.48
11.61010,505.61,657.68
11.63189,503.87,641.73
11.65030,506.45,624.97
11.67112,505.96,611.50
11.68993,505.55,602.24
11.71045,503.86,595.21
11.73075,504.76,587.28
11.75053,502.32,578.77
11.77129,503.08,577.94
11.79102,505.93,571.07
11.81015,504.26,567.16
11.83146,504.45,560.84
11.85032,507.46,559.00
11.87132,505.19,556.04
11.89159,507.38,552.81
11.91061,506.03,554.04
11.93116,503.50,554.88
11.95073,503.67,552.87
11.96974,502.31,549.35
11.99040,504.96,550.39
12.01070,502.96,551.14
12.03070,504.16,551.97
12.05125,503.02,546.82
12.07184,503.72,549.84
12.09181,503.15,548.60
12.11197,503.81,546.94
12.13163,501.68,544.08
12.15223,500.59,544.44
12.17081,502.42,544.40
12.19131,504.30,545.24
12.21268,505.04,544.83
12.23250,505.35,542.79
12.25278,504.77,544.58
12.27092,501.33,542.56
12.29248,501.96,541.90
12.31187,500.96,540.82
12.33107,503.10,541.08
12.35189,504.20,539.56
12.37266,502.41,540.44
12.39218,503.72,536.01
12.41166,503.48,536.70
12.43095,504.32,536.56
12.45173,505.60,537.56
12.47151,504.47,536.81
12.49136,506.72,536.28
12.51116,509.36,539.00
12.53240,505.88,539.48
12.55099,505.40,538.46
12.57112,503.89,537.73
12.59233,504.88,538.66
12.61141,504.69,539.83
12.63226,505.19,540.33
12.65236,506.96,540.44
12.67181,505.09,538.68
12.69195,504.74,538.74
12.71245,505.46,538.61
12.73125,503.76,539.82
12.75181,504.99,539.61
12.77181,501.66,537.39
12.79189,503.71,535.57
12.81120,501.94,535.99
12.83258,501.54,537.47
12.85211,504.11,535.88
12.87123,500.97,537.04
12.89071,500.05,535.81
12.91205,502.68,536.32
12.93072,501.92,535.17
12.95215,501.10,538.90
12.97185,500.41,535.53
12.99151,501.71,537.80
13.01237,503.92,534.92
13.03234,505.78,534.84
13.05144,505.56,537.61
13.07154,503.70,538.65
13.09228,504.98,533.58
13.11189,504.99,525.15
13.13244,503.22,512.60
13.15257,503.26,500.21
13.17084,498.11,482.57
13.19100,498.77,469.90
13.21194,496.16,456.17
13.23342,493.94,444.90
13.25350,492.50,433.89
13.27305,492.16,424.59
13.29323,489.01,420.08
13.31361,490.65,418.53
13.33234,492.83,417.82
13.35316,494.88,420.42
13.37348,496.31,421.74
13.39231,497.37,427.80
13.41359,497.52,435.52
13.43198,499.11,446.70
13.45277,499.97,455.69
13.47349,502.92,463.29
13.49379,500.59,469.97
13.51563,503.37,481.04
13.53468,503.95,485.45
13.55377,502.94,492.29
13.57534,503.18,496.47
13.59464,504.18,502.11
13.61393,507.18,509.97
13.63577,507.78,513.90
13.65577,507.87,517.18
13.67566,510.09,522.08
13.69494,508.35,524.31
13.71498,510.67,523.76
13.73470,507.21,528.61
13.75519,508.63,530.76
13.77455,504.27,528.53
13.79549,503.47,531.03
13.81491,502.99,533.82
13.83498,504.85,535.42
13.85454,502.43,533.80
13.87560,502.93,536.61
13.89542,500.84,534.95
13.91470,500.78,534.72
13.93598,502.98,534.45
13.95677,503.27,535.28
13.97467,504.73,534.94
13.99671,501.28,536.11
14.01602,501.62,535.63
14.03593,501.27,535.05
14.05485,502.19,532.84
14.07562,503.25,531.69
14.09630,502.87,532.74
14.11560,504.75,535.31
14.13722,501.57,535.83
14.15794,503.59,533.99
14.17844,501.34,533.20
14.19770,499.79,534.96
14.21765,500.50,536.16
14.23781,499.23,536.36
14.25693,500.58,533.45
14.27713,500.97,533.15
14.29849,497.23,532.67
14.31819,500.43,536.28
14.33793,503.98,558.45
14.35725,504.54,594.88
14.37763,509.14,633.86
14.39810,512.16,675.27
14.41670,511.54,699.49
14.43927,510.17,712.63
14.45840,512.64,711.14
14.47967,509.76,695.53
14.49856,508.94,677.49
14.51810,508.78,658.39
14.53895,504.22,643.57
14.55881,503.30,627.92
14.57904,504.01,615.02
14.59860,502.59,601.43
14.61842,501.03,593.19
14.63843,499.84,583.40
14.65775,501.96,577.83
14.67835,501.45,574.37
14.69941,501.36,571.77
14.71834,502.79,569.07
14.73999,504.23,563.26
14.76024,504.24,563.45
14.78008,504.14,556.65
14.80013,503.44,556.02
14.81932,504.17,551.98
14.84035,503.44,549.44
14.85929,504.66,549.02
14.88030,504.47,545.23
14.89987,505.29,546.02
14.91973,503.84,546.63
14.94124,503.85,542.74
14.96214,506.25,542.52
14.98156,502.84,544.92
15.00232,504.89,540.68
15.02142,502.37,544.97
15.04106,505.07,545.32
15.06318,503.45,546.93
15.08369,505.59,547.49
15.10279,504.54,545.74
15.12177,504.64,543.28
15.14365,508.43,542.23
15.16223,508.03,544.15
15.18194,506.31,542.49
15.20293,504.90,539.22
15.22363,502.68,542.22
15.24172,502.16,540.00
15.26346,502.06,540.93
15.28346,502.01,541.07
15.30203,503.32,542.45
15.32184,502.63,539.74
15.34164,500.67,541.80
15.36410,505.09,542.28
15.38412,504.77,542.39
15.40384,504.56,541.45
15.42362,504.25,542.42
15.44262,502.30,543.35
15.46463,503.64,543.12
15.48456,506.68,542.34
15.50443,504.51,544.13
15.52384,508.32,542.99
15.54260,507.06,540.15
15.56409,504.92,541.96
15.58444,504.78,540.02
15.60285,506.85,544.41
15.62315,505.25,542.07
15.64304,504.58,542.40
15.66414,504.64,544.49
15.68415,505.32,541.14
15.70387,504.54,542.72
15.72426,504.24,540.56
15.74481,505.75,540.60
15.76417,503.06,542.58
15.78503,502.79,541.71
15.80558,505.93,541.29
15.82549,505.52,540.28
15.84503,506.33,542.88
15.86475,503.71,540.72
15.88447,505.09,541.23
15.90381,504.80,541.53
15.92476,503.50,542.93
15.94560,502.62,541.78
15.96549,504.33,540.69
15.98410,503.31,539.07
16.00418,502.82,541.43
16.02406,505.76,539.47
16.04510,506.05,537.45
16.06539,502.20,539.61
16.08447,504.83,539.08
16.10417,505.27,538.22
16.12561,505.16,539.44
16.14507,503.06,540.92
16.16470,501.67,539.13
16.18422,504.02,542.08
16.20607,505.50,538.16
16.22587,503.03,536.75
16.24650,505.20,537.08
16.26509,501.82,539.45
16.28573,505.01,537.11
16.30592,501.24,536.96
16.32528,504.78,538.27
16.34581,504.21,538.70
16.36644,502.77,539.96
16.38541,503.34,539.54
16.40601,501.75,539.27
16.42583,504.31,539.29
16.44633,502.91,537.37
16.46552,501.27,538.35
16.48644,500.53,536.33
16.50562,503.32,540.31
16.52621,505.68,537.38
16.54526,504.54,540.33
16.56586,503.78,540.47
16.58480,504.76,540.50
16.60516,504.05,540.52
16.62651,503.47,539.71
16.64755,503.33,539.50
16.66656,504.32,539.55
16.68745,505.27,539.51
16.70723,503.93,539.41
16.72675,503.21,540.47
16.74593,506.28,537.35
16.76621,505.76,538.92
16.78614,506.37,538.47
16.80576,505.18,537.05
16.82567,507.53,535.68
16.84753,505.65,534.61
16.86584,503.26,537.75
16.88625,503.19,539.10
16.90599,504.57,542.72
16.92681,504.13,539.45
16.94665,500.43,529.88
16.96583,500.18,513.06
16.98652,496.30,494.92
17.00607,490.82,472.83
17.02615,483.42,456.04
17.04621,483.49,435.46
17.06673,478.08,423.64
17.08686,474.74,413.12
17.10694,475.96,405.10
17.12689,477.80,401.87
17.14690,485.26,404.48
17.16715,487.40,405.06
17.18650,490.10,411.49
17.20793,494.42,421.66
17.22728,498.24,429.54
17.24723,496.26,439.51
17.26703,499.61,450.53
17.28687,498.11,460.19
17.30696,497.66,466.97
17.32766,498.13,475.53
17.34794,501.99,482.18
17.36765,502.40,491.80
17.38672,503.33,497.31
17.40809,504.13,501.81
17.42775,501.15,508.67
17.44720,504.11,512.14
17.46679,504.32,519.17
17.48800,507.62,528.83
17.50716,510.93,532.31
17.52695,513.83,535.83
17.54788,514.49,541.18
17.56788,515.78,544.09
17.58732,516.55,543.06
17.60753,512.89,541.01
17.62722,512.43,542.51
17.64836,513.44,541.41
17.66821,510.97,542.23
17.68789,508.14,544.42
17.70814,504.97,540.76
17.72760,504.19,540.05
17.74727,504.68,540.36
17.76847,504.11,541.16
17.78808,502.63,541.43
17.80849,502.78,541.95
17.82785,502.79,540.30
17.84702,501.17,540.83
17.86690,499.85,542.33
17.88740,502.44,544.45
17.90666,501.87,541.43
17.92850,503.88,541.95
17.94695,499.19,542.14
17.96768,499.83,542.11
17.98816,502.72,546.00
18.00764,503.00,542.50
18.02692,504.75,545.04
18.04747,503.38,544.77
18.06811,504.67,544.19
18.08801,502.96,540.67
18.10707,503.02,539.46
18.12774,504.03,537.65
18.14859,503.27,537.74
18.16745,507.19,548.03
18.18693,504.66,573.00
18.20700,507.60,609.02
18.22773,509.31,644.64
18.24844,508.86,677.67
18.26674,512.15,701.44
18.28674,511.25,711.60
18.30820,513.05,720.53
18.32809,511.48,710.48
18.34695,512.33,696.07
18.36856,508.92,680.43
18.38769,508.91,660.03
18.40775,510.43,645.83
18.42768,511.67,628.20
18.44675,507.91,612.59
18.46729,506.74,603.59
18.48784,505.91,592.74
18.50662,505.72,582.52
18.52762,507.75,576.66
18.54805,504.02,570.73
18.56813,501.69,563.13
18.58839,501.53,557.87
18.60678,500.54,552.12
18.62786,500.58,548.99
18.64853,499.35,545.59
18.66740,500.68,541.93
18.68837,501.19,544.18
18.70771,501.76,543.57
18.72833,500.49,540.37
18.74815,501.27,541.36
18.76845,505.84,542.64
18.78784,506.14,540.06
18.80766,505.22,540.30
18.82690,507.60,542.37
18.84672,504.45,541.56
18.86645,506.94,541.01
18.88865,505.55,541.31
18.90697,506.45,541.59
18.92787,504.00,537.55
18.94930,505.07,540.13
18.96948,503.08,542.71
18.98959,505.06,540.33
19.00764,503.47,540.49
19.02905,506.43,542.33
19.04925,502.85,541.62
19.06954,502.09,543.16
19.08936,505.59,542.73
19.11033,501.81,540.94
19.13035,503.43,540.28
19.14877,504.26,539.77
19.16875,502.13,540.05
19.19020,501.12,537.96
19.20968,503.17,539.35
19.22986,501.04,539.46
19.24930,504.53,538.80
19.27022,504.49,539.11
19.28904,505.54,542.77
19.31045,506.40,543.12
19.32979,506.91,544.17
19.35221,508.00,542.54
19.37231,503.84,542.45
19.39057,504.73,542.38
19.41183,501.77,541.68
19.43124,502.45,540.12
19.45143,502.92,543.75
19.47072,501.47,541.93
19.49165,504.66,543.96
19.51295,503.34,540.78
19.53183,501.93,543.80
19.55201,503.31,541.71
19.57317,503.18,542.63
19.59254,503.32,542.89
19.61275,504.04,541.26
19.63340,501.79,538.25
19.65445,502.92,538.31
19.67279,503.05,538.33
19.69403,502.35,535.96
19.71297,504.50,537.53
19.73287,503.21,540.38
19.75330,501.96,539.30
19.77411,499.39,540.29
19.79361,501.30,542.25
19.81371,503.30,544.35
19.83298,501.62,540.99
19.85318,501.93,543.45
19.87509,501.02,541.00
19.89562,503.06,541.20
19.91587,504.92,544.30
19.93657,504.79,540.15
19.95637,503.77,539.21
19.97457,502.71,539.02
19.99699,503.77,536.32
20.01637,504.52,538.56
20.03641,504.67,538.16
20.05576,506.52,539.10
20.07661,505.43,538.58
20.09577,507.09,539.69
20.11594,506.71,538.18
20.13739,506.33,537.68
20.15646,506.42,541.20
20.17686,506.40,538.07
20.19565,509.25,539.02
20.21612,507.59,538.99
20.23591,507.88,540.25
20.25593,509.48,541.86
20.27661,506.94,540.05
20.29573,507.32,539.67
20.31594,506.45,538.73
20.33680,507.65,539.43
20.35602,506.17,539.54
20.37664,507.88,538.17
20.39572,505.53,537.08
20.41725,507.45,538.03
20.43670,506.50,539.64
20.45585,504.69,540.26
20.47600,504.49,534.60
20.49579,505.90,523.33
20.51632,503.28,504.94
20.53583,505.82,483.69
20.55682,504.29,465.83
20.57627,505.52,445.26
20.59646,504.93,433.13
20.61588,504.02,422.51
20.63580,503.24,414.18
20.65718,502.65,407.90
20.67669,498.93,407.31
20.69551,499.22,406.71
20.71755,498.73,412.46
20.73683,496.71,417.28
20.75594,497.60,424.62
20.77739,499.91,433.09
20.79662,495.68,445.60
20.81568,498.22,454.17
20.83687,497.73,463.53
20.85718,497.59,473.69
20.87558,498.78,481.91
20.89654,500.85,489.42
20.91727,498.77,494.60
20.93755,501.18,499.33
20.95685,500.02,506.54
20.97714,503.82,511.35
20.99691,506.66,517.79
21.01574,505.91,519.10
21.03643,507.70,521.80
21.05651,509.41,527.03
21.07567,508.71,530.07
21.09751,506.41,530.88
21.11716,505.88,533.47
21.13592,505.46,532.61
21.15658,505.49,533.48
21.17695,506.69,536.39
21.19590,503.32,538.31
21.21702,504.76,538.35
21.23724,505.64,539.39
21.25582,506.59,539.17
21.27718,503.61,540.27
21.29731,503.81,540.97
21.31658,505.29,542.75
21.33628,503.35,544.69
21.35563,506.24,543.44
21.37722,504.40,542.22
21.39743,503.24,544.50
21.41712,504.00,543.39
21.43680,502.98,542.36
21.45595,503.15,542.46
21.47565,504.81,539.76
21.49671,502.55,540.46
21.51682,503.48,542.31
21.53587,504.53,563.24
21.55603,505.76,598.54
21.57579,507.41,636.85
21.59692,508.82,677.91
21.61669,507.47,708.38
21.63719,509.43,721.91
21.65630,507.79,729.09
21.67686,506.01,718.02
21.69711,506.89,703.53
21.71600,506.47,684.16
21.73646,506.07,667.82
21.75743,504.24,650.04
21.77647,498.06,634.03
21.79667,497.25,618.70
21.81690,499.89,608.71
21.83641,502.67,600.14
21.85559,502.21,589.73
21.87607,500.27,583.33
21.89616,500.27,574.33
21.91542,500.80,572.59
21.93562,502.25,564.89
21.95648,503.19,557.01
21.97738,505.40,554.28
21.99583,500.91,552.21
22.01670,504.04,549.55
22.03766,501.27,546.88
22.05673,502.12,543.87
22.07651,501.55,542.24
22.09657,502.60,543.38
22.11772,505.11,540.05
22.13676,505.18,539.47
22.15699,503.57,541.74
22.17703,501.64,538.22
22.19829,502.49,538.47
22.21778,501.67,537.86
22.23741,503.99,535.20
22.25759,503.22,538.33
22.27693,506.77,538.71
22.29837,503.48,539.87
22.31811,505.28,540.09
22.33663,503.12,537.35
22.35755,505.50,537.30
22.37736,503.92,536.57
22.39838,500.90,539.78
22.41728,501.10,538.05
22.43717,503.43,539.41
22.45684,501.49,537.99
22.47744,501.84,537.50
22.49859,504.05,538.91
22.51759,504.12,540.28
22.53857,503.28,541.20
22.55775,502.93,539.27
22.57723,504.86,540.61
22.59844,504.34,537.23
22.61702,501.06,537.07
22.63784,501.98,534.96
22.65703,502.94,537.02
22.67800,505.10,537.15
22.69678,502.87,538.73
22.71658,505.59,538.69
22.73807,506.49,538.27
22.75777,504.50,539.65
22.77755,506.01,537.10
22.79813,503.25,538.89
22.81695,503.11,538.19
22.83781,503.94,538.90
22.85678,503.61,540.40
22.87852,498.97,541.79
22.89798,500.95,540.31
22.91708,500.55,541.20
22.93667,501.38,538.44
22.95813,503.92,539.38
22.97734,503.19,541.90
22.99732,504.65,538.35
23.01755,505.27,541.91
23.03710,504.51,538.79
23.05686,503.45,536.77
23.07866,503.59,537.75
23.09778,503.97,540.00
23.11804,504.21,537.13
23.13781,504.17,541.18
23.15706,503.12,540.08
23.17847,502.05,539.51
23.19739,501.95,538.49
23.21797,503.42,540.59
23.23847,501.68,537.52
23.25668,499.88,541.64
23.27643,500.17,539.74
23.29795,502.88,540.14
23.31855,500.20,540.24
23.33832,503.03,537.67
23.35790,501.71,539.44
23.37645,503.99,539.82
23.39844,502.35,535.77
23.41719,502.29,534.94
23.43693,503.32,535.96
23.45820,500.85,535.79
23.47758,500.23,533.56
23.49825,502.67,537.42
23.51756,503.58,534.84
23.53820,503.80,537.09
23.55669,502.24,536.63
23.57743,504.07,538.49
23.59787,499.88,534.15
23.61671,503.60,537.16
23.63663,501.57,537.58
23.65748,504.25,537.09
23.67769,501.35,537.58
23.69753,497.96,535.97
23.71849,501.81,536.35
23.73768,500.48,538.27
23.75875,499.73,539.44
23.77951,501.04,535.43
23.79909,498.17,537.57
23.81958,497.83,535.67
23.83912,498.21,536.33
23.85952,500.70,536.57
23.87948,497.76,534.44
23.89972,500.04,536.68
23.92036,502.62,534.39
23.94000,502.81,537.40
23.96121,499.71,538.67
23.98033,501.54,538.91
24.00112,501.72,540.28
24.01946,503.75,541.69
24.04062,503.93,541.04
24.06126,503.16,540.53
24.08085,503.23,541.74
24.10088,500.31,537.66
24.12124,499.78,526.40
24.14069,499.58,513.39
24.16227,501.04,497.32
24.18341,504.28,484.98
24.20339,504.01,472.18
24.22281,505.28,456.72
24.24187,503.30,445.14
24.26291,499.40,434.07
24.28266,499.42,424.86
24.30271,496.53,418.05
24.32265,497.47,414.31
24.34264,497.34,412.25
24.36299,498.24,417.80
24.38429,498.76,418.97
24.40295,498.78,427.34
24.42346,498.70,432.37
24.44263,498.15,443.01
24.46375,501.70,453.56
24.48349,501.72,463.17
24.50353,499.40,470.28
24.52339,498.93,480.85
24.54306,501.73,486.88
24.56399,501.30,493.55
24.58313,505.82,504.03
24.60454,506.57,511.04
24.62314,506.88,514.82
24.64444,504.35,520.44
24.66303,505.57,523.97
24.68278,504.25,528.55
24.70396,504.46,529.88
24.72256,504.30,534.86
24.74268,502.77,535.57
24.76410,502.53,536.38
24.78370,500.23,540.29
24.80271,500.25,541.05
24.82440,502.34,546.33
24.84278,501.09,546.14
24.86311,498.42,545.57
24.88291,500.51,546.21
24.90399,498.89,544.99
24.92282,498.27,546.13
24.94455,500.80,544.49
24.96366,502.68,547.35
24.98264,501.67,546.71
25.00289,504.36,547.84
25.02411,502.09,545.79
25.04315,503.03,544.42
25.06393,500.68,544.88
25.08409,501.00,546.11
25.10313,503.16,542.74
25.12517,499.62,542.69
25.14393,500.63,542.09
25.16479,501.40,541.58
25.18386,503.74,542.29
25.20510,503.31,550.33
25.22505,503.64,574.71
25.24405,499.90,603.91
25.26468,502.74,642.70
25.28536,500.83,673.37
25.30373,501.40,694.24
25.32494,503.85,712.93
25.34456,505.89,722.30
25.36536,507.18,720.31
25.38516,505.64,704.97
25.40526,508.59,687.53
25.42366,506.76,668.34
25.44417,505.17,646.95
25.46504,504.01,628.31
25.48504,503.37,615.90
25.50648,503.57,600.96
25.52585,501.13,592.81
25.54463,502.96,583.00
25.56564,501.30,576.40
25.58597,502.09,570.31
25.60624,505.08,565.32
25.62500,503.27,563.56
25.64527,503.96,557.40
25.66575,505.22,558.59
25.68630,504.70,553.22
25.70596,505.90,553.10
25.72603,504.16,548.71
25.74651,507.41,546.37
25.76613,504.17,542.99
25.78709,505.07,543.89
25.80654,505.98,543.93
25.82666,506.09,540.89
25.84662,505.48,541.34
25.86657,505.04,542.51
25.88668,506.12,540.77
25.90644,502.69,542.75
25.92731,501.89,542.51
25.94573,503.06,542.25
25.96580,504.34,543.76
25.98573,506.17,540.15
26.00648,502.54,542.77
26.02583,506.89,544.53
26.04684,503.46,541.49
26.06610,505.90,544.02
26.08710,503.08,540.30
26.10734,505.47,540.90
26.12659,505.49,543.79
26.14539,505.60,543.30
26.16544,504.86,540.71
26.18584,505.09,542.45
26.20631,505.45,541.44
26.22675,504.24,544.55
26.24578,503.26,541.92
26.26577,503.93,542.50
26.28577,502.44,541.58
26.30742,504.87,542.46
26.32669,501.74,540.80
26.34643,504.49,538.99
26.36615,501.83,539.73
26.38709,504.70,541.61
26.40612,501.65,542.44
26.42554,502.62,540.68
26.44593,504.42,541.85
26.46732,502.53,539.34
26.48562,502.63,538.78
26.50639,501.21,540.96
26.52614,501.46,537.77
26.54580,501.49,537.98
26.56665,504.09,540.25
26.58702,501.21,540.04
26.60638,500.80,539.38
26.62730,502.86,538.83
26.64646,504.34,539.30
26.66599,506.43,541.44
26.68718,505.38,538.99
26.70587,508.47,538.46
26.72598,506.86,540.23
26.74648,505.74,537.90
26.76702,506.13,539.86
26.78595,504.82,541.10
26.80625,506.01,540.59
26.82710,503.30,542.64
26.84681,502.09,540.98
26.86688,502.36,540.58
26.88708,502.47,543.45
26.90633,500.72,539.04
26.92685,500.12,538.49
26.94622,500.37,540.96
26.96554,499.35,541.08
26.98565,501.97,540.34
27.00709,502.54,541.08
27.02718,503.05,540.42
27.04649,503.32,540.93
27.06669,500.82,540.99
27.08667,501.33,541.71
27.10555,503.07,541.43
27.12626,502.83,541.78
27.14547,501.32,540.90
27.16659,500.35,540.18
27.18741,497.89,540.93
27.20598,499.41,536.82
27.22736,499.77,540.15
27.24680,500.35,539.27
27.26582,502.69,539.04
27.28559,500.25,536.81
27.30607,500.96,536.32
27.32628,500.55,537.44
27.34612,503.62,535.92
27.36611,502.76,534.20
27.38596,505.49,534.37
27.40597,505.65,537.32
27.42690,504.70,540.15
27.44607,507.51,540.47
27.46586,507.67,543.49
27.48570,504.90,537.92
27.50655,503.46,529.34
27.52650,498.94,515.70
27.54693,493.42,495.87
27.56641,491.18,479.37
27.58565,488.97,462.69
27.60547,484.96,452.75
27.62611,482.53,444.53
27.64612,479.10,432.68
27.66805,479.41,424.75
27.68692,477.83,423.88
27.70711,479.50,420.68
27.72670,480.71,420.36
27.74687,482.72,424.21
27.76782,484.68,426.26
27.78709,488.81,431.08
27.80685,492.77,437.48
27.82796,492.60,442.80
27.84702,496.32,450.52
27.86808,498.66,458.58
27.88831,501.02,469.55
27.90823,500.70,475.35
27.92688,500.95,483.12
27.94677,504.87,488.74
27.96698,502.30,497.40
27.98801,501.98,501.27
28.00735,502.06,506.36
28.02781,502.47,513.37
28.04719,505.81,516.23
28.06755,508.62,519.13
28.08809,507.57,524.32
28.10731,509.88,529.60
28.12785,509.66,534.01
28.14641,509.68,534.85
28.16838,506.75,537.07
28.18763,510.55,536.88
28.20714,510.38,538.57
28.22670,509.94,537.08
28.24751,509.80,537.99
28.26698,505.40,537.71
28.28770,505.25,537.62
28.30839,508.87,535.96
28.32700,508.84,539.08
28.34704,506.70,537.78
28.36741,507.33,536.29
28.38647,507.32,536.30
28.40620,505.40,539.06
28.42716,503.60,540.58
28.44846,505.47,538.96
28.46836,505.94,540.82
28.48645,503.62,541.28
28.50704,504.21,539.88
28.52837,501.87,541.56
28.54630,503.25,541.13
28.56737,502.38,540.89
28.58674,502.73,539.03
28.60709,504.77,536.89
28.62781,503.51,538.18
28.64763,503.17,553.71
28.66820,506.44,586.66
28.68786,510.32,625.74
28.70662,515.76,676.33
28.72782,524.31,734.92
28.74839,528.92,786.76
28.76788,531.72,816.21
28.78645,531.07,822.40
28.80637,530.43,813.31
28.82688,528.01,794.70
28.84719,517.58,766.26
28.86754,513.87,729.14
28.88800,508.65,693.54
28.90791,505.40,656.40
28.92698,499.00,624.40
28.94683,491.68,592.04
28.96815,491.80,567.94
28.98761,491.03,547.20
29.00738,490.27,532.43
29.02809,488.53,520.30
29.04732,489.62,510.59
29.06833,489.16,506.60
29.08757,490.44,501.07
29.10835,489.68,500.20
29.12671,488.32,500.96
29.14835,490.49,503.10
29.16780,494.67,505.34
29.18789,496.02,506.80
29.20735,499.77,507.20
29.22713,500.58,513.95
29.24646,500.58,513.04
29.26745,499.15,515.97
29.28805,500.22,517.38
29.30713,503.60,519.56
29.32807,502.11,524.06
29.34680,502.45,521.48
29.36811,504.77,525.15
29.38806,505.60,528.24
29.40850,504.52,528.46
29.42677,501.26,527.53
29.44732,502.25,528.78
29.46736,501.35,532.59
29.48765,503.87,531.35
29.50923,501.30,534.19
29.52896,499.46,531.58
29.54905,499.77,534.99
29.56864,502.00,536.88
29.58870,501.47,535.29
29.60767,501.32,535.95
29.62847,501.74,533.12
29.64801,501.80,535.22
29.66898,502.80,536.74
29.68766,502.36,536.07
29.70818,503.68,535.57
29.72976,501.72,537.54
29.74895,503.01,536.32
29.77026,500.27,537.63
29.78956,501.43,538.62
29.80981,501.01,539.68
29.82844,502.32,537.77
29.84944,502.10,539.48
29.86896,502.33,538.94
29.89043,499.43,539.63
29.90962,501.56,540.62
29.93002,499.88,543.30
29.95001,499.84,541.18
29.97016,500.97,543.09
29.98879,499.18,541.76
30.00885,500.98,542.05
30.02902,499.58,540.07
30.04892,497.66,539.19
30.06963,499.98,541.46
30.08942,497.19,541.29
30.10951,500.45,539.77
30.12836,497.50,539.33
30.14888,499.13,540.32
30.16865,499.35,541.78
30.19027,499.13,541.02
30.20921,498.84,538.78
30.22887,502.00,538.29
30.24985,501.76,540.86
30.26968,498.76,538.33
30.28944,502.18,540.38
30.30999,499.59,538.73
30.32966,501.47,540.00
30.34975,500.90,538.12
30.36951,502.53,539.09
30.38978,500.66,538.83
30.40922,503.59,538.97
30.42955,501.94,541.32
30.44939,500.83,542.04
30.46858,501.45,542.14
30.48908,502.71,535.53
30.50878,503.31,524.91
30.52936,502.37,505.56
30.54952,504.07,486.37
30.56922,497.90,471.58
30.58959,500.54,452.64
30.60975,494.42,437.91
30.62955,493.05,427.31
30.64906,490.59,416.33
30.67027,489.82,409.48
30.68930,491.01,406.36
30.70897,493.43,407.89
30.72859,495.30,410.58
30.74944,495.88,416.96
30.76862,498.56,425.97
30.78991,497.90,435.86
30.80819,503.04,444.09
30.83036,501.34,455.93
30.84930,501.39,463.33
30.87031,504.33,476.02
30.89009,500.93,480.79
30.90947,502.07,487.53
30.92923,503.79,494.65
30.94911,503.82,501.08
30.96848,503.65,506.27
30.98962,504.55,518.38
31.01016,505.11,529.03
31.03007,505.54,535.16
31.04961,504.74,540.03
31.06864,505.27,543.20
31.08833,506.76,546.47
31.10868,506.02,546.74
31.12883,507.08,548.53
31.14865,508.83,545.53
31.16994,507.96,545.13
31.18893,508.73,546.91
31.20912,505.89,544.86
31.23110,506.72,542.34
31.25006,507.90,543.59
31.27060,506.06,541.82
31.29022,503.96,543.37
31.30993,502.13,540.53
31.32984,502.24,542.56
31.35110,501.98,539.63
31.37031,502.88,540.31
31.39024,500.48,541.93
31.41111,504.41,540.07
31.42980,500.59,538.82
31.45108,503.81,536.10
31.47045,504.87,536.33
31.49121,505.43,533.60
31.50958,503.42,534.43
31.53087,506.58,551.03
31.54977,505.65,580.11
31.56945,508.33,622.10
31.58943,510.21,664.34
31.60990,511.95,697.91
31.62965,508.52,713.00
31.65128,508.04,714.90
31.67029,506.96,703.77
31.69127,503.74,687.05
31.70934,504.27,673.72
31.73096,503.86,656.42
31.75060,501.72,641.12
31.76930,500.92,623.57
31.79021,502.74,612.44
31.81058,499.93,600.46
31.83068,503.33,589.78
31.85107,501.90,581.63
31.87074,505.88,577.73
31.88960,504.84,571.62
31.91015,504.03,568.16
31.93080,503.56,562.39
31.95037,504.38,562.01
31.97070,505.11,556.31
31.99004,504.13,554.84
32.00985,504.95,551.36
32.03061,506.45,550.22
32.05023,507.85,549.83
32.06997,504.42,546.65
32.08961,505.07,543.81
32.11024,506.45,543.79
32.13032,504.11,545.35
32.15126,506.79,543.27
32.16945,505.38,543.66
32.19095,505.90,539.65
32.20972,502.73,541.00
32.22981,501.89,539.53
32.25023,501.20,540.24
32.26959,503.82,539.75
32.29090,502.18,543.56
32.31018,502.33,542.98
32.33028,502.65,542.61
32.35119,501.42,541.45
32.36944,505.45,542.08
32.39068,504.68,543.62
32.40937,506.97,545.32
32.42995,502.49,544.75
32.45089,502.82,545.33
32.46984,501.47,543.44
32.48970,502.46,542.52
32.51018,503.22,543.59
32.53115,502.47,544.52
32.55019,505.51,543.58
32.57006,504.07,545.38
32.59067,505.76,541.77
32.60943,503.95,543.32
32.63116,505.96,542.54
32.64946,504.40,542.19
32.67028,502.41,543.89
32.68970,501.76,543.33
32.71039,502.57,544.43
32.73050,504.16,543.51
32.75108,502.01,545.51
32.77053,502.76,542.12
32.79028,503.46,542.50
32.81100,501.02,544.80
32.82944,502.81,545.02
32.85045,502.13,542.92
32.86990,503.31,541.69
32.89112,501.10,542.02
32.91065,500.52,544.90
32.92984,500.68,541.29
32.95062,502.76,538.68
32.97004,504.08,540.91
32.99102,502.03,542.74
33.01093,502.41,541.24
33.03120,503.83,540.79
33.05073,502.18,542.09
33.06953,502.38,539.37
33.09055,503.11,539.79
33.11033,501.32,538.30
33.12982,502.38,542.17
33.15035,501.11,541.80
33.16999,501.85,538.71
33.18964,503.58,538.27
33.20985,501.36,539.99
33.23071,500.38,539.04
33.25012,502.07,541.01
33.27133,502.66,542.01
33.29110,501.07,541.11
33.30938,503.55,540.86
33.33106,501.63,541.13
33.35127,503.30,544.33
33.37049,501.65,542.60
33.39082,497.93,545.16
33.40922,501.62,545.26
33.43062,499.21,546.19
33.45103,504.16,546.66
33.47074,502.64,546.22
33.49020,502.53,543.59
33.51025,502.88,543.63
33.52948,502.62,547.33
33.54995,502.49,545.49
33.57012,505.38,546.89
33.58941,502.31,543.99
33.61028,500.80,543.47
33.63055,502.37,542.35
33.65123,501.92,543.56
33.66943,504.05,544.30
33.69106,502.92,533.05
33.71097,503.49,515.30
33.73070,501.10,488.80
33.74939,496.42,467.72
33.76998,492.71,446.76
33.78999,490.38,431.36
33.81079,488.37,419.83
33.82906,486.14,411.73
33.85120,489.53,408.25
33.86990,489.91,406.93
33.89051,491.83,411.85
33.91054,492.49,418.63
33.92989,494.94,427.12
33.94979,494.66,437.09
33.96993,497.03,448.29
33.99034,497.09,462.26
34.01124,500.99,471.61
34.02913,501.52,481.28
34.05000,500.63,487.92
34.07086,500.40,493.04
34.08961,502.10,498.76
34.11042,504.04,505.08
34.13073,502.19,512.48
34.15023,503.69,516.60
34.17027,503.51,521.99
34.19089,505.44,525.31
34.21074,505.17,525.97
34.23117,508.96,529.30
34.24963,510.60,534.95
34.26991,511.64,539.75
34.29093,510.57,542.62
34.31039,511.13,541.13
34.33026,511.33,540.87
34.35160,511.27,542.45
34.37038,510.56,542.82
34.39034,509.52,541.32
34.41033,509.09,542.67
34.43064,511.36,542.27
34.45069,508.50,542.87
34.47108,507.06,543.64
34.49197,506.25,541.00
34.51187,507.52,541.81
34.53086,508.64,541.69
34.55159,505.85,540.18
34.57121,504.68,541.36
34.59085,503.54,544.03
34.61174,504.66,541.59
34.63108,503.38,538.18
34.65180,503.15,536.43
34.67113,502.36,548.02
34.69164,504.69,569.15
34.71079,506.07,603.87
34.73194,506.75,646.12
34.75205,509.26,678.12
34.77101,506.64,703.18
34.79099,508.12,712.40
34.81172,508.54,712.45
34.83032,507.97,698.64
34.85141,505.09,682.30
34.87108,503.82,666.64
34.89171,503.96,650.02
34.91226,505.96,633.95
34.93173,503.94,617.91
34.95214,503.13,608.12
34.97215,506.07,594.79
34.99232,505.25,596.46
35.01202,505.97,598.65
35.03288,505.21,599.37
35.05195,502.86,595.58
35.07183,504.12,592.03
35.09186,503.64,589.78
35.11293,500.81,584.26
35.13220,501.15,577.92
35.15156,500.25,575.12
35.17348,502.25,567.41
35.19418,501.82,566.38
35.21398,501.18,560.76
35.23287,503.32,558.59
35.25245,503.05,556.61
35.27294,503.89,556.51
35.29250,503.91,553.87
35.31290,500.30,554.74
35.33382,502.24,550.05
35.35367,501.84,551.37
35.37304,502.15,550.51
35.39365,502.01,547.90
35.41316,500.34,548.18
35.43429,501.48,547.41
35.45362,500.56,545.99
35.47253,501.19,545.98
35.49370,501.47,545.33
35.51405,499.52,546.25
35.53493,498.98,542.54
35.55498,500.75,541.73
35.57419,499.02,542.98
35.59374,501.87,542.98
35.61511,501.87,541.79
35.63494,501.90,542.22
35.65450,501.63,540.34
35.67514,501.58,540.49
35.69331,502.65,539.48
35.71436,502.39,543.03
35.73377,501.48,540.41
35.75467,502.20,542.20
35.77400,502.44,540.02
35.79392,502.30,543.76
35.81390,502.19,541.26
35.83388,501.15,543.37
35.85467,501.48,541.19
35.87411,501.79,541.89
35.89460,499.99,543.68
35.91332,499.05,542.83
35.93399,500.53,541.96
35.95457,498.95,543.72
35.97435,500.79,544.08
35.99343,501.60,542.91
36.01440,499.78,543.49
36.03466,503.94,540.84
36.05397,502.42,544.18
36.07365,503.01,543.17
36.09370,501.95,542.66
36.11470,503.61,542.30
36.13404,503.20,539.79
36.15368,504.05,540.28
36.17313,507.13,538.60
36.19350,507.21,536.88
36.21440,505.21,538.54
36.23374,506.61,537.14
36.25400,505.12,536.09
36.27424,506.64,537.28
36.29350,506.30,537.11
36.31349,506.10,537.33
36.33379,505.01,538.14
36.35491,505.41,536.61
36.37494,507.84,537.91
36.39430,506.85,537.57
36.41435,502.79,537.68
36.43391,502.18,539.37
36.45480,506.46,538.78
36.47519,506.24,536.20
36.49385,505.17,538.40
36.51326,506.61,536.62
36.53416,506.02,537.99
36.55432,506.67,540.80
36.57434,506.87,534.56
36.59519,501.75,527.20
36.61388,503.00,516.67
36.63468,500.69,502.58
36.65436,501.11,484.71
36.67388,501.84,469.84
36.69462,498.54,455.10
36.71438,497.42,440.68
36.73455,496.15,434.64
36.75449,494.53,424.95
36.77464,493.82,420.85
36.79414,494.69,415.61
36.81416,492.00,414.56
36.83354,492.24,418.39
36.85361,495.81,420.92
36.87427,494.23,425.87
36.89408,497.28,434.08
36.91489,496.65,442.67
36.93443,499.53,451.90
36.95398,498.78,459.49
36.97349,502.49,469.49
36.99465,504.25,475.65
37.01349,504.04,486.76
37.03496,505.04,492.58
37.05413,502.72,498.17
37.07312,505.85,504.65
37.09467,504.83,509.12
37.11368,505.05,516.61
37.13427,507.23,519.21
37.15363,506.10,520.88
37.17470,505.15,523.64
37.19479,507.83,525.49
37.21461,504.66,527.55
37.23388,505.16,529.40
37.25355,506.25,530.46
37.27363,504.43,530.25
37.29362,503.27,533.19
37.31310,501.28,533.72
37.33329,501.21,534.86
37.35351,501.58,535.64
37.37329,503.19,537.47
37.39455,503.72,535.77
37.41442,503.68,538.40
37.43444,503.63,537.36
37.45431,502.52,536.39
37.47475,499.63,536.72
37.49315,500.01,536.22
37.51383,502.65,538.88
37.53502,500.75,537.35
37.55468,501.47,536.49
37.57421,501.87,542.62
37.59371,501.38,562.85
37.61345,502.14,598.87
37.63444,501.69,641.35
37.65427,500.15,680.19
37.67476,502.29,707.52
37.69452,504.02,728.00
37.71375,507.14,734.66
37.73426,509.11,726.35
37.75450,509.07,710.82
37.77350,508.57,694.57
37.79330,506.33,672.41
37.81492,504.32,656.24
37.83345,506.79,637.32
37.85400,505.96,623.55
37.87456,506.59,610.86
37.89508,506.54,598.74
37.91347,502.99,588.80
37.93509,502.47,579.74
37.95454,503.65,575.52
37.97441,503.56,567.68
37.99369,505.78,563.22
38.01375,504.31,558.28
38.03424,503.11,550.75
38.05323,504.66,548.17
38.07389,504.74,548.27
38.09473,501.54,543.97
38.11380,500.67,546.38
38.13371,501.34,540.90
38.15479,500.83,541.84
38.17359,499.12,541.53
38.19300,499.63,541.81
38.21513,503.31,539.81
38.23476,503.83,538.74
38.25512,501.65,537.04
38.27449,504.30,539.22
38.29365,500.44,540.83
38.31353,502.13,538.48
38.33441,501.44,536.62
38.35455,500.49,537.68
38.37381,499.69,536.00
38.39479,499.26,538.62
38.41460,501.10,536.74
38.43474,497.46,538.12
38.45305,498.14,539.60
38.47391,500.38,537.59
38.49395,500.97,538.26
38.51411,498.59,537.82
38.53425,498.04,537.68
38.55410,501.32,540.35
38.57469,501.85,539.25
38.59519,499.00,537.92
38.61420,499.87,541.58
38.63514,496.98,541.54
38.65465,495.50,541.59
38.67353,498.45,538.66
38.69432,501.02,540.53
38.71466,501.13,538.03
38.73454,499.77,539.19
38.75417,501.96,536.30
38.77349,501.38,536.37
38.79343,498.18,539.02
38.81383,500.62,537.11
38.83324,501.63,539.76
38.85355,500.61,539.02
38.87381,502.41,538.10
38.89321,502.52,539.19
38.91457,501.18,539.20
38.93495,505.17,538.03
38.95449,504.97,540.31
38.97413,502.15,536.02
38.99359,503.68,538.73
39.01347,502.52,539.87
39.03507,499.87,536.53
39.05367,501.25,536.71
39.07374,504.52,533.71
39.09424,503.21,535.33
39.11417,505.40,536.25
39.13347,505.70,535.80
39.15337,503.58,533.35
39.17346,505.77,534.45
39.19359,502.35,536.09
39.21501,504.70,535.26
39.23426,503.16,533.55
39.25415,503.75,535.27
39.27437,501.00,536.71
39.29394,502.14,534.16
39.31347,501.35,537.25
39.33435,501.46,539.19
39.35459,501.66,540.55
39.37378,502.97,539.56
39.39468,502.35,535.70
39.41516,501.00,536.68
39.43355,503.67,538.16
39.45426,501.89,541.68
39.47417,504.39,536.31
39.49463,503.72,524.95
39.51420,502.62,509.34
39.53315,501.14,492.10
39.55311,498.11,473.94
39.57392,496.19,456.25
39.59397,497.88,443.45
39.61397,494.36,432.35
39.63413,496.16,422.12
39.65334,496.52,416.82
39.67388,493.86,412.10
39.69302,493.13,410.26
39.71343,494.29,413.10
39.73492,492.94,416.34
39.75456,492.76,416.60
39.77507,493.43,422.34
39.79455,495.63,430.78
39.81376,492.14,438.75
39.83505,492.61,444.39
39.85500,494.95,453.06
39.87391,498.19,461.38
39.89476,496.50,468.53
39.91330,496.04,475.69
39.93487,497.50,485.58
39.95495,497.68,492.10
39.97409,496.53,499.99
39.99327,495.09,505.11
40.01466,496.81,510.03
40.03340,497.82,513.35
40.05372,496.58,517.48
40.07431,498.99,521.17
40.09611,498.94,522.26
40.11527,498.44,529.60
40.13553,498.23,536.24
40.15556,501.64,540.48
40.17481,506.02,545.04
40.19508,504.41,548.20
40.21560,506.13,552.19
40.23697,506.06,550.01
40.25673,506.84,551.92
40.27614,508.22,553.15
40.29619,505.40,553.00
40.31549,504.76,552.61
40.33706,505.80,550.12
40.35530,505.45,549.85
40.37697,509.17,550.48
40.39563,507.86,550.18
40.41521,508.06,548.58
40.43679,509.26,547.44
40.45623,507.15,544.96
40.47651,506.92,543.11
40.49514,507.85,544.89
40.51666,507.27,543.68
40.53677,506.24,542.52
40.55625,506.57,549.35
40.57650,505.33,572.16
40.59646,505.99,607.78
40.61521,508.05,653.00
40.63542,507.14,690.00
40.65642,507.92,714.96
40.67694,504.49,724.96
40.69610,505.06,725.01
40.71705,505.08,712.21
40.73579,504.70,696.86
40.75664,503.88,674.42
40.77684,501.51,658.61
40.79653,500.08,639.84
40.81532,501.99,619.83
40.83563,500.26,607.64
40.85564,498.21,596.77
40.87559,501.32,585.85
40.89513,500.69,578.58
40.91642,501.82,571.45
40.93504,502.07,568.39
40.95589,500.65,562.20
40.97585,501.94,558.05
40.99513,503.20,555.07
41.01691,499.44,549.35
41.03525,501.08,548.79
41.05570,501.24,548.50
41.07610,500.44,546.36
41.09680,502.62,545.79
41.11569,498.50,545.54
41.13612,499.13,542.85
41.15563,499.88,542.28
41.17625,498.84,541.99
41.19527,503.37,544.52
41.21615,505.19,548.00
41.23619,509.61,546.77
41.25672,508.78,545.97
41.27641,508.56,548.48
41.29616,508.96,549.53
41.31707,508.27,548.59
41.33595,508.99,546.79
41.35611,508.95,547.29
41.37659,510.96,545.09
41.39678,510.74,548.26
41.41690,510.14,544.23
41.43564,509.24,546.28
41.45676,510.58,544.21
41.47665,511.25,542.69
41.49633,506.51,541.75
41.51671,507.32,540.66
41.53707,507.02,538.76
41.55650,505.39,540.99
41.57601,507.89,542.58
41.59542,504.81,543.35
41.61590,503.20,544.02
41.63708,505.53,542.39
41.65517,503.73,544.14
41.67557,504.52,540.75
41.69586,504.41,541.31
41.71708,502.14,541.15
41.73548,502.59,541.07
41.75618,502.84,540.52
41.77575,503.97,540.82
41.79694,502.91,540.63
41.81623,502.86,541.81
41.83709,503.04,542.39
41.85709,501.30,541.57
41.87650,501.25,539.85
41.89534,505.08,541.60
41.91601,504.98,539.86
41.93527,502.36,537.97
41.95700,503.40,540.37
41.97556,502.91,538.74
41.99596,504.10,539.69
42.01611,503.56,539.40
42.03662,504.18,539.89
42.05535,502.04,539.51
42.07576,504.36,540.44
42.09547,502.50,537.00
42.11558,500.99,539.53
42.13621,504.24,539.00
42.15560,505.39,540.85
42.17636,502.89,541.73
42.19564,503.67,538.57
42.21744,502.61,530.49
42.23728,500.89,523.65
42.25742,504.03,521.27
42.27630,501.11,518.41
42.29735,503.67,521.11
42.31623,501.57,523.23
42.33739,501.79,524.82
42.35599,500.68,523.02
42.37610,503.52,524.35
42.39785,502.74,527.56
42.41797,500.89,527.61
42.43799,502.46,527.20
42.45768,505.28,530.09
42.47679,504.39,531.94
42.49621,503.87,533.24
42.51680,504.28,535.34
42.53755,503.93,532.88
42.55647,502.54,525.86
42.57800,500.84,516.45
42.59774,501.28,499.25
42.61701,501.12,486.37
42.63680,499.34,473.14
42.65739,497.22,459.75
42.67652,491.20,451.40
42.69623,492.43,442.13
42.71689,488.51,435.19
42.73641,490.42,429.27
42.75786,490.30,427.75
42.77758,489.88,426.55
42.79635,495.14,428.47
42.81708,493.55,430.17
42.83786,496.58,435.20
42.85757,498.48,440.88
42.87723,500.70,447.71
42.89725,503.67,454.30
42.91746,506.12,463.10
42.93793,508.17,471.95
42.95727,509.62,479.88
42.97760,507.16,486.34
42.99810,506.29,490.58
43.01707,506.00,499.15
43.03819,507.28,502.28
43.05852,507.59,507.42
43.07716,510.23,512.30
43.09865,506.69,517.29
43.11853,507.85,518.44
43.13869,508.12,520.40
43.15887,510.05,522.62
43.17768,511.37,524.12
43.19871,511.39,525.86
43.21781,507.12,528.43
43.23798,506.79,530.27
43.25854,506.87,528.78
43.27831,507.69,529.92
43.29975,506.44,533.77
43.31957,502.08,532.96
43.33804,504.75,532.98
43.35859,502.12,532.46
43.37871,503.61,536.69
43.39856,503.87,544.95
43.41905,505.93,547.90
43.43903,508.49,553.25
43.45899,506.13,554.12
43.47912,506.89,552.12
43.49871,506.46,553.87
43.51951,505.87,551.39
43.53820,505.01,550.17
43.55948,505.96,549.67
43.57819,505.21,548.23
43.59863,504.71,547.08
43.61886,504.65,545.90
43.63962,505.64,545.96
43.65791,503.31,542.52
43.67831,500.93,539.43
43.69848,503.38,535.50
43.71834,502.65,534.00
43.73838,502.30,533.13
43.75882,501.45,537.94
43.78339,501.67,560.23
43.79897,501.66,593.24
43.81812,502.66,629.84
43.83858,505.77,663.18
43.85866,506.80,690.78
43.87856,505.84,701.96
43.89848,506.73,701.36
43.91867,510.21,690.41
43.93859,508.04,676.22
43.95979,508.23,661.21
43.97961,507.09,641.22
43.99824,506.66,627.54
44.01890,506.37,617.43
44.03871,505.83,604.39
44.05939,503.08,596.35
44.07926,504.34,588.62
44.09990,505.00,580.07
44.11924,501.87,572.23
44.13925,501.83,567.15
44.15955,503.04,559.17
44.17977,502.01,555.40
44.19788,500.11,554.68
44.21916,502.43,548.72
44.23893,501.85,547.05
44.25935,501.21,543.99
44.27824,501.34,545.39
44.29880,502.10,542.07
44.31848,504.64,541.83
44.33949,502.84,538.12
44.35946,504.41,538.99
44.37910,507.05,538.35
44.39843,504.29,537.18
44.41937,505.09,539.61
44.43913,502.51,538.15
44.45898,502.54,538.81
44.47978,504.64,539.97
44.49860,503.80,537.76
44.51830,504.39,539.01
44.53859,503.89,536.09
44.55958,503.18,535.47
44.57997,505.34,534.61
44.59997,502.18,533.51
44.61872,502.91,536.79
44.63889,502.94,536.26
44.65970,502.16,535.78
44.67984,505.01,536.42
44.69985,501.49,536.82
44.71844,502.24,536.87
44.73939,502.07,536.25
44.75920,500.38,538.09
44.77887,498.61,536.20
44.80010,501.48,535.60
44.81990,502.42,537.85
44.83817,498.30,538.43
44.85976,500.76,536.68
44.87953,498.69,538.59
44.90072,500.39,536.40
44.91920,501.66,536.66
44.94024,499.99,534.31
44.95979,498.99,530.91
44.97968,499.07,531.48
44.99929,501.53,531.37
45.01928,501.16,531.66
45.04051,502.76,533.68
45.06030,501.47,530.40
45.08035,499.49,532.67
45.10062,503.41,531.49
45.11974,499.98,532.96
45.13929,503.62,533.98
45.16109,503.69,531.66
45.17983,502.51,531.13
45.20014,503.67,532.35
45.22110,502.25,533.63
45.24167,501.80,531.20
45.26140,498.40,530.62
45.28074,498.72,529.61
45.30011,499.86,530.03
45.32156,499.51,528.96
45.34060,496.64,529.42
45.36125,497.91,532.13
45.38146,500.43,533.06
45.40094,501.79,532.66
45.42092,501.68,532.22
45.44064,502.30,531.54
45.46185,501.70,532.20
45.48148,503.75,531.41
45.50246,502.82,531.69
45.52114,502.86,535.11
45.54100,504.04,530.21
45.56186,505.61,527.90
45.58170,504.04,517.82
45.60113,501.40,504.72
45.62185,500.46,493.94
45.64202,502.67,482.30
45.66143,500.95,467.48
45.68169,497.66,454.07
45.70184,496.71,445.43
45.72197,497.94,435.61
45.74124,493.94,431.11
45.76289,497.41,425.22
45.78175,495.67,425.10
45.80205,493.77,426.20
45.82118,494.28,432.60
45.84200,495.00,434.65
45.86210,495.45,441.59
45.88150,497.49,448.02
45.90250,497.95,458.18
45.92286,495.48,461.65
45.94235,496.12,472.67
45.96183,496.54,477.16
45.98190,497.71,486.82
46.00225,502.10,490.51
46.02222,500.29,497.27
46.04292,500.27,503.60
46.06209,501.47,505.87
46.08144,503.75,509.94
46.10162,503.94,514.33
46.12213,502.42,514.91
46.14181,502.87,520.57
46.16202,504.53,520.96
46.18287,504.94,523.89
46.20199,506.03,525.84
46.22229,505.37,528.67
46.24140,505.93,530.63
46.26282,504.97,527.80
46.28216,503.71,530.52
46.30184,503.34,527.85
46.32267,503.07,531.85
46.34125,505.78,528.60
46.36391,503.72,531.93
46.38235,501.07,531.97
46.40342,500.57,530.87
46.42269,502.90,532.83
46.44280,501.62,531.49
46.46258,503.07,532.89
46.48393,501.56,535.30
46.50325,499.19,533.59
46.52197,497.06,534.27
46.54236,494.37,533.89
46.56354,495.33,535.21
46.58354,496.28,536.40
46.60337,496.19,533.14
46.62358,496.98,535.39
46.64343,498.08,536.38
46.66340,496.36,533.78
46.68271,496.64,533.52
46.70343,498.05,534.00
46.72344,498.48,539.64
46.74351,501.82,561.05
46.76235,503.10,594.26
46.78378,502.99,631.35
46.80360,501.82,663.78
46.82243,502.56,684.11
46.84231,499.35,684.40
46.86291,501.76,675.75
46.88198,499.58,661.76
46.90313,499.72,645.82
46.92273,501.92,633.49
46.94368,498.89,620.87
46.96227,500.01,605.90
46.98352,501.03,595.32
47.00477,502.50,585.18
47.02462,499.14,575.71
47.04462,501.35,567.95
47.06338,498.90,560.88
47.08476,500.51,558.71
47.10465,500.90,552.38
47.12336,495.11,541.77
47.14295,491.85,525.37
47.16507,488.10,520.45
47.18389,488.32,520.55
47.20498,489.57,523.95
47.22300,490.84,534.09
47.24428,494.33,562.45
47.26320,500.07,601.33
47.28322,503.07,627.89
47.30370,506.15,634.48
47.32282,502.47,628.12
47.34426,502.04,610.19
47.36362,502.07,587.43
47.38518,501.63,566.07
47.40379,500.38,546.90
47.42379,497.82,532.39
47.44374,497.34,525.34
47.46391,495.72,535.49
47.48354,502.06,564.71
47.50469,510.19,600.28
47.52435,519.09,635.56
47.54364,522.65,657.83
47.56397,528.56,665.13
47.58456,530.07,650.12
47.60399,530.89,626.81
47.62445,523.74,597.47
47.64429,520.18,568.15
47.66371,512.80,541.46
47.68305,513.15,521.00
47.70483,508.65,505.77
47.72470,506.53,497.12
47.74324,505.57,492.81
47.76393,508.93,496.94
47.78288,509.75,520.62
47.80413,508.49,551.37
47.82402,509.20,581.56
47.84367,509.12,585.18
47.86412,506.35,573.79
47.88307,500.73,551.31
47.90420,499.72,527.52
47.92468,493.50,509.28
47.94358,493.96,497.54
47.96335,491.33,485.23
47.98482,490.17,483.52
48.00452,494.04,493.25
48.02343,496.99,527.33
48.04386,496.64,567.09
48.06362,498.65,589.02
48.08301,500.37,589.69
48.10344,500.37,575.25
48.12338,500.58,557.14
48.14469,495.64,535.15
48.16453,496.04,520.44
48.18453,495.81,514.51
48.20450,497.22,518.73
48.22413,499.25,541.61
48.24486,498.13,568.97
48.26476,499.23,575.34
48.28348,498.86,569.07
48.30332,502.08,548.07
48.32413,499.97,529.79
48.34393,497.86,512.90
48.36376,495.56,497.53
48.38477,497.60,484.19
48.40313,497.24,481.23
48.42367,496.66,469.93
48.44411,498.05,465.31
48.46336,495.72,465.01
48.48389,494.62,464.48
48.50457,495.14,468.97
48.52312,497.00,472.75
48.54468,498.66,474.53
48.56419,501.01,477.25
48.58420,499.66,487.20
48.60438,503.92,498.06
48.62320,502.04,507.76
48.64300,503.93,506.09
48.66483,503.08,518.37
48.68308,503.27,527.92
48.70494,504.17,536.47
48.72383,507.04,539.79
48.74404,507.13,543.29
48.76476,505.95,546.74
48.78285,505.51,551.38
48.80315,506.46,553.72
48.82294,503.04,556.72
48.84297,501.52,557.69
48.86374,501.73,556.13
48.88373,502.69,544.47
48.90444,502.13,552.73
48.92431,505.13,559.04
48.94357,504.78,563.60
48.96401,504.42,561.96
48.98386,506.76,563.84
49.00401,511.66,559.87
49.02477,506.77,550.44
49.04331,510.17,550.91
49.06363,508.46,541.73
49.08468,507.52,539.58
49.10472,503.49,530.57
49.12285,506.08,533.26
49.14310,506.87,529.83
49.16402,503.68,524.87
49.18471,503.07,526.50
49.20363,504.74,531.28
49.22345,509.38,523.83
49.24338,509.60,528.72
49.26469,508.07,530.06
49.28489,511.98,534.37
49.30314,518.20,540.61
49.32379,516.84,549.22
49.34457,519.69,553.34
49.36311,518.41,554.41
49.38359,519.55,552.95
49.40464,517.85,554.67
49.42309,518.31,555.56
49.44358,519.95,558.26
49.46355,517.09,555.35
49.48391,515.56,557.11
49.50387,510.71,560.60
49.52438,508.27,548.77
49.54400,504.75,548.21
49.56427,504.57,546.55
49.58487,506.40,553.63
49.60465,506.98,552.07
49.62312,506.62,554.72
49.64314,505.35,552.32
49.66328,506.00,547.43
49.68358,504.42,547.14
49.70380,505.70,545.42
49.72484,508.14,542.71
49.74323,506.73,541.44
49.76342,507.91,539.24
49.78362,507.03,540.68
49.80282,506.44,534.25
49.82403,503.39,536.25
49.84402,505.29,532.22
49.86457,506.32,537.04
49.88410,506.46,545.33
49.90579,505.15,539.59
49.92504,507.01,541.75
49.94448,508.61,544.94
49.96622,513.19,547.37
49.98638,517.26,544.33
50.00549,516.85,550.67
50.02550,520.77,557.90
50.04590,519.95,557.59
50.06481,514.56,556.60
50.08527,514.76,550.00
50.10511,516.42,547.24
50.12569,513.67,544.88
50.14566,511.74,546.01
50.16652,511.40,544.30
50.18680,507.84,538.32
50.20516,505.17,529.26
50.22530,501.56,532.02
50.24568,504.37,519.49
50.26513,508.36,510.21
50.28553,511.02,507.25
50.30586,512.54,508.49
50.32598,511.63,505.23
50.34623,513.67,506.38
50.36593,510.58,510.79
50.38543,511.67,512.67
50.40575,508.41,515.89
50.42545,511.51,517.72
50.44625,510.13,517.81
50.46652,505.88,521.79
50.48615,508.86,524.01
50.50630,509.68,524.54
50.52736,507.70,527.90
50.54781,510.69,528.26
50.56857,505.42,530.66
50.58770,504.97,541.62
50.60767,497.42,544.12
50.62826,493.25,546.17
50.64774,492.94,544.19
50.66697,486.86,547.69
50.68786,486.47,549.60
50.70678,485.60,547.77
50.72816,480.81,541.30
50.74747,482.26,541.28
50.76811,488.89,538.56
50.78735,490.22,536.84
50.80750,494.65,540.53
50.82787,495.65,539.50
50.84755,495.06,538.86
50.86825,499.14,541.98
50.88831,499.11,541.97
50.90823,503.26,541.38
50.92842,503.00,539.17
50.94703,505.07,536.71
50.96814,503.10,536.59
50.98693,506.91,544.08
51.00806,513.28,555.90
51.02803,518.27,562.70
51.04734,518.93,557.80
51.06754,521.54,562.61
51.08851,520.23,560.32
51.10731,518.54,557.88
51.12877,521.31,555.32
51.14849,521.73,550.75
51.16834,519.20,552.18
51.18851,514.18,551.05
51.20718,506.47,547.99
51.22749,496.16,535.57
51.24689,489.62,520.64
51.26866,480.93,516.44
51.28865,482.57,511.95
51.30840,485.83,509.31
51.32707,478.61,504.35
51.34774,472.16,509.94
51.36710,474.30,510.09
51.38836,471.75,505.30
51.40781,480.65,505.12
51.42871,483.92,499.67
51.44880,491.21,506.85
51.46972,493.66,510.43
51.48798,501.47,511.41
51.50941,497.71,516.61
51.52810,498.54,517.27
51.54928,503.51,525.50
51.56935,499.04,526.26
51.58968,502.00,530.93
51.60837,503.33,536.65
51.62763,503.26,535.00
51.64823,504.63,536.12
51.66823,505.61,538.31
51.68974,506.08,539.60
51.70793,498.62,543.72
51.72945,495.81,552.88
51.74975,493.04,551.92
51.76804,494.54,550.36
51.78968,495.57,553.15
51.80923,493.20,552.55
51.82919,494.58,551.20
51.84910,493.07,547.44
51.86872,491.02,544.64
51.88914,497.01,546.68
51.91009,496.99,543.75
51.92896,496.45,537.78
51.94898,495.64,538.49
51.96940,498.99,540.37
51.98930,499.90,536.15
52.00907,498.46,537.99
52.02944,503.32,535.88
52.05044,503.38,524.89
52.07021,505.49,509.83
52.08943,504.67,502.63
52.10926,503.88,499.88
52.12937,499.90,496.16
52.14902,499.07,494.32
52.16947,500.29,495.04
52.18954,501.84,500.36
52.20960,501.43,503.62
52.22922,500.14,505.43
52.24926,499.96,508.88
52.26989,502.06,506.21
52.28973,500.60,508.83
52.30947,498.51,513.45
52.33074,499.47,517.29
52.35268,499.98,514.36
52.37214,498.21,517.55
52.39183,499.63,533.54
52.41183,502.93,552.71
52.43279,504.50,567.96
52.45276,505.57,569.59
52.47063,505.34,570.09
52.49153,505.98,568.75
52.51249,506.74,567.13
52.53192,505.02,561.38
52.55255,506.74,555.56
52.57090,506.11,553.36
52.59191,502.82,549.27
52.61079,504.28,545.96
52.63228,505.36,541.22
52.65139,505.45,537.53
52.67150,505.77,535.40
52.69231,505.74,529.59
52.71098,506.49,530.11
52.73148,503.43,525.07
52.75088,504.55,526.91
52.77233,504.70,525.75
52.79212,506.86,525.82
52.81104,504.79,526.04
52.83242,505.12,527.27
52.85120,502.10,527.84
52.87234,501.43,525.23
52.89143,501.62,526.21
52.91153,500.53,527.73
52.93188,502.69,527.02
52.95133,507.32,534.81
52.97123,514.57,541.54
52.99179,518.93,545.67
53.01217,522.57,547.97
53.03132,527.76,547.12
53.05117,525.02,547.67
53.07231,524.23,545.86
53.09223,521.15,544.68
53.11143,521.07,544.40
53.13234,518.68,539.85
53.15091,514.09,539.78
53.17235,514.35,539.52
53.19094,513.12,538.38
53.21132,510.71,537.08
53.23221,509.97,533.12
53.25269,508.91,535.70
53.27120,509.08,539.38
53.29171,509.06,540.17
53.31203,505.39,538.48
53.33219,508.37,540.41
53.35173,505.24,540.46
53.37194,506.97,534.98
53.39135,507.06,532.17
53.41378,512.39,532.58
53.43211,516.28,534.05
53.45184,519.67,536.47
53.47265,516.56,536.89
53.49225,515.65,541.39
53.51305,515.11,548.50
53.53386,512.05,551.87
53.55220,512.57,542.19
53.57284,507.46,523.61
53.59221,499.06,502.31
53.61305,495.82,483.48
53.63280,492.56,477.56
53.65312,489.27,471.40
53.67371,489.53,471.60
53.69360,489.39,473.44
53.71316,489.63,474.75
53.73313,491.40,478.25
53.75218,488.85,479.54
53.77345,486.73,482.39
53.79280,486.62,485.62
53.81250,489.12,489.19
53.83196,492.56,488.40
53.85320,495.39,493.61
53.87219,494.85,495.08
53.89314,493.14,499.90
53.91364,497.36,503.37
53.93208,499.98,503.64
53.95277,497.67,506.57
53.97327,499.36,510.77
53.99344,500.75,511.91
54.01297,502.29,514.91
54.03328,500.33,516.11
54.05312,496.93,521.81
54.07337,496.32,520.37
54.09284,496.31,525.92
54.11379,496.78,530.61
54.13203,491.74,533.29
54.15188,495.26,528.27
54.17319,496.94,538.68
54.19297,493.81,551.64
54.21316,489.29,563.48
54.23193,485.58,576.29
54.25360,485.79,580.75
54.27342,488.23,582.36
54.29194,486.23,584.38
54.31322,488.02,580.14
54.33361,489.40,579.44
54.35259,491.93,580.44
54.37312,491.24,577.61
54.39246,496.77,574.96
54.41254,499.54,572.31
54.43368,498.99,572.61
54.45306,499.77,573.18
54.47174,498.05,568.93
54.49278,499.63,563.00
