Program Time [s],data 0,data 1
24.42951,434.13,459.51
24.44938,435.36,462.11
24.47058,434.71,463.54
24.49038,435.55,465.42
24.51125,436.22,465.99
24.53213,434.27,465.09
24.55172,434.40,465.57
24.57114,435.88,467.54
24.59184,433.63,469.92
24.61052,437.13,466.19
24.63119,434.45,468.34
24.65171,435.81,469.93
24.67076,433.29,471.81
24.69183,434.68,471.78
24.71139,433.00,475.04
24.73165,434.04,476.02
24.75114,439.96,496.80
24.77085,445.27,534.71
24.79168,450.72,573.37
24.81056,452.99,599.39
24.83205,450.98,607.57
24.85070,449.78,602.15
24.87107,441.89,583.46
24.89031,438.13,565.68
24.91027,433.75,542.78
24.93113,428.91,519.81
24.95088,429.38,501.58
24.97064,428.28,487.11
24.99126,426.17,473.74
25.01145,427.62,462.98
25.03153,430.96,459.57
25.05083,430.15,454.35
25.07086,431.93,452.42
25.09176,433.91,453.21
25.11147,432.88,452.98
25.13051,430.50,457.86
25.15211,431.47,458.81
25.17224,431.65,461.12
25.19210,432.33,461.67
25.21194,432.10,460.35
25.23329,437.40,464.16
25.25204,438.45,462.79
25.27232,439.04,465.39
25.29281,437.98,468.51
25.31430,439.94,470.67
25.33362,443.04,471.48
25.35302,440.65,470.41
25.37412,442.90,470.87
25.39373,441.01,472.40
25.41315,438.14,469.87
25.43393,440.33,472.17
25.45360,440.80,470.75
25.47386,441.50,471.35
25.49365,440.45,470.89
25.51412,438.19,467.92
25.53402,438.58,471.05
25.55289,441.43,471.45
25.57375,441.16,472.70
25.59403,439.04,472.08
25.61353,439.50,475.16
25.63253,440.09,476.80
25.65276,442.23,478.85
25.67243,441.99,478.98
25.69296,442.29,480.93
25.71349,443.79,480.64
25.73346,441.65,480.31
25.75386,438.70,479.32
25.77233,441.69,480.44
25.79266,442.44,479.62
25.81380,440.71,478.89
25.83285,439.51,477.20
25.85256,440.63,473.19
25.87383,439.70,473.00
25.89415,439.33,472.79
25.91351,437.07,473.78
25.93272,437.08,472.75
25.95399,439.32,473.51
25.97312,436.54,476.80
25.99375,439.16,476.72
26.01391,438.17,480.14
26.03257,438.74,480.16
26.05236,441.60,478.06
26.07449,440.59,479.25
26.09301,439.14,481.93
26.11321,440.37,484.27
26.13422,439.71,484.15
26.15294,438.09,482.91
26.17266,438.48,479.26
26.19370,440.11,482.66
26.21304,441.50,478.91
26.23393,441.95,478.17
26.25355,437.98,479.77
26.27268,438.66,477.80
26.29379,440.89,479.07
26.31349,437.24,477.20
26.33419,434.91,468.76
26.35283,429.71,454.07
26.37282,423.17,433.61
26.39381,421.50,415.50
26.41342,419.21,396.79
26.43412,417.51,384.51
26.45320,419.04,373.30
26.47290,422.69,367.27
26.49330,424.30,362.82
26.51314,427.57,365.34
26.53434,431.61,367.58
26.55267,430.74,370.87
26.57266,436.25,378.51
26.59295,434.44,389.19
26.61241,438.71,394.08
26.63436,438.03,403.99
26.65329,440.94,413.13
26.67278,439.74,419.46
26.69407,441.65,427.61
26.71316,439.81,436.83
26.73244,440.24,440.13
26.75303,440.16,446.85
26.77365,441.08,453.34
26.79325,439.77,457.37
26.81398,441.94,459.83
26.83409,439.48,464.32
26.85287,439.39,465.69
26.87258,440.63,468.01
26.89335,441.60,466.88
26.91360,441.89,471.01
26.93303,441.48,472.50
26.95382,444.42,469.88
26.97255,443.14,470.83
26.99353,442.54,472.21
27.01397,441.41,472.91
27.03309,443.77,473.82
27.05273,440.20,476.70
27.07268,442.92,475.99
27.09410,443.23,476.56
27.11329,442.89,473.69
27.13340,440.98,476.99
27.15411,443.12,477.95
27.17359,442.61,475.89
27.19288,444.54,477.98
27.21383,443.03,478.12
27.23391,443.12,490.43
27.25362,441.29,519.53
27.27291,443.34,553.80
27.29291,448.45,586.94
27.31361,451.05,614.91
27.33380,452.43,625.68
27.35234,456.15,624.57
27.37389,453.32,615.57
27.39275,455.87,603.59
27.41239,452.25,589.88
27.43302,450.21,573.61
27.45384,452.99,560.97
27.47304,451.34,552.08
27.49373,451.50,542.51
27.51293,453.50,532.35
27.53365,451.24,528.09
27.55447,451.47,526.42
27.57426,452.71,529.93
27.59393,455.32,530.85
27.61255,454.27,528.59
27.63288,453.24,527.12
27.65389,455.78,520.18
27.67330,451.84,518.62
27.69424,452.35,513.53
27.71351,452.02,512.80
27.73413,449.49,507.95
27.75387,450.31,504.70
27.77355,450.46,501.89
27.79430,447.95,499.33
27.81362,448.67,500.51
27.83423,447.56,496.50
27.85343,445.37,494.23
27.87297,445.89,490.35
27.89321,443.69,491.20
27.91268,445.76,488.94
27.93316,445.09,484.30
27.95394,443.20,484.17
27.97350,444.40,486.73
27.99427,446.74,485.01
28.01425,444.83,485.03
28.03346,445.75,482.12
28.05294,445.26,484.77
28.07280,445.09,483.78
28.09377,444.69,481.21
28.11307,445.43,483.42
28.13430,447.81,481.29
28.15354,446.29,482.67
28.17401,446.38,484.77
28.19392,444.08,483.32
28.21375,446.48,484.72
28.23375,441.82,482.16
28.25420,446.36,485.06
28.27355,444.28,482.05
28.29266,445.35,483.03
28.31327,445.55,482.46
28.33378,444.86,483.52
28.35271,442.74,484.18
28.37366,444.10,480.89
28.39321,444.30,481.77
28.41249,443.75,482.70
28.43491,443.44,483.05
28.45356,441.17,484.81
28.47447,444.64,482.25
28.49407,442.19,484.36
28.51471,443.45,483.19
28.53356,446.94,485.55
28.55470,445.17,483.61
28.57617,446.20,486.04
28.59446,446.40,485.59
28.61443,447.43,483.43
28.63571,449.70,485.46
28.65538,450.26,482.22
28.67603,445.66,483.33
28.69492,444.85,482.31
28.71438,442.87,485.79
28.73481,443.40,484.66
28.75516,443.68,485.94
28.77544,443.21,483.20
28.79474,446.45,474.56
28.81543,444.41,454.58
28.83595,442.22,435.53
28.85702,442.70,418.78
28.87637,441.44,400.36
28.89727,439.75,387.49
28.91532,438.32,376.61
28.93703,434.77,367.44
28.95665,435.29,365.11
28.97540,435.12,364.73
28.99675,434.86,366.49
29.01577,437.14,372.40
29.03534,437.79,382.39
29.05608,439.84,389.83
29.07689,441.68,402.06
29.09689,440.63,412.86
29.11750,443.28,418.22
29.13724,442.49,428.27
29.15682,440.59,437.56
29.17730,444.99,443.36
29.19814,444.63,447.76
29.21783,443.77,455.80
29.23913,445.17,457.81
29.25873,442.64,459.80
29.27853,442.65,463.22
29.29887,442.20,467.95
29.31948,440.63,469.96
29.33830,440.75,472.28
29.35991,441.93,474.53
29.37996,442.89,476.26
29.39923,442.43,480.51
29.41880,439.39,483.05
29.44017,439.17,483.42
29.45901,438.31,482.80
29.47882,439.04,486.13
29.49910,442.62,488.25
29.51871,442.03,487.74
29.54018,440.40,488.52
29.55829,443.38,491.33
29.57872,441.15,491.54
29.59887,439.78,489.92
29.62053,442.38,488.64
29.64085,438.23,495.72
29.66107,440.58,509.95
29.68091,442.52,535.04
29.70199,440.89,561.91
29.72249,443.00,588.69
29.74299,443.90,615.67
29.76174,446.20,634.21
29.78194,449.79,639.08
29.80310,450.20,639.04
29.82270,448.48,630.70
29.84227,449.52,617.40
29.86231,448.32,603.90
29.88277,447.84,587.42
29.90149,446.13,576.10
29.92232,445.24,562.37
29.94276,441.45,551.12
29.96215,439.92,542.09
29.98306,438.67,535.74
30.00232,438.04,528.70
30.02249,440.63,521.78
30.04240,438.07,515.81
30.06182,437.36,511.54
30.08287,439.19,508.31
30.10265,437.02,507.03
30.12212,438.86,501.40
30.14293,438.93,501.55
30.16238,434.10,499.44
30.18187,435.05,499.41
30.20111,435.67,494.43
30.22319,437.74,491.93
30.24196,434.94,491.46
30.26284,439.12,492.81
30.28205,436.42,491.45
30.30212,436.05,490.47
30.32332,434.91,488.74
30.34289,435.52,490.50
30.36299,431.82,489.86
30.38336,432.47,486.75
30.40356,432.50,489.49
30.42301,432.20,486.42
30.44266,430.37,485.69
30.46389,431.85,488.83
30.48360,433.66,484.72
30.50408,434.33,486.46
30.52398,432.71,487.08
30.54495,430.74,486.34
30.56522,431.77,484.83
30.58336,432.30,482.86
30.60437,431.42,484.19
30.62462,433.38,484.47
30.64440,431.33,484.43
30.66396,432.57,483.62
30.68409,432.14,484.83
30.70519,427.48,483.50
30.72455,430.65,485.02
30.74366,429.97,483.84
30.76359,428.30,483.14
30.78486,429.33,485.47
30.80504,430.04,483.38
30.82405,429.43,483.34
30.84454,427.05,483.69
30.86375,428.19,482.06
30.88416,428.02,480.76
30.90511,430.60,481.58
30.92411,428.52,484.33
30.94451,426.93,482.20
30.96458,427.99,482.30
30.98453,431.34,483.10
31.00342,431.38,484.81
31.02395,432.05,486.68
31.04361,429.47,484.09
31.06479,431.14,484.73
31.08438,430.36,487.07
31.10510,429.52,485.89
31.12466,430.89,484.76
31.14619,428.41,484.36
31.16609,427.30,483.58
31.18437,427.91,484.94
31.20571,427.24,482.97
31.22464,429.68,484.40
31.24619,426.85,484.28
31.26595,425.28,484.85
31.28487,426.28,481.91
31.30464,427.10,482.40
31.32518,429.61,481.47
31.34490,431.44,481.59
31.36609,430.95,481.00
31.38529,429.18,483.10
31.40567,429.53,480.76
31.42477,428.46,483.72
31.44547,430.93,483.20
31.46755,428.52,482.72
31.48885,432.01,482.66
31.50942,428.90,483.87
31.52949,429.97,483.57
31.54999,434.71,482.90
31.57055,435.44,479.88
31.58958,435.22,481.03
31.60965,437.29,483.20
31.63029,439.23,483.10
31.65060,439.39,484.93
31.67100,438.62,485.33
31.69087,439.41,484.05
31.71127,440.05,484.44
31.73181,440.66,484.12
31.75179,441.98,487.62
31.77264,444.28,487.83
31.79229,444.11,488.78
31.81179,446.94,487.81
31.83221,444.96,490.19
31.85135,446.82,490.59
31.87207,447.52,489.99
31.89157,446.36,490.51
31.91150,447.56,489.07
31.93158,446.61,492.21
31.95231,445.76,491.22
31.97203,446.76,491.51
31.99148,445.85,490.70
32.01164,443.70,490.43
32.03149,445.65,487.45
32.05134,446.38,489.53
32.07261,443.90,486.73
32.09228,444.47,488.97
32.11233,446.63,488.62
32.13285,446.78,488.62
32.15211,449.09,488.95
32.17215,448.73,487.80
32.19300,447.60,488.38
32.21136,445.57,487.17
32.23267,447.38,489.65
32.25210,448.85,486.07
32.27253,446.40,489.05
32.29264,448.10,486.60
32.31176,446.50,488.93
32.33203,449.33,492.48
32.35301,445.33,496.03
32.37312,446.84,497.41
32.39327,448.72,488.92
32.41272,451.61,476.23
32.43235,454.36,455.27
32.45231,455.16,434.43
32.47358,453.36,415.64
32.49232,454.09,400.57
32.51305,451.49,390.95
32.53330,449.18,383.62
32.55357,445.12,375.31
32.57227,444.21,373.99
32.59416,441.37,373.58
32.61227,443.81,377.05
32.63263,440.56,382.85
32.65290,440.70,386.06
32.67357,441.43,393.27
32.69421,441.23,403.64
32.71273,439.69,413.05
32.73278,444.35,419.92
32.75270,446.91,430.18
32.77278,448.16,437.18
32.79234,446.12,442.37
32.81300,448.82,448.70
32.83384,449.55,455.26
32.85398,448.99,457.93
32.87278,448.58,465.25
32.89235,448.31,468.70
32.91291,447.91,473.06
32.93405,449.80,476.34
32.95306,449.10,476.22
32.97295,447.93,480.26
32.99333,446.67,480.70
33.01292,447.53,484.18
33.03417,449.21,482.38
33.05237,446.55,484.77
33.07396,450.11,487.32
33.09216,450.42,485.95
33.11347,449.54,489.32
33.13426,452.02,487.17
33.15398,450.89,485.62
33.17263,448.57,487.22
33.19336,448.34,486.06
33.21353,445.66,486.47
33.23329,445.33,486.53
33.25324,446.45,486.68
33.27371,446.75,489.75
33.29376,448.43,501.52
33.31337,447.32,524.43
33.33325,450.86,558.15
33.35213,454.85,594.10
33.37405,454.15,618.51
33.39250,454.27,636.49
33.41345,452.44,644.31
33.43361,450.69,642.13
33.45340,450.96,635.36
33.47380,450.10,627.51
33.49330,449.56,610.90
33.51304,451.78,600.86
33.53364,447.72,586.16
33.55250,447.30,571.50
33.57330,446.71,561.23
33.59284,446.53,551.47
33.61282,448.34,543.93
33.63375,447.17,536.93
33.65247,448.39,529.00
33.67390,447.06,527.94
33.69372,445.64,520.15
33.71288,446.49,518.21
33.73289,446.68,515.69
33.75322,447.16,513.53
33.77348,447.48,509.14
33.79221,446.63,505.32
33.81259,446.63,504.92
33.83335,445.00,499.37
33.85313,445.91,500.23
33.87336,447.41,499.72
33.89380,446.12,500.06
33.91397,444.77,498.42
33.93240,447.66,498.94
33.95239,445.55,498.89
33.97324,443.42,497.64
33.99341,447.29,496.34
34.01282,445.13,495.33
34.03249,446.53,497.27
34.05252,445.42,497.84
34.07365,447.89,494.72
34.09367,446.81,495.86
34.11394,449.60,496.35
34.13424,446.34,494.49
34.15262,447.23,493.17
34.17268,450.22,495.08
34.19284,449.02,494.20
34.21260,448.55,495.95
34.23207,446.16,496.44
34.25304,445.46,497.36
34.27292,447.86,494.97
34.29370,445.96,494.44
34.31387,446.04,495.05
34.33324,446.64,495.94
34.35256,449.17,496.10
34.37385,448.22,494.43
34.39375,445.97,494.00
34.41398,446.71,493.63
34.43448,447.02,493.68
34.45463,448.22,492.95
34.47429,447.42,497.18
34.49404,450.57,494.87
34.51500,447.69,495.91
34.53419,448.06,496.42
34.55498,446.02,498.71
34.57459,445.10,497.05
34.59436,446.34,499.25
34.61455,443.90,499.45
34.63319,446.23,498.31
34.65404,443.19,497.25
34.67454,445.14,497.54
34.69490,447.14,496.99
34.71485,445.88,498.88
34.73460,446.63,496.50
34.75490,444.58,496.75
34.77352,444.90,495.81
34.79404,445.26,494.45
34.81361,445.70,488.39
34.83335,448.48,489.09
34.85363,449.78,488.30
34.87486,447.00,485.07
34.89399,449.51,486.24
34.91322,446.82,486.78
34.93440,446.34,487.03
34.95400,449.58,489.09
34.97469,447.12,489.20
34.99467,446.75,491.06
35.01505,445.62,488.38
35.03334,446.82,491.44
35.05494,445.15,494.05
35.07417,445.32,493.53
35.09472,446.07,494.61
35.11395,444.90,492.74
35.13397,447.68,491.10
35.15456,446.16,492.27
35.17488,448.88,492.32
35.19359,448.15,493.58
35.21495,449.24,493.48
35.23422,449.61,491.82
35.25384,448.19,493.46
35.27394,448.57,493.26
35.29354,447.18,494.57
35.31348,449.70,490.89
35.33479,449.39,492.20
35.35343,445.31,493.56
35.37450,445.44,494.02
35.39333,447.65,495.19
35.41367,445.53,492.66
35.43463,447.13,493.00
35.45337,444.91,494.31
35.47347,445.85,493.98
35.49427,447.91,494.14
35.51362,446.59,495.70
35.53337,444.93,492.56
35.55461,444.57,493.47
35.57518,443.68,494.46
35.59433,444.00,495.45
35.61449,444.31,494.95
35.63458,442.58,495.17
35.65450,444.51,493.76
35.67369,443.85,493.40
35.69372,446.60,496.74
35.71479,445.85,494.98
35.73368,443.87,493.77
35.75496,445.79,495.83
35.77363,447.76,496.88
35.79414,447.74,496.17
35.81388,444.84,494.18
35.83452,447.84,494.62
35.85500,447.45,495.57
35.87398,444.19,495.15
35.89348,446.49,495.02
35.91500,445.55,491.76
35.93350,442.97,488.95
35.95322,443.28,490.64
35.97476,440.75,492.61
35.99452,444.15,491.95
36.01465,444.24,489.74
36.03314,442.39,490.94
36.05405,443.10,490.68
36.07494,444.40,492.03
36.09496,445.34,495.13
36.11514,446.59,494.34
36.13506,444.75,487.16
36.15337,446.26,474.35
36.17336,443.27,458.02
36.19411,441.72,439.26
36.21495,443.02,425.30
36.23472,439.76,412.60
36.25345,438.43,401.84
36.27424,438.45,396.10
36.29320,437.24,392.60
36.31470,436.65,390.51
36.33485,435.50,392.55
36.35443,436.79,393.40
36.37474,438.77,398.76
36.39494,439.61,403.62
36.41517,440.48,413.46
36.43351,442.99,418.66
36.45380,441.46,428.50
36.47509,445.04,437.20
36.49432,442.20,443.65
36.51390,445.32,447.68
36.53464,443.14,453.90
36.55467,446.40,460.92
36.57402,446.46,466.76
36.59294,444.46,468.13
36.61376,444.60,472.44
36.63432,444.63,474.81
36.65446,443.59,479.11
36.67432,446.82,478.53
36.69690,444.66,481.12
36.71637,443.90,485.41
36.73489,443.72,487.80
36.75680,441.66,487.18
36.77540,443.66,486.26
36.79668,442.17,487.33
36.81652,441.27,489.67
36.83632,441.14,489.26
36.85635,441.95,488.72
36.87640,442.67,493.06
36.89711,438.81,494.70
36.91699,440.27,496.04
36.93592,440.11,497.85
36.95618,438.26,494.97
36.97584,439.64,503.96
36.99629,439.22,532.48
37.01715,444.54,559.73
37.03564,444.23,591.83
37.05512,448.11,617.22
37.07671,450.68,634.51
37.09679,451.32,645.61
37.11528,454.83,639.09
37.13512,453.91,629.68
37.15700,450.72,615.44
37.17598,448.91,602.48
37.19558,448.71,587.84
37.21571,446.66,575.22
37.23685,445.79,564.08
37.25690,442.68,557.12
37.27517,441.59,547.34
37.29596,443.28,540.79
37.31602,442.81,533.16
37.33722,440.72,526.60
37.35692,439.34,520.59
37.37631,437.83,518.22
37.39623,436.41,513.14
37.41547,437.20,509.67
37.43592,439.70,507.50
37.45552,438.52,504.65
37.47626,439.34,501.43
37.49577,439.99,501.95
37.51620,437.46,501.43
37.53535,436.96,499.04
37.55574,438.05,497.82
37.57590,440.00,498.33
37.59569,437.92,497.18
37.61632,438.03,497.53
37.63562,436.86,497.91
37.65556,436.67,500.19
37.67590,437.36,497.61
37.69625,435.78,500.20
37.71691,437.77,497.04
37.73534,438.96,497.49
37.75565,439.34,498.27
37.77531,437.75,497.07
37.79673,439.22,498.60
37.81555,437.42,495.35
37.83572,437.27,495.50
37.85532,439.48,497.84
37.87549,438.22,495.88
37.89567,437.97,497.51
37.91687,436.24,494.86
37.93598,438.47,495.46
37.95585,438.27,497.80
37.97703,436.44,496.58
37.99570,439.73,497.47
38.01531,437.68,496.35
38.03535,438.72,495.84
38.05672,435.93,498.31
38.07634,438.26,497.66
38.09556,437.49,497.59
38.11706,438.08,495.54
38.13633,436.39,497.00
38.15642,436.57,496.35
38.17546,436.90,494.39
38.19667,436.81,494.46
38.21534,437.29,494.79
38.23565,435.90,495.59
38.25525,435.72,495.32
38.27684,438.22,494.32
38.29593,437.89,495.49
38.31533,439.09,494.46
38.33673,438.13,496.96
38.35631,436.43,495.02
38.37580,439.71,497.08
38.39664,438.38,496.89
38.41545,435.12,495.64
38.43662,434.14,497.15
38.45528,434.53,494.94
38.47547,432.50,495.99
38.49638,432.59,498.70
38.51554,433.72,498.20
38.53583,431.64,499.12
38.55656,433.05,497.68
38.57541,433.99,495.94
38.59588,433.43,495.81
38.61709,435.47,497.71
38.63535,434.42,499.53
38.65679,437.55,497.51
38.67576,434.91,495.80
38.69578,435.75,495.07
38.71531,434.97,495.01
38.73543,436.21,496.72
38.75596,435.70,498.24
38.77520,438.19,497.72
38.79672,435.47,497.05
38.81515,436.56,498.39
38.83677,436.37,497.75
38.85565,436.42,496.90
38.87663,438.25,495.26
38.89525,436.93,493.91
38.91555,438.21,496.44
38.93500,436.31,495.84
38.95542,435.93,494.58
38.97562,437.60,495.64
38.99686,438.44,497.58
39.01540,435.56,499.50
39.03606,439.27,497.76
39.05652,437.24,496.39
39.07656,436.24,498.08
39.09653,436.08,495.97
39.11614,435.13,495.89
39.13542,434.24,498.54
39.15611,437.07,499.53
39.17531,436.40,500.34
39.19605,434.19,497.80
39.21613,434.97,499.46
39.23607,436.42,496.21
39.25658,436.29,498.07
39.27611,432.86,495.95
39.29789,433.23,489.24
39.31680,431.68,476.31
39.33753,430.44,456.86
39.35809,429.48,440.24
39.37829,425.29,422.16
39.39805,423.25,408.34
39.41792,423.28,401.41
39.43799,422.13,391.25
39.45702,419.06,386.76
39.47854,420.72,384.17
39.49725,417.99,383.46
39.51865,419.66,388.20
39.53782,419.36,391.29
39.55910,421.47,398.80
39.57825,424.38,404.29
39.59835,427.16,412.94
39.61960,427.39,422.78
39.63801,428.02,428.60
39.65920,427.74,438.80
39.67826,427.22,446.03
39.69850,429.97,451.68
39.71836,429.71,456.48
39.73998,428.72,458.02
39.75911,429.80,464.04
39.77960,429.38,467.25
39.79896,426.99,471.11
39.81816,427.38,471.23
39.83877,430.01,476.77
39.85952,427.96,477.72
39.87912,428.87,481.64
39.89941,429.50,498.06
39.91964,434.32,527.96
39.94048,436.05,560.96
39.95914,439.46,597.35
39.98085,440.81,627.64
39.99975,441.97,641.81
40.01961,440.52,647.47
40.03899,439.91,636.49
40.06057,439.24,623.20
40.08063,435.71,611.24
40.10087,436.60,595.97
40.11915,434.27,580.83
40.14025,433.28,570.11
40.15917,430.47,559.49
40.17990,428.44,547.73
40.20055,428.06,541.68
40.21918,429.56,533.99
40.23991,427.40,524.50
40.25979,427.87,520.34
40.27943,427.29,516.87
40.30054,428.55,509.95
40.31996,429.87,508.23
40.34042,427.56,505.17
40.36051,429.18,502.78
40.38035,430.08,500.90
40.40096,430.93,495.38
40.41912,430.02,496.77
40.44097,428.43,496.90
40.46083,427.97,494.31
40.48024,428.74,493.32
40.49962,429.63,491.77
40.51948,429.74,492.19
40.53901,429.35,493.54
40.56041,432.07,491.67
40.58038,429.06,494.09
40.60048,429.77,492.78
40.62104,431.45,491.96
40.64039,430.89,491.62
40.66078,430.23,491.50
40.68005,433.16,491.33
40.69995,431.23,493.27
40.72058,433.68,493.53
40.74186,432.96,490.85
40.76121,431.30,490.44
40.77991,431.09,491.32
40.80161,432.95,488.85
40.82072,434.11,491.11
40.84057,433.19,490.20
40.86144,435.09,490.89
40.88044,433.43,489.57
40.90045,433.88,490.01
40.92084,434.84,491.58
40.94003,432.70,491.14
40.96184,431.60,490.82
40.98190,435.51,490.18
41.00072,433.15,490.21
41.02009,432.26,489.50
41.04100,432.32,489.53
41.06136,430.75,492.79
41.08092,429.83,491.27
41.10045,430.56,490.01
41.12185,430.51,490.46
41.14107,429.95,488.62
41.16170,430.51,490.10
41.18014,430.14,488.88
41.20086,430.41,487.94
41.22109,431.19,490.17
41.23980,430.79,487.98
41.26018,433.37,487.34
41.28050,434.26,489.41
41.30145,430.39,489.52
41.32170,432.08,486.45
41.34175,431.88,486.46
41.36072,430.28,489.19
41.38095,430.65,488.23
41.40076,431.96,487.75
41.42150,433.58,488.68
41.44122,430.10,487.36
41.46206,432.50,487.08
41.48035,431.33,486.00
41.50099,432.44,486.97
41.51984,428.95,486.81
41.54131,431.24,489.89
41.56164,430.38,487.56
41.58056,430.02,488.37
41.60074,432.86,489.33
41.62113,433.72,488.04
41.64243,434.65,489.71
41.66284,435.92,490.88
41.68216,434.29,493.19
41.70177,438.26,490.26
41.72264,436.87,491.73
41.74274,437.01,490.93
41.76343,434.88,492.55
41.78249,436.99,495.39
41.80285,435.79,493.96
41.82371,438.08,492.30
41.84369,439.14,492.51
41.86324,438.65,492.83
41.88366,441.46,491.42
41.90273,440.18,489.71
41.92259,440.25,492.64
41.94358,439.32,492.04
41.96370,440.01,493.10
41.98386,441.06,491.65
42.00395,437.41,492.50
42.02238,438.40,491.67
42.04349,439.97,491.63
42.06220,439.23,490.96
42.08213,440.04,493.39
42.10334,436.64,491.88
42.12274,439.15,496.44
42.14235,436.17,492.47
42.16371,437.51,487.25
42.18310,437.23,473.35
42.20320,436.15,454.88
42.22229,431.67,437.12
42.24211,432.28,425.00
42.26226,427.72,411.10
42.28268,429.22,398.45
42.30332,428.84,393.96
42.32291,427.52,389.09
42.34366,428.89,387.70
42.36254,431.39,391.14
42.38244,431.20,392.85
42.40345,431.90,395.37
42.42242,430.77,399.97
42.44370,433.78,408.44
42.46248,435.21,415.04
42.48224,435.52,423.85
42.50261,438.18,428.77
42.52214,439.02,436.16
42.54207,437.61,442.39
42.56176,439.76,450.11
42.58325,440.10,454.84
42.60391,439.02,458.48
42.62379,441.58,462.76
42.64345,440.66,466.05
42.66259,442.06,468.77
42.68243,442.22,473.44
42.70232,441.10,474.18
42.72333,442.62,477.01
42.74262,439.25,476.73
42.76302,440.16,478.88
42.78389,441.03,482.97
42.80366,441.46,488.38
42.82396,443.82,499.86
42.84402,442.32,521.85
42.86366,446.31,550.20
42.88348,448.74,577.63
42.90440,449.97,606.20
42.92413,451.43,626.90
42.94446,452.42,639.49
42.96304,453.47,647.71
42.98419,456.87,639.41
43.00412,455.89,625.88
43.02311,453.94,610.83
43.04325,450.60,599.46
43.06491,449.74,584.11
43.08453,451.78,570.69
43.10342,447.07,560.10
43.12464,447.54,549.39
43.14327,449.74,542.53
43.16301,450.31,537.80
43.18295,447.69,532.07
43.20440,444.03,526.56
43.22380,447.80,522.77
43.24330,446.46,514.95
43.26425,443.01,510.86
43.28361,443.74,510.02
43.30289,443.98,506.83
43.32327,441.62,501.27
43.34396,444.61,501.38
43.36437,442.79,497.90
43.38306,442.60,497.74
43.40366,442.05,498.01
43.42487,444.35,497.48
43.44414,444.77,497.08
43.46323,445.72,497.24
43.48492,447.13,496.39
43.50306,444.36,495.17
43.52407,443.54,493.64
43.54387,445.38,494.25
43.56396,445.07,496.15
43.58371,443.21,494.39
43.60424,446.03,495.25
43.62489,444.94,496.80
43.64399,445.45,497.27
43.66471,443.98,496.59
43.68418,442.33,494.31
43.70358,443.81,494.85
43.72476,446.26,496.42
43.74416,447.37,495.53
43.76346,448.00,494.42
43.78402,448.42,491.85
43.80371,445.52,494.77
43.82470,445.45,495.68
43.84454,445.99,492.45
43.86303,445.61,492.33
43.88299,445.52,492.75
43.90436,445.59,494.64
43.92320,443.60,492.95
43.94398,446.31,492.68
43.96301,447.18,492.74
43.98294,446.13,494.71
44.00440,446.20,494.67
44.02418,447.48,498.11
44.04483,451.10,497.75
44.06515,449.90,494.93
44.08515,450.74,494.23
44.10567,452.63,494.15
44.12582,451.44,493.48
44.14409,449.22,496.43
44.16418,448.58,495.23
44.18433,450.98,492.54
44.20548,449.48,492.85
44.22470,450.16,495.79
44.24426,448.90,494.00
44.26539,448.33,495.46
44.28379,449.35,490.72
44.30489,447.09,491.42
44.32523,446.54,493.51
44.34446,445.76,492.08
44.36509,443.65,495.33
44.38503,445.08,495.30
44.40515,445.61,491.85
44.42561,443.65,495.05
44.44389,444.34,495.44
44.46561,447.40,493.54
44.48562,447.83,497.05
44.50587,446.56,494.64
44.52513,444.71,495.00
44.54505,446.10,494.92
44.56515,444.22,496.49
44.58610,446.50,498.00
44.60610,446.98,496.81
44.62654,445.12,495.66
44.64653,447.52,495.31
44.66623,446.64,495.86
44.68545,447.26,495.92
44.70502,448.85,496.65
44.72623,448.05,498.01
44.74559,448.11,497.68
44.76614,447.61,498.07
44.78558,445.97,495.72
44.80664,448.31,496.43
44.82540,446.22,496.44
44.84645,447.49,496.14
44.86615,444.85,495.66
44.88624,446.36,498.45
44.90489,444.76,500.43
44.92539,447.68,498.82
44.94540,446.24,497.82
44.96529,444.58,501.36
44.98507,446.29,500.28
45.00563,447.66,501.88
45.02475,445.11,501.94
45.04673,446.66,500.20
45.06646,446.08,500.47
45.08619,446.27,500.53
45.10722,447.07,498.58
45.12739,445.34,499.41
45.14826,444.03,498.14
45.16855,444.42,499.46
45.18837,447.38,501.47
45.20742,445.30,500.90
45.22857,446.22,499.73
45.24872,444.39,498.49
45.26720,444.57,499.66
45.28877,445.70,500.39
45.30852,445.66,501.56
45.32861,445.66,498.52
45.34955,444.46,497.81
45.36979,443.91,497.49
45.38979,441.51,499.05
45.41034,443.30,499.12
45.42890,440.98,500.28
45.44980,439.02,498.71
45.46932,439.75,496.99
45.48893,441.28,500.31
45.51087,442.29,499.51
45.53018,442.32,496.15
45.55082,440.00,497.21
45.57050,438.85,496.04
45.58992,440.31,494.31
45.61017,437.33,493.82
45.62985,437.38,495.05
45.64981,437.50,496.00
45.67012,439.26,496.33
45.68992,437.99,495.15
45.70959,439.35,497.02
45.72900,439.69,495.06
45.74927,438.31,496.78
45.77027,439.41,494.49
45.78955,440.53,496.10
45.81028,439.59,496.72
45.83081,440.28,494.83
45.84934,437.80,496.26
45.86950,438.08,495.63
45.88896,437.12,495.24
45.90959,437.02,494.89
45.92895,436.14,494.04
45.94992,437.50,495.63
45.97019,438.94,493.75
45.99014,439.01,494.54
46.00976,437.88,497.29
46.03079,436.75,495.92
46.04972,436.63,499.91
46.07079,439.14,498.23
46.09014,438.30,488.26
46.11023,432.68,475.94
46.12995,430.53,457.30
46.15030,426.65,441.27
46.17011,423.15,426.88
46.18994,418.69,416.60
46.20905,415.95,409.53
46.23004,416.48,403.32
46.25009,417.26,396.79
46.26959,420.44,393.24
46.29087,421.88,394.67
46.30895,426.65,397.13
46.32981,427.94,397.52
46.35025,430.83,402.84
46.36949,435.91,407.70
46.39079,434.84,415.15
46.41033,436.60,422.07
46.42994,437.95,427.85
46.44942,435.34,436.91
46.46971,438.17,443.12
46.48902,436.65,451.66
46.50901,435.95,457.21
46.52937,437.38,459.45
46.55016,435.47,464.09
46.56923,437.38,469.40
46.58918,436.28,474.66
46.61030,438.46,474.46
46.62902,436.40,477.18
46.64975,438.43,480.80
46.67051,437.49,481.78
46.68889,435.52,485.03
46.71043,437.95,486.28
46.72953,439.00,491.41
46.74961,438.38,523.31
46.76936,440.63,555.17
46.78911,441.59,595.83
46.80882,448.27,619.25
46.82910,447.88,639.83
46.84893,447.29,651.00
46.87072,449.43,649.77
46.89003,449.19,640.57
46.90928,448.70,630.49
46.93013,445.62,615.07
46.95072,447.11,598.71
46.96921,444.34,586.73
46.98929,442.26,574.96
47.01012,442.87,562.56
47.02961,442.45,551.79
47.05034,439.54,544.48
47.06977,438.98,535.40
47.08939,440.04,530.52
47.10995,436.96,522.70
47.13112,437.58,518.26
47.15111,435.56,514.68
47.17129,434.58,509.38
47.19179,431.64,508.16
47.21110,430.29,504.51
47.23024,431.78,505.45
47.25103,430.58,501.88
47.27092,433.84,500.12
47.29005,432.60,500.06
47.31154,432.35,497.08
47.33007,434.21,497.90
47.35163,434.24,495.24
47.37222,433.04,492.08
47.39215,434.10,492.93
47.41216,432.39,491.72
47.43286,433.01,491.48
47.45276,433.82,492.32
47.47127,429.61,493.62
47.49169,430.76,493.77
47.51201,431.74,493.38
47.53089,431.07,492.69
47.55261,431.19,491.75
47.57229,431.39,495.31
47.59110,432.60,494.29
47.61157,432.30,494.66
47.63265,429.35,492.82
47.65209,430.95,490.36
47.67117,429.11,489.00
47.69132,430.30,489.66
47.71188,431.40,490.78
47.73138,428.92,491.34
47.75180,431.71,491.79
47.77216,431.20,489.80
47.79104,430.11,491.30
47.81118,428.35,492.22
47.83159,427.41,493.10
47.85189,427.52,489.45
47.87259,430.22,490.07
47.89207,428.29,489.76
47.91151,429.80,492.42
47.93255,429.54,489.73
47.95241,427.46,491.71
47.97207,427.62,487.76
47.99110,428.68,490.30
48.01163,429.67,490.01
48.03135,428.27,490.91
48.05220,428.92,489.95
48.07115,428.49,486.28
48.09250,427.92,486.60
48.11097,430.58,490.15
48.13141,430.32,486.07
48.15205,426.93,487.43
48.17194,426.46,486.49
48.19141,427.79,487.01
48.21154,429.25,489.10
48.23178,429.47,488.33
48.25244,428.53,486.63
48.27151,430.68,490.01
48.29120,428.27,490.10
48.31160,429.45,490.62
48.33082,428.05,489.57
48.35120,427.28,491.06
48.37139,425.13,489.41
48.39118,424.59,490.37
48.41261,426.09,491.05
48.43134,425.03,489.06
48.45258,426.52,488.71
48.47250,428.92,488.51
48.49179,427.00,487.41
48.51122,426.52,485.90
48.53166,426.78,487.28
48.55279,430.33,488.36
48.57144,427.98,488.25
48.59198,427.86,488.40
48.61121,428.99,489.22
48.63083,426.69,488.51
48.65149,428.22,490.19
48.67262,429.53,491.77
48.69101,427.00,490.62
48.71177,427.07,487.96
48.73101,429.92,488.26
48.75244,431.31,486.93
48.77261,431.67,486.47
48.79129,429.73,488.23
48.81183,430.30,488.86
48.83187,426.42,490.19
48.85096,427.66,489.94
48.87235,427.48,489.81
48.89276,426.66,490.53
48.91194,425.30,489.69
48.93254,428.77,488.96
48.95212,426.27,492.07
48.97256,425.97,490.38
48.99252,427.14,489.71
49.01098,425.00,491.03
49.03242,429.25,487.62
49.05087,429.57,488.59
49.07139,429.60,489.19
49.09178,431.99,488.44
49.11176,431.92,489.82
49.13199,429.42,489.24
49.15231,431.81,490.53
49.17209,428.85,489.65
49.19201,429.32,489.20
49.21163,429.48,488.79
49.23259,431.49,490.88
49.25194,429.59,490.63
49.27281,430.28,490.75
49.29270,427.81,490.53
49.31164,430.12,487.93
49.33241,430.15,489.87
49.35270,429.16,487.07
49.37161,427.67,487.57
49.39252,427.35,486.23
49.41088,427.36,488.42
49.43264,427.09,489.17
49.45068,427.55,486.72
49.47101,428.09,486.00
49.49159,426.28,489.69
49.51085,426.95,488.23
49.53175,428.78,489.50
49.55215,426.22,488.96
49.57159,426.59,489.22
49.59254,426.08,489.02
49.61173,425.00,489.97
49.63209,427.19,488.78
49.65164,426.72,489.90
49.67085,427.59,489.40
49.69111,429.31,487.73
49.71250,428.90,488.32
49.73172,427.64,484.90
49.75209,428.84,488.80
49.77228,431.24,486.09
49.79207,428.47,486.40
49.81274,428.72,489.09
49.83410,428.68,489.40
49.85407,428.78,485.97
49.87611,430.67,476.45
49.89649,433.15,466.98
49.91784,437.25,453.44
49.93571,438.09,444.05
49.95713,441.27,431.97
49.97671,445.86,423.00
49.99598,444.55,416.10
50.01661,445.68,409.59
50.03693,447.23,403.18
50.05770,443.87,402.09
50.07789,440.73,398.54
50.09592,440.03,393.08
50.11588,438.72,393.54
50.13679,438.73,393.68
50.15735,437.76,395.82
50.17630,435.01,397.82
50.19725,431.81,406.03
50.21654,432.11,409.97
50.23707,432.84,414.84
50.25676,430.39,421.99
50.27621,433.33,428.45
50.29608,431.67,432.83
50.31646,433.14,441.56
50.33707,431.36,445.29
50.35744,435.29,454.74
50.37771,436.92,457.14
50.39683,438.15,465.11
50.41719,435.73,466.91
50.43830,437.76,481.01
50.45725,440.99,507.81
50.47828,443.75,536.12
50.49850,443.73,573.49
50.51784,445.65,604.78
50.53753,446.69,627.60
50.55862,445.58,643.54
50.57847,447.84,644.96
50.59778,445.51,634.97
50.61818,442.84,622.53
50.63810,444.23,608.60
50.65869,444.98,595.93
50.67797,444.56,584.15
50.69824,445.12,570.76
50.71775,446.07,557.67
50.73760,445.12,549.07
50.75708,443.09,542.49
50.77877,443.31,534.32
50.79710,445.85,528.78
50.81840,443.30,524.99
50.83760,442.43,517.56
50.85786,443.40,514.71
50.87846,444.81,513.05
50.89786,445.56,508.06
50.91845,444.39,507.16
50.93833,443.90,504.37
50.95895,445.37,501.86
50.97927,448.71,502.50
50.99846,448.64,501.24
51.01808,446.09,499.56
51.03884,446.79,500.07
51.05831,449.53,499.13
51.07799,446.55,497.87
51.09856,445.87,495.51
51.11916,448.00,495.92
51.13921,447.89,498.24
51.15939,446.45,495.23
51.17865,445.78,495.71
51.19952,446.59,498.28
51.21756,447.00,493.75
51.23781,448.19,495.90
51.25848,445.98,494.92
51.27916,446.07,496.09
51.29825,445.80,496.35
51.31938,448.49,494.47
51.33854,447.32,494.45
51.35861,448.63,495.65
51.37840,447.23,495.05
51.39841,448.57,496.87
51.41888,448.22,495.89
51.43977,447.55,495.24
51.45846,445.27,494.07
51.47824,446.03,493.71
51.49823,444.77,492.56
51.51846,445.57,494.78
51.53816,448.32,495.35
51.55876,450.15,495.57
51.57949,448.34,497.38
51.59882,448.83,494.95
51.61878,447.97,498.35
51.63816,450.35,495.46
51.65952,447.01,495.68
51.67830,448.62,497.91
51.69896,449.22,496.85
51.72049,452.25,496.96
51.74036,448.06,495.80
51.75903,448.62,496.66
51.77895,451.26,497.78
51.80055,450.26,496.51
51.81886,450.39,500.18
51.84020,448.41,498.68
51.86074,447.11,497.75
51.88038,448.38,498.90
51.90054,449.88,498.75
51.92021,449.23,497.97
51.93883,446.69,497.85
51.95898,449.80,496.83
51.98020,447.91,499.67
51.99937,448.37,499.87
52.01891,447.36,499.53
52.04042,449.17,496.67
52.05976,447.25,496.34
52.07900,450.56,498.93
52.09937,448.84,498.97
52.11996,451.75,497.53
52.14035,452.36,495.02
52.16039,450.16,495.02
52.18062,448.73,494.63
52.20057,447.85,494.97
52.21913,447.53,496.49
52.23987,448.76,494.24
52.26060,448.26,496.70
52.28017,448.30,495.39
52.30166,449.17,497.29
52.32264,445.27,496.44
52.34089,446.46,496.90
52.36208,446.07,497.88
52.38219,444.74,498.75
52.40263,444.07,500.33
52.42171,444.51,498.13
52.44243,445.34,497.31
52.46164,444.98,498.10
52.48196,446.79,498.01
52.50258,448.14,498.97
52.52251,447.33,496.93
52.54084,447.78,496.50
52.56189,447.06,499.42
52.58189,445.70,499.60
52.60103,446.71,499.89
52.62088,443.21,498.16
52.64118,445.91,499.20
52.66127,444.72,499.02
52.68184,443.71,496.15
52.70222,444.62,496.20
52.72229,446.61,496.83
52.74246,444.95,497.03
52.76235,442.53,495.44
52.78139,440.99,495.36
52.80241,441.45,498.16
52.82176,443.01,498.25
52.84160,442.79,495.80
52.86075,443.98,495.20
52.88061,442.23,494.64
52.90238,441.72,497.02
52.92402,442.98,494.49
52.94410,441.14,496.04
52.96523,441.09,493.90
52.98505,440.79,492.77
53.00606,437.90,494.83
53.02551,437.55,495.11
53.04579,439.04,492.14
53.06526,435.33,495.91
53.08616,437.58,496.60
53.10586,435.86,494.93
53.12513,436.63,495.77
53.14590,432.49,491.77
53.16653,435.33,494.65
53.18546,432.93,494.44
53.20633,435.09,493.45
53.22582,432.24,490.77
53.24498,433.94,492.26
53.26490,432.94,490.56
53.28493,432.31,490.98
53.30644,433.27,492.48
53.32613,432.53,494.07
53.34575,431.04,490.48
53.36666,433.62,494.36
53.38597,431.42,494.05
53.40479,430.64,493.05
53.42648,430.98,491.44
53.44590,431.80,494.39
53.46498,430.31,494.69
53.48464,430.94,496.33
53.50498,431.99,494.61
53.52550,433.70,494.64
53.54563,432.59,494.52
53.56511,431.58,492.94
53.58564,432.83,492.99
53.60513,435.00,494.54
53.62649,433.15,493.57
53.64570,433.75,491.01
53.66560,432.76,490.97
53.68624,434.09,491.37
53.70458,433.33,493.48
53.72641,430.92,491.13
53.74647,432.92,491.80
53.76486,433.02,492.02
53.78585,430.51,491.03
53.80587,431.32,492.20
53.82516,432.00,492.30
53.84646,433.79,490.26
53.86496,432.31,493.04
53.88648,432.29,490.41
53.90493,433.53,492.88
53.92568,433.14,490.13
53.94553,433.72,491.70
53.96531,432.93,489.50
53.98477,433.74,492.00
54.00530,437.17,492.73
54.02494,436.17,491.71
54.04502,434.58,492.52
54.06532,437.35,489.57
54.08505,435.55,478.99
54.10488,432.75,467.17
54.12552,434.43,448.76
54.14644,431.13,433.88
54.16659,427.27,418.73
54.18578,430.19,405.89
54.20478,428.37,396.36
54.22509,425.28,384.75
54.24644,427.21,379.43
54.26817,423.44,376.92
54.28875,427.87,379.06
54.31035,427.75,382.15
54.33119,428.99,386.55
54.35012,426.02,394.95
54.37118,429.97,401.77
54.39099,427.73,410.37
54.41189,429.09,420.94
54.43243,427.27,429.85
54.45381,429.78,436.12
54.47418,431.67,444.26
54.49505,434.75,450.04
54.51490,433.99,455.39
54.53476,437.32,460.29
54.55515,438.82,467.04
54.57406,441.40,469.25
54.59533,442.67,471.15
54.61385,441.40,476.92
54.63533,442.21,488.06
54.65468,442.88,511.17
54.67597,444.00,543.13
54.69678,445.83,577.30
54.71633,447.12,611.76
54.73561,447.34,636.84
54.75670,450.11,646.54
54.77722,450.76,650.58
54.79768,450.55,640.98
54.81665,454.97,625.87
54.83584,453.78,613.16
54.85642,453.50,598.96
54.87751,452.99,583.80
54.89629,454.58,572.04
54.91642,454.65,562.27
54.93685,452.72,552.40
54.95858,450.53,541.43
54.97855,450.69,533.78
54.99892,452.68,531.01
55.01905,452.63,522.86
55.03931,448.88,521.48
55.05957,451.03,517.55
55.07888,449.42,511.96
55.09961,447.05,509.00
55.12024,448.65,508.79
55.13954,446.25,507.53
55.15867,448.60,502.47
55.17986,445.97,503.12
55.19986,445.07,503.44
55.21905,446.90,500.78
55.23955,444.60,498.07
55.25997,447.90,498.99
55.27878,445.94,494.58
55.30009,447.21,494.70
55.31957,445.61,496.50
55.34072,443.54,495.35
55.36142,444.65,497.84
55.37998,443.83,497.71
55.40144,444.72,496.36
55.42054,442.20,496.24
55.44010,443.37,495.49
55.46160,441.48,495.29
55.48016,444.03,496.15
55.49999,441.89,496.61
55.52025,442.72,494.01
55.53979,441.27,496.31
55.56031,440.07,495.51
55.57987,442.09,496.75
55.60077,440.88,496.42
55.62095,439.29,493.80
55.64059,440.24,494.78
55.66076,443.27,497.00
55.68126,441.89,496.03
55.70070,442.07,495.83
55.72011,441.15,497.43
55.74155,440.97,497.03
55.76158,444.21,498.21
55.78122,444.71,498.75
55.80083,445.03,495.95
55.82044,442.75,496.99
55.84060,446.61,497.32
55.86089,444.70,493.63
55.88038,446.40,494.67
55.90130,445.71,493.83
55.92259,443.59,492.87
55.94155,441.96,491.50
55.96145,444.38,492.26
55.98246,441.98,494.08
56.00152,439.52,492.21
56.02118,437.88,491.00
56.04234,438.37,489.97
56.06200,437.91,492.44
56.08184,436.34,493.92
56.10175,436.43,493.00
56.12269,435.69,490.42
56.14239,436.37,493.18
56.16298,434.89,490.28
56.18326,434.98,492.64
56.20216,436.25,489.72
56.22353,435.49,489.68
56.24315,435.15,490.75
56.26321,435.12,492.86
56.28266,432.23,489.81
56.30357,433.22,492.02
56.32248,433.96,488.83
56.34237,433.00,490.53
56.36355,434.32,491.90
56.38182,434.94,490.15
56.40337,436.02,492.16
56.42145,436.74,492.07
56.44186,433.63,490.55
56.46251,433.72,493.99
56.48327,434.69,491.01
56.50269,436.55,494.96
56.52154,434.64,491.31
56.54290,436.14,494.30
56.56293,432.17,494.95
56.58260,435.13,492.87
56.60291,436.34,495.26
56.62250,435.07,492.06
56.64304,433.40,495.79
56.66207,435.27,492.46
56.68198,435.49,495.04
56.70157,433.99,496.40
56.72240,433.91,494.20
56.74307,434.44,493.53
56.76310,432.36,497.28
56.78272,429.86,494.63
56.80320,430.67,494.17
56.82295,431.45,495.52
56.84338,434.49,494.27
56.86291,434.90,498.15
56.88290,432.19,495.40
56.90170,435.59,497.21
56.92316,433.88,497.12
56.94274,433.99,496.10
56.96264,436.17,497.49
56.98308,434.68,494.62
57.00282,434.60,494.01
57.02351,433.98,497.21
57.04198,431.52,497.01
57.06359,434.31,493.38
57.08250,434.82,493.83
57.10325,432.46,492.61
57.12308,433.15,492.98
57.14307,434.25,493.37
57.16281,431.64,492.23
57.18440,432.96,491.61
57.20274,433.59,492.09
57.22441,430.64,490.64
57.24515,429.97,489.66
57.26679,428.67,490.17
57.28697,429.66,490.95
57.30743,433.90,489.53
57.32749,432.36,489.25
57.34810,433.53,488.96
57.36665,432.61,490.93
57.38720,432.85,490.66
57.40696,434.31,490.75
57.42832,430.10,488.94
57.44832,429.74,488.50
57.46827,431.50,490.51
57.48837,430.07,491.96
57.50754,428.56,492.02
57.52731,429.22,491.64
57.54813,428.76,491.76
57.56664,429.57,490.81
57.58842,428.97,493.02
57.60816,427.74,490.25
57.62716,428.98,491.14
57.64807,432.80,488.96
57.66737,431.24,486.92
57.68745,431.49,484.77
57.70717,432.62,484.10
57.72775,432.68,486.45
57.74749,431.95,487.71
57.76679,434.75,486.59
57.78772,432.25,486.06
57.80662,434.13,485.62
57.82712,431.56,488.73
57.84782,428.75,490.68
57.86745,426.88,488.36
57.88819,426.95,479.74
57.90813,423.80,469.48
57.92821,423.99,456.34
57.94813,420.14,441.54
57.96654,422.69,432.06
57.98707,420.50,421.60
58.00784,423.29,413.64
58.02857,422.64,406.03
58.04803,421.79,397.96
58.06780,424.11,396.15
58.08880,424.00,390.18
58.10877,423.41,391.38
58.12932,426.44,388.83
58.14802,429.99,393.42
58.16903,428.04,395.31
58.18890,429.21,400.00
58.20856,429.85,402.33
58.22766,433.19,409.40
58.24890,432.42,413.99
58.26886,432.57,420.27
58.28877,431.93,424.89
58.30953,435.87,431.19
58.32774,435.57,437.94
58.34801,433.72,445.25
58.36872,438.19,451.64
58.38784,436.78,455.77
58.40821,438.74,457.86
58.42919,437.48,463.17
58.44763,438.11,466.72
58.46920,435.29,469.26
58.48856,436.69,473.94
58.50955,435.75,476.49
58.52740,432.63,480.96
58.54905,434.05,483.29
58.56925,434.93,485.35
58.58811,436.16,484.42
58.60939,439.32,499.81
58.62797,438.55,526.96
58.64931,442.38,558.57
58.66909,445.23,592.12
58.68872,445.47,619.91
58.70888,449.09,644.03
58.72930,450.68,653.93
58.74786,450.57,657.05
58.76871,451.27,650.23
58.78827,450.51,637.81
58.80902,448.31,622.68
58.82776,448.42,602.71
58.84953,449.59,588.87
58.86786,448.02,574.80
58.88912,444.53,561.69
58.90772,444.72,549.86
58.92813,444.46,539.27
58.94778,442.41,530.74
58.96830,443.01,523.03
58.98880,442.11,518.00
59.00929,439.27,513.25
59.02885,439.94,511.60
59.04851,440.26,507.02
59.06800,437.74,500.22
59.08833,437.29,498.57
59.10853,438.46,494.36
59.12919,436.56,493.28
59.14825,439.79,491.94
59.16899,439.20,491.69
59.18937,439.23,487.02
59.20885,439.37,486.32
59.22759,436.99,487.79
59.24773,436.60,486.94
59.26829,439.42,485.80
59.28805,440.19,487.18
59.30794,437.77,486.10
59.32760,438.03,484.91
59.34836,440.82,488.27
59.36958,440.57,490.52
59.38767,438.95,488.59
59.40941,440.73,488.40
59.42848,437.79,487.39
59.44794,440.31,489.75
59.46752,441.46,486.33
59.48921,440.37,487.51
59.50917,441.77,487.60
59.52902,438.64,487.73
59.54763,440.11,490.75
59.56832,441.16,491.14
59.58863,442.20,491.40
59.60905,440.51,491.72
59.62832,441.19,489.71
59.65000,444.81,490.95
59.66843,445.92,492.65
59.68995,445.46,492.93
59.70850,445.28,493.56
59.72855,441.86,490.42
59.74919,443.25,491.34
59.77106,440.09,492.43
59.78944,442.38,492.01
59.81027,441.72,491.65
59.82986,441.18,492.27
59.85053,441.81,493.88
59.87051,442.04,490.93
59.89006,441.66,491.91
59.91255,441.68,493.52
59.93258,441.96,494.25
59.95124,445.44,494.59
59.97181,447.30,494.65
59.99134,448.15,491.49
60.01128,445.12,493.51
60.03194,444.65,494.33
60.05279,445.72,495.79
60.07068,444.40,491.96
60.09179,445.90,492.62
60.11072,447.41,492.54
60.13209,444.84,495.56
60.15192,446.21,492.69
60.17147,446.16,493.42
60.19253,446.92,495.88
60.21164,445.29,493.35
60.23121,446.31,496.70
60.25112,446.12,493.17
60.27133,445.03,494.55
60.29116,448.00,496.90
60.31329,446.57,497.22
60.33312,446.71,497.28
60.35329,444.36,495.86
60.37368,445.36,494.92
60.39421,446.80,496.88
60.41402,444.24,496.49
60.43280,445.31,500.22
60.45334,447.58,500.69
60.47277,449.02,500.63
60.49297,447.36,499.59
60.51395,445.33,498.91
60.53325,447.75,497.74
60.55293,449.81,498.14
60.57287,447.81,497.28
60.59321,447.92,497.03
60.61404,449.60,496.11
60.63322,449.00,495.68
60.65287,448.21,497.10
60.67309,445.84,498.67
60.69262,445.09,496.24
60.71432,443.48,497.93
60.73367,446.56,494.40
60.75309,445.42,495.44
60.77384,447.47,495.10
60.79386,446.50,495.61
60.81379,447.26,496.80
60.83508,446.25,494.94
60.85391,445.42,493.48
60.87550,445.26,494.53
60.89458,444.58,493.31
60.91540,445.30,493.35
60.93437,443.73,492.65
60.95547,445.35,492.64
60.97516,444.22,493.30
60.99598,444.71,492.11
61.01573,442.81,492.16
61.03652,443.52,491.27
61.05565,444.79,492.83
61.07560,440.81,493.08
61.09528,441.75,489.48
61.11461,442.82,492.14
61.13637,442.01,489.45
61.15549,440.51,491.25
61.17477,442.64,489.95
61.19620,442.51,491.12
61.21574,439.32,491.04
61.23520,439.19,488.87
61.25588,439.21,490.05
61.27534,440.02,490.55
61.29599,440.00,492.52
61.31563,441.39,490.64
61.33622,441.50,491.98
61.35620,442.55,491.57
61.37619,443.35,494.62
61.39466,441.78,493.96
61.41634,441.63,494.01
61.43736,443.01,492.84
61.45715,442.55,492.86
61.47800,439.52,491.25
61.49666,437.69,493.57
61.51760,436.63,492.52
61.53775,437.56,492.19
61.55711,438.19,492.94
61.57654,433.39,489.51
61.59806,436.39,492.47
61.61667,436.16,491.22
61.63905,435.40,488.68
61.65876,434.44,491.53
61.67930,434.25,488.95
61.69920,436.29,490.52
61.71872,435.03,493.93
61.73874,434.42,489.15
61.75901,433.45,482.73
61.77869,433.07,471.42
61.79894,432.56,457.76
61.81773,429.57,440.93
61.83978,428.04,422.31
61.85848,426.27,408.26
61.87798,424.39,396.80
61.89834,419.38,388.85
61.91878,420.28,381.38
61.93810,418.50,377.71
61.95946,422.84,380.14
61.97920,423.06,382.49
61.99843,426.10,385.11
62.01896,423.87,392.52
62.03931,427.33,399.39
62.06018,425.91,406.94
62.07851,426.54,416.54
62.09875,426.81,423.99
62.11940,425.09,429.97
62.13855,426.76,436.08
62.15944,425.91,442.10
62.17979,427.11,450.60
62.19944,426.65,453.95
62.21989,426.50,459.55
62.23967,429.05,462.15
62.25851,428.83,464.31
62.27855,428.43,470.04
62.29933,430.42,471.26
62.31885,428.45,473.36
62.33962,427.27,471.57
62.35898,427.80,472.81
62.38015,427.75,485.63
62.39992,427.88,512.64
62.42007,430.97,546.34
62.43860,434.26,580.58
62.45992,434.47,609.47
62.47934,437.75,628.65
62.49950,439.75,632.14
62.52073,437.49,624.69
62.54170,439.92,611.37
62.56131,441.58,598.64
62.58259,437.08,585.86
62.60468,439.01,573.63
62.62418,439.66,557.92
62.64426,436.81,550.47
62.66486,438.04,538.64
62.68393,435.99,532.86
62.70527,435.42,523.49
62.72375,435.95,519.88
62.74350,436.52,514.56
62.76457,435.74,510.51
62.78381,435.94,508.84
62.80407,437.39,504.32
62.82383,438.87,501.22
62.84407,437.53,502.51
62.86386,439.30,500.34
62.88391,436.96,498.83
62.90463,437.32,497.51
62.92366,437.05,494.33
62.94453,437.39,491.24
62.96422,436.28,492.26
62.98446,435.81,490.51
63.00619,437.35,490.64
63.02585,435.76,490.89
63.04581,435.01,489.38
63.06611,436.26,487.49
63.08594,435.63,488.26
63.10453,438.20,489.13
63.12614,437.76,491.04
63.14509,436.38,490.63
63.16607,437.48,489.23
63.18596,439.31,487.18
63.20560,438.63,488.61
63.22576,438.91,490.11
63.24623,437.49,489.10
63.26582,437.60,489.87
63.28605,435.90,489.36
63.30539,437.62,489.92
63.32560,436.90,489.71
63.34608,436.08,490.02
63.36489,437.09,489.44
63.38504,436.91,487.31
63.40510,436.35,488.64
63.42485,435.34,490.90
63.44438,435.65,489.36
63.46502,436.53,490.33
63.48469,433.52,490.75
63.50595,434.88,491.11
63.52544,437.63,489.73
63.54546,434.38,493.37
63.56556,435.74,489.67
63.58529,435.41,489.74
63.60587,436.53,491.28
63.62463,435.45,489.12
63.64555,435.46,488.34
63.66571,437.87,487.28
63.68460,437.02,488.98
63.70481,435.09,489.17
63.72573,437.13,487.93
63.74433,438.21,489.57
63.76545,437.28,486.10
63.78451,436.90,487.34
63.80466,439.62,487.66
63.82431,437.61,491.66
63.84475,438.50,490.20
63.86490,440.08,491.40
63.88491,437.74,492.14
63.90583,440.60,490.74
63.92523,439.42,490.89
63.94781,442.37,490.34
63.96537,439.52,489.95
63.98595,441.29,490.85
64.00445,440.31,492.57
64.02609,442.44,492.59
64.04614,440.94,491.12
64.06452,444.02,492.04
64.08529,442.95,488.51
64.10562,445.65,491.85
64.12533,442.97,489.33
64.14494,444.01,491.54
64.16566,442.43,490.03
64.18601,443.28,489.18
64.20495,443.57,492.12
64.22564,440.65,489.73
64.24529,441.85,490.39
64.26523,440.71,489.93
64.28425,442.81,493.78
64.30498,439.96,490.45
64.32478,442.37,491.29
64.34494,443.78,489.89
64.36570,442.85,491.29
64.38432,442.77,491.05
64.40443,444.77,493.50
64.42529,443.59,489.93
64.44624,445.19,492.23
64.46822,446.01,490.76
64.48826,446.53,492.31
64.50832,446.99,493.71
64.52883,447.23,492.06
64.54884,448.65,491.68
64.56993,448.69,492.66
64.58953,447.38,495.89
64.60975,447.57,494.70
64.62864,444.25,493.40
64.64890,447.85,497.46
64.66869,446.62,494.57
64.68856,445.89,494.44
64.70948,445.75,495.31
64.72851,446.27,495.43
64.75018,444.80,493.42
64.77004,446.02,492.88
64.79132,444.25,492.28
64.81095,447.25,495.01
64.83014,446.19,495.76
64.84941,447.92,494.31
64.87063,445.77,496.92
64.89283,445.48,494.83
64.91314,445.85,494.05
64.93227,442.97,494.86
64.95165,442.70,496.80
64.97309,443.73,496.67
64.99288,443.67,493.50
65.01320,441.18,495.60
65.03380,442.97,494.24
65.05377,444.42,494.17
65.07351,441.27,494.00
65.09391,442.19,494.39
65.11382,441.85,494.99
65.13248,442.93,492.32
65.15311,442.71,492.52
65.17285,441.27,494.79
65.19254,440.61,493.70
65.21316,440.25,495.13
65.23430,441.09,493.75
65.25376,438.06,493.86
65.27477,438.17,494.06
65.29557,436.80,491.70
65.31574,439.97,492.74
65.33485,436.86,491.78
65.35461,437.60,491.80
65.37527,437.88,493.05
65.39635,439.94,490.10
65.41630,437.56,490.42
65.43642,436.50,489.08
65.45587,435.64,491.04
65.47826,435.76,490.86
65.49756,435.23,487.85
65.51638,433.52,486.44
65.53751,430.00,488.91
65.55827,430.87,487.82
65.57655,432.16,488.00
65.59728,428.92,487.23
65.61715,429.78,489.35
65.63724,431.32,488.24
65.65778,434.37,488.28
65.67853,433.67,485.42
65.69815,434.87,486.58
65.71818,433.22,488.59
65.73865,431.67,486.13
65.75883,432.23,485.28
65.77841,431.01,484.29
65.79824,430.00,485.19
65.81729,432.01,484.47
65.83797,430.13,486.30
65.85741,431.29,485.45
65.87747,429.92,487.02
65.89988,432.39,486.63
65.92027,432.59,485.43
65.93953,431.82,485.16
65.95947,430.91,487.16
65.98040,434.32,487.82
66.00262,435.76,489.30
66.02316,436.76,489.83
66.04347,437.40,489.88
66.06434,440.08,479.96
66.08436,440.48,470.36
66.10488,442.02,458.41
66.12384,441.88,441.39
66.14504,440.94,429.43
66.16427,439.41,419.84
66.18354,438.62,408.07
66.20457,438.02,401.15
66.22474,436.57,398.85
66.24426,433.82,397.89
66.26508,433.82,399.44
66.28502,432.77,396.49
66.30429,434.53,398.60
66.32438,436.75,401.57
66.34477,435.65,402.40
66.36497,438.28,406.81
66.38340,438.35,411.64
66.40584,438.73,418.68
66.42550,440.68,422.41
66.44572,442.86,428.69
66.46504,444.14,432.19
66.48675,445.95,441.56
66.50553,443.70,446.97
66.52773,445.56,453.18
66.54796,443.03,460.55
66.56958,442.51,464.73
66.58951,441.00,468.39
66.60994,442.14,473.02
66.62944,443.08,476.89
66.65102,441.86,476.23
66.66922,441.16,478.42
66.69088,443.68,495.88
66.71102,442.33,517.72
66.73103,442.87,545.95
66.75099,441.79,573.30
66.77026,443.42,602.86
66.79087,444.11,628.65
66.80921,445.67,639.72
66.82958,446.04,642.48
66.85170,449.18,641.22
66.87121,448.03,632.45
66.89193,452.16,617.98
66.91169,451.43,603.32
66.93046,450.91,589.35
66.95179,451.08,576.09
66.97289,448.57,561.86
66.99207,448.77,551.83
67.01179,444.56,541.13
67.03273,445.37,535.79
67.05116,442.60,526.56
67.07227,445.03,523.13
67.09186,443.75,517.05
67.11170,444.59,513.55
67.13286,445.95,513.58
67.15287,444.00,510.49
67.17337,445.14,504.54
67.19269,444.81,504.65
67.21189,444.52,499.46
67.23199,443.01,501.08
67.25177,441.55,498.24
67.27244,441.45,496.11
67.29236,441.96,496.84
67.31179,439.17,495.04
67.33186,437.75,495.10
67.35222,437.33,494.09
67.37179,440.13,494.63
67.39130,437.83,495.72
67.41326,437.01,495.80
67.43176,439.76,493.38
67.45132,435.18,494.87
67.47328,439.03,494.92
67.49117,436.96,493.12
67.51318,437.36,490.66
67.53286,438.21,491.83
67.55147,438.40,490.64
67.57263,436.61,492.48
67.59221,439.31,492.54
67.61223,439.23,491.92
67.63262,435.92,493.23
67.65285,436.48,492.37
67.67249,436.82,493.23
67.69158,436.65,491.59
67.71285,437.32,492.82
67.73245,435.46,491.67
67.75162,436.76,492.69
67.77249,438.71,494.49
67.79268,436.24,493.49
67.81207,436.85,493.65
67.83290,439.22,494.00
67.85294,437.10,493.38
67.87281,435.77,493.19
67.89202,434.68,495.48
67.91190,436.29,492.45
67.93320,434.84,495.89
67.95235,433.18,493.65
67.97302,433.41,494.99
67.99317,430.72,493.51
68.01241,433.03,492.80
68.03334,432.23,494.74
68.05287,430.92,494.14
68.07284,431.11,491.99
68.09361,431.14,492.03
68.11287,429.98,494.48
68.13323,432.94,493.36
68.15253,432.03,490.42
68.17260,434.05,493.13
68.19248,435.43,493.48
68.21251,433.88,490.42
68.23351,434.96,489.04
68.25371,432.90,489.49
68.27251,435.35,489.96
68.29214,434.48,487.44
68.31367,435.15,487.20
68.33325,436.38,487.14
68.35309,434.50,486.56
68.37350,433.29,488.64
68.39349,433.86,488.27
68.41286,434.69,491.27
68.43349,431.82,489.78
68.45298,431.24,491.90
68.47318,431.90,490.32
68.49382,432.88,491.91
68.51400,432.73,491.35
68.53381,430.53,492.94
68.55433,430.58,491.28
68.57387,430.41,489.54
68.59261,429.22,489.44
68.61379,429.68,490.92
68.63299,432.27,490.20
68.65323,431.27,489.24
68.67227,433.96,492.56
68.69363,434.15,489.91
68.71403,431.93,491.54
68.73288,429.47,489.64
68.75266,431.41,488.47
68.77365,431.16,490.14
68.79273,431.59,487.73
68.81408,428.81,488.71
68.83247,428.00,487.30
68.85364,427.60,489.43
68.87366,432.39,487.76
68.89368,429.72,485.90
68.91328,431.58,489.73
68.93283,432.71,486.10
68.95234,432.70,486.94
68.97339,429.97,488.95
68.99382,428.77,487.33
69.01271,432.31,490.33
69.03229,431.61,488.93
69.05303,432.07,489.48
69.07339,432.04,490.61
69.09326,431.12,487.68
69.11243,431.48,487.40
69.13293,428.24,487.44
69.15277,431.05,489.95
69.17307,428.59,488.06
69.19326,428.47,490.04
69.21336,429.12,489.97
69.23296,429.12,487.41
69.25299,427.26,492.10
69.27385,430.28,491.81
69.29398,428.46,489.41
69.31247,430.10,491.06
69.33307,428.62,487.78
69.35335,428.40,488.68
69.37270,427.84,490.43
69.39421,427.89,488.63
69.41288,427.03,488.99
69.43386,426.81,486.54
69.45355,428.95,487.09
69.47254,428.56,489.87
69.49344,429.38,488.51
69.51439,427.06,488.47
69.53420,431.02,488.10
69.55357,428.50,489.21
69.57526,431.68,486.19
69.59369,431.77,487.84
69.61534,429.80,490.81
69.63428,430.19,486.88
69.65432,428.97,487.14
69.67558,428.95,488.51
69.69442,429.03,487.94
69.71520,427.32,487.76
69.73570,430.29,484.35
69.75584,430.84,486.47
69.77452,427.73,483.64
69.79506,429.37,485.64
69.81530,427.49,484.63
69.83589,427.76,483.05
69.85471,430.45,483.29
69.87542,428.91,484.64
69.89417,431.73,483.32
69.91477,432.50,484.23
69.93515,432.45,482.37
69.95592,431.86,484.40
69.97554,432.18,483.70
69.99438,429.63,483.57
70.01485,430.88,483.98
70.03424,429.15,484.41
70.05506,427.86,483.16
70.07485,427.67,485.25
70.09706,429.98,483.14
70.11579,425.84,475.84
70.13652,425.16,463.10
70.15631,423.57,447.13
70.17610,420.60,434.57
70.19667,416.11,421.97
70.21602,415.23,412.41
70.23639,413.68,403.17
70.25685,411.50,397.57
70.27544,412.01,392.74
70.29675,413.52,389.02
70.31677,411.93,384.56
70.33582,416.05,386.38
70.35598,416.13,384.56
70.37686,417.28,390.56
70.39698,419.85,394.30
70.41605,422.19,398.94
70.43611,423.89,406.35
70.45671,424.28,411.75
70.47523,426.63,417.04
70.49714,427.52,425.37
70.51608,429.69,429.53
70.53641,431.09,437.35
70.55669,430.69,444.46
70.57719,434.96,449.06
70.59655,433.88,455.43
70.61707,434.72,457.81
70.63637,434.37,464.31
70.65660,434.88,464.69
70.67597,435.76,469.77
70.69601,436.44,476.03
70.71549,438.40,486.05
70.73624,440.01,509.44
70.75636,440.56,535.38
70.77612,442.51,562.33
70.79551,443.12,589.90
70.81694,443.31,613.16
70.83625,441.40,626.59
70.85566,442.67,630.20
70.87545,445.24,627.93
70.89515,445.06,622.47
70.91528,445.15,612.16
70.93633,447.58,597.08
70.95638,442.65,583.21
70.97709,441.24,566.64
70.99668,440.02,554.53
71.01582,440.76,545.87
71.03651,438.50,534.75
71.05657,438.95,525.62
71.07690,440.09,522.22
71.09661,437.89,516.29
71.11543,436.79,511.83
71.13700,437.43,505.40
71.15579,438.09,502.38
71.17679,435.35,499.86
71.19534,433.77,494.66
71.21522,434.40,493.68
71.23689,434.83,491.87
71.25672,432.58,489.74
71.27606,434.11,488.50
71.29730,433.69,485.08
71.31714,434.14,482.74
71.33571,436.51,483.07
71.35695,434.98,482.28
71.37675,434.76,480.69
71.39609,431.51,480.64
71.41531,431.51,478.52
71.43710,432.10,480.25
71.45557,431.21,478.77
71.47709,433.83,480.72
71.49603,433.97,480.89
71.51526,431.38,483.12
71.53584,431.56,482.43
71.55702,431.88,482.76
71.57703,434.79,483.69
71.59626,433.16,485.56
71.61666,433.99,484.88
71.63654,433.50,483.95
71.65613,432.56,485.33
71.67551,431.24,483.80
71.69545,430.89,486.53
71.71626,432.06,486.08
71.73641,432.70,484.22
71.75614,433.13,486.45
71.77564,431.57,487.54
71.79606,432.16,485.26
71.81537,432.32,484.92
71.83638,431.21,487.19
71.85617,434.45,488.50
71.87676,433.70,489.43
71.89641,432.59,489.31
71.91522,433.73,488.26
71.93707,435.05,489.37
71.95566,433.36,485.46
71.97622,431.65,487.80
71.99543,432.66,487.73
72.01663,431.99,488.74
72.03527,436.03,487.66
72.05528,436.14,490.15
72.07640,436.50,487.12
72.09572,435.70,488.16
72.11721,434.40,487.16
72.13705,433.82,489.72
72.15606,434.65,489.85
72.17591,435.33,488.98
72.19609,434.69,487.71
72.21714,434.28,486.78
72.23615,433.58,487.19
72.25581,436.56,485.60
72.27581,433.62,486.37
72.29596,435.37,486.93
72.31686,433.94,484.94
72.33534,435.31,485.32
72.35694,436.44,484.93
72.37680,437.91,487.07
72.39567,437.01,487.44
72.41550,438.63,486.80
72.43537,433.76,488.73
72.45538,433.21,485.76
72.47639,432.47,488.49
72.49528,432.78,487.22
72.51564,436.11,487.21
72.53525,435.40,487.89
72.55696,434.02,486.10
72.57627,434.73,486.17
72.59558,433.73,488.71
72.61539,431.53,487.64
72.63707,434.18,487.47
72.65663,432.98,486.84
72.67657,435.88,488.74
72.69615,433.25,486.40
72.71565,436.63,487.85
72.73547,436.50,488.32
72.75677,437.02,490.10
72.77589,435.20,489.50
72.79594,433.88,488.07
72.81670,434.79,487.61
72.83539,434.45,489.14
72.85651,436.39,488.73
72.87666,436.64,488.61
72.89611,435.55,488.75
72.91661,436.88,485.64
72.93547,434.74,486.60
72.95580,436.40,484.89
72.97662,436.28,487.35
72.99663,434.61,490.82
73.01625,435.93,490.21
73.03668,436.31,481.78
73.05514,433.78,461.64
73.07695,434.25,443.37
73.09738,435.07,433.42
73.11921,435.84,431.44
73.13763,433.09,427.20
73.15729,433.10,428.87
73.17787,434.14,432.34
73.19745,433.93,437.60
73.21881,437.54,446.20
73.23799,435.57,449.83
73.25771,439.85,454.58
73.27728,439.11,460.27
73.29838,439.91,464.90
73.31819,441.26,471.50
73.33774,440.53,472.96
73.35891,441.42,471.94
73.37882,439.63,472.62
73.39751,441.13,476.48
73.41862,438.78,480.42
73.43822,435.90,479.68
73.45735,437.21,483.41
73.47792,437.48,483.62
73.49738,438.89,487.04
73.51740,440.87,486.82
73.53962,440.85,486.38
73.55994,440.72,491.13
73.57931,444.12,491.79
73.59919,441.79,491.45
73.61971,443.86,492.94
73.63840,441.29,494.11
73.65975,442.69,495.32
73.67959,442.81,497.68
73.69988,441.35,498.19
73.71950,441.61,499.93
73.73811,442.91,496.80
73.75978,444.34,496.77
73.77978,443.31,495.45
73.79996,443.88,498.03
73.81953,446.21,497.45
73.83960,448.50,496.71
73.85912,447.60,496.49
73.87925,448.12,495.06
73.89936,445.05,498.24
73.92067,448.67,498.79
73.93971,446.77,495.97
73.95938,447.37,496.25
73.98050,447.49,495.55
74.00054,447.40,496.17
74.02080,445.78,496.79
74.04144,447.68,499.41
74.06184,450.26,495.47
74.08083,450.00,497.89
74.10067,449.00,496.15
74.12073,450.52,496.50
74.14019,446.11,496.50
74.16167,447.62,497.84
74.18166,446.93,501.02
74.20173,448.85,501.91
74.22131,446.74,505.02
74.24197,449.00,505.10
74.26173,447.23,503.89
74.28124,447.52,501.58
74.30133,449.44,503.59
74.32207,449.32,500.43
74.34229,447.81,498.66
74.36122,449.42,499.15
74.38039,447.09,499.27
74.40188,447.02,497.72
74.42190,449.39,496.57
74.44081,447.82,496.34
74.46205,446.70,497.34
74.48027,449.03,492.65
74.50056,448.48,491.78
74.52095,444.41,493.65
74.54045,447.19,493.49
74.56097,443.64,492.86
74.58124,445.89,492.83
