Program Time [s],data 0,data 1
4.73967,507.87,568.76
4.76056,511.39,568.16
4.78032,510.18,571.65
4.79911,512.79,569.63
4.81907,510.68,570.77
4.84159,512.28,567.63
4.86188,512.09,567.37
4.88098,510.08,568.76
4.90044,511.01,564.22
4.92065,510.30,566.23
4.94054,512.12,565.58
4.96115,510.70,563.32
4.98072,508.19,563.32
5.00234,506.94,562.73
5.02177,504.52,564.73
5.04178,503.35,567.23
5.06320,504.95,567.15
5.08328,503.40,568.12
5.10373,504.06,565.70
5.12177,500.75,564.82
5.14341,500.46,562.13
5.16179,500.60,562.04
5.18280,502.34,560.96
5.20297,503.98,563.03
5.22364,505.63,560.89
5.24304,501.67,554.96
5.26278,500.94,555.06
5.28316,501.61,550.77
5.30362,498.44,547.49
5.32427,498.62,548.71
5.34337,497.22,547.51
5.36468,496.53,547.28
5.38381,498.17,549.10
5.40358,500.50,549.76
5.42445,496.23,549.99
5.44346,496.23,551.42
5.46302,492.44,552.69
5.48397,494.96,556.31
5.50423,493.40,554.84
5.52451,492.30,557.95
5.54476,494.69,558.15
5.56298,495.36,556.94
5.58459,497.57,557.18
5.60308,499.85,553.43
5.62290,499.93,556.41
5.64342,500.72,553.32
5.66302,499.62,553.12
5.68462,500.35,552.28
5.70455,500.15,552.49
5.72299,503.03,551.68
5.74318,501.46,551.93
5.76305,500.62,552.60
5.78283,499.95,553.34
5.80340,497.11,554.78
5.82452,496.66,554.64
5.84451,497.35,556.92
5.86299,497.20,557.67
5.88473,496.34,558.23
5.90431,494.80,562.59
5.92340,497.90,563.33
5.94361,498.39,566.42
5.96481,499.46,570.13
5.98365,501.64,568.33
6.00408,503.27,569.95
6.02301,502.31,565.79
6.04373,506.81,567.44
6.06365,503.85,565.82
6.08298,505.25,560.21
6.10473,507.26,560.46
6.12429,506.01,555.88
6.14461,508.43,557.43
6.16280,504.55,571.14
6.18290,502.64,582.77
6.20366,498.50,597.24
6.22312,498.68,599.74
6.24332,497.41,599.03
6.26317,496.94,597.59
6.28453,495.96,591.99
6.30390,494.10,588.75
6.32328,493.63,584.26
6.34345,495.43,576.77
6.36307,494.65,572.29
6.38478,494.77,570.86
6.40488,495.97,567.59
6.42486,496.31,565.02
6.44319,497.60,561.53
6.46397,499.31,559.45
6.48481,498.47,557.66
6.50373,499.93,558.77
6.52460,501.40,558.11
6.54332,499.78,557.22
6.56288,501.62,558.47
6.58400,501.24,557.40
6.60305,502.68,559.03
6.62271,503.99,557.97
6.64327,502.77,558.14
6.66385,504.20,557.12
6.68345,502.93,554.52
6.70390,502.29,554.16
6.72390,505.60,555.11
6.74346,502.80,553.06
6.76366,503.62,552.43
6.78420,504.06,552.22
6.80477,504.15,552.21
6.82507,503.92,553.25
6.84524,502.50,552.54
6.86479,501.18,549.93
6.88505,500.76,539.37
6.90384,501.79,520.17
6.92486,502.42,502.79
6.94509,499.93,479.27
6.96431,499.36,462.91
6.98482,497.09,452.57
7.00418,497.17,445.34
7.02550,498.91,440.87
7.04398,496.48,439.44
7.06546,495.44,446.11
7.08578,493.29,451.96
7.10465,496.72,461.96
7.12516,496.65,468.79
7.14539,494.70,476.37
7.16480,496.10,485.15
7.18374,494.99,493.78
7.20516,499.44,500.94
7.22500,496.79,506.62
7.24543,498.29,514.47
7.26514,500.47,519.48
7.28632,500.83,526.33
7.30532,498.69,532.70
7.32518,499.84,537.18
7.34604,502.51,539.70
7.36486,501.50,544.01
7.38631,502.12,544.32
7.40511,503.38,549.13
7.42648,504.03,548.89
7.44608,500.24,553.03
7.46584,500.65,553.02
7.48629,500.57,558.09
7.50583,501.65,558.71
7.52625,504.15,557.82
7.54504,499.87,558.84
7.56576,503.28,559.85
7.58666,502.73,562.48
7.60535,501.56,562.49
7.62657,501.01,559.36
7.64492,502.00,557.78
7.66508,501.12,558.72
7.68633,504.15,558.41
7.70607,500.53,559.89
7.72665,501.56,555.89
7.74599,501.00,567.34
7.76479,504.69,590.03
7.78560,509.08,628.96
7.80620,510.72,674.46
7.82489,515.12,705.82
7.84562,514.78,725.14
7.86626,514.39,726.12
7.88616,510.03,719.96
7.90572,507.52,703.50
7.92537,508.05,687.11
7.94680,505.23,667.79
7.96621,502.82,652.23
7.98556,503.86,638.35
8.00558,504.53,625.48
8.02548,502.79,615.79
8.04684,501.43,607.85
8.06565,501.76,598.97
8.08504,500.27,594.67
8.10569,504.34,587.35
8.12610,500.66,586.02
8.14524,503.60,580.94
8.16573,502.49,579.53
8.18558,503.14,578.85
8.20650,500.11,572.31
8.22703,503.74,572.33
8.24701,502.43,573.62
8.26620,505.49,571.63
8.28617,503.29,568.74
8.30639,505.57,567.76
8.32711,505.42,571.16
8.34755,506.97,572.47
8.36766,504.04,571.45
8.38655,505.12,571.30
8.40688,504.85,570.17
8.42570,505.33,569.11
8.44690,504.37,568.10
8.46758,504.72,568.29
8.48694,505.40,570.69
8.50720,504.49,567.88
8.52636,506.34,571.51
8.54651,508.40,569.67
8.56735,507.28,569.40
8.58738,505.09,569.69
8.60741,504.52,567.85
8.62586,504.92,571.06
8.64764,505.32,567.02
8.66650,506.72,567.25
8.68720,506.74,568.29
8.70717,505.51,565.94
8.72678,506.51,565.28
8.74594,503.89,566.11
8.76719,504.71,562.83
8.78695,507.76,565.21
8.80685,506.95,563.71
8.82597,505.12,563.89
8.84703,504.34,563.60
8.86667,502.99,557.55
8.88636,504.93,545.24
8.90578,500.00,523.62
8.92650,500.68,503.33
8.94623,498.23,481.65
8.96611,490.97,461.27
8.98765,489.29,446.80
9.00702,488.97,440.41
9.02667,489.79,438.27
9.04697,489.75,437.07
9.06761,489.57,441.41
9.08588,493.78,450.12
9.10772,495.27,458.16
9.12717,495.53,471.20
9.14746,495.95,479.89
9.16765,496.97,488.07
9.18744,499.60,498.53
9.20754,499.07,505.73
9.22646,500.83,514.01
9.24686,502.54,521.23
9.26739,504.60,530.15
9.28595,502.50,535.47
9.30650,503.49,539.94
9.32705,503.87,543.10
9.34641,503.23,548.38
9.36579,503.94,553.40
9.38660,503.83,554.88
9.40701,503.12,555.98
9.42711,505.30,559.68
9.44581,504.88,559.26
9.46719,502.44,561.65
9.48663,503.34,561.62
9.50638,504.14,563.82
9.52640,503.85,564.55
9.54698,505.58,564.68
9.56663,507.59,563.74
9.58696,504.85,565.48
9.60697,508.14,565.51
9.62752,511.42,572.12
9.64727,509.32,574.14
9.66872,511.93,577.90
9.68721,510.41,579.62
9.70772,511.90,578.58
9.72812,513.08,576.10
9.74691,513.86,576.17
9.76926,512.60,578.13
9.78988,509.87,584.14
9.80923,515.08,610.49
9.83013,517.33,645.01
9.84885,521.23,673.47
9.86982,524.02,701.27
9.88884,524.85,722.35
9.91036,524.10,726.09
9.92950,524.86,721.24
9.94877,522.87,704.90
9.96966,522.45,689.72
9.98910,519.93,675.42
10.00941,519.61,661.34
10.03011,516.32,645.44
10.04985,517.21,633.90
10.07059,514.87,624.12
10.08962,515.92,618.02
10.10965,513.42,609.62
10.12877,511.91,604.45
10.14947,511.36,597.28
10.16925,510.36,596.18
10.18987,509.30,588.15
10.20897,508.53,587.22
10.22871,511.27,582.21
10.24918,509.23,581.85
10.27050,508.18,579.47
10.28968,510.11,577.86
10.30895,508.90,576.49
10.32975,505.92,574.36
10.34896,508.14,573.96
10.37027,506.59,573.12
10.38968,503.43,573.34
10.41036,505.83,573.15
10.42981,507.63,570.97
10.45046,506.23,570.66
10.46880,505.46,571.70
10.48882,504.52,569.36
10.50995,503.81,567.35
10.52903,502.35,567.56
10.55032,502.93,567.05
10.56969,504.02,569.54
10.58908,503.41,570.01
10.61014,502.03,566.69
10.63021,503.06,566.29
10.65020,503.53,566.41
10.66998,501.89,568.63
10.69034,503.99,565.29
10.70995,505.72,565.28
10.72871,505.87,566.35
10.75033,504.74,564.47
10.77012,506.74,565.34
10.78941,505.48,570.04
10.80908,507.03,572.49
10.83008,506.09,564.41
10.84977,507.43,554.87
10.87026,501.80,537.12
10.88954,500.99,519.73
10.90960,499.86,506.27
10.92977,498.04,489.46
10.95021,495.11,475.95
10.97032,495.17,465.23
10.99026,493.54,455.49
11.01004,493.44,447.15
11.03019,492.53,446.98
11.05017,494.81,445.49
11.06929,495.28,448.85
11.08927,496.51,455.48
11.10959,496.21,460.17
11.12852,498.93,467.91
11.15004,498.50,473.10
11.16993,497.62,482.79
11.18963,497.30,491.04
11.21001,498.94,499.46
11.22903,499.62,509.66
11.25029,502.88,515.77
11.27060,498.78,524.05
11.28884,502.74,528.33
11.30945,500.47,531.79
11.33004,499.28,538.30
11.34897,502.96,540.64
11.36955,502.25,544.39
11.39060,503.64,548.17
11.40880,500.92,549.91
11.42891,501.60,554.45
11.44964,501.35,552.28
11.46998,502.11,555.27
11.48895,503.67,557.14
11.50896,501.89,558.76
11.52906,502.98,561.41
11.54948,504.02,560.68
11.57011,503.90,559.42
11.59059,503.70,561.35
11.60942,505.66,560.76
11.62924,504.42,561.49
11.65008,506.57,560.68
11.66930,505.94,564.45
11.69047,507.09,563.46
11.70943,503.82,563.70
11.73054,503.00,562.93
11.75060,505.00,565.87
11.77003,505.04,564.77
11.79043,502.42,565.80
11.80939,504.26,565.60
11.82987,505.16,563.64
11.84912,505.28,584.34
11.86970,505.50,609.93
11.89011,511.78,645.98
11.91030,513.44,681.62
11.92899,511.61,714.25
11.94913,512.99,735.51
11.96982,510.69,748.22
11.99043,510.06,745.64
12.01059,508.87,728.51
12.03164,508.86,708.46
12.04991,507.94,688.90
12.07082,508.85,670.42
12.08989,507.14,654.75
12.11090,502.49,640.63
12.13239,504.65,625.83
12.15128,503.74,614.71
12.17260,503.11,604.35
12.19180,501.65,599.96
12.21234,500.64,592.74
12.23189,499.03,585.22
12.25290,503.04,581.67
12.27229,502.33,578.14
12.29296,502.09,576.39
12.31335,501.42,571.46
12.33220,500.11,573.52
12.35178,503.06,571.37
12.37271,501.96,568.46
12.39217,501.16,564.77
12.41327,504.15,563.07
12.43363,504.86,564.67
12.45291,505.86,560.18
12.47301,507.21,560.30
12.49478,507.21,559.55
12.51430,507.09,558.54
12.53453,507.07,556.97
12.55308,505.20,557.43
12.57286,506.54,559.07
12.59382,505.19,555.60
12.61466,503.41,558.06
12.63320,505.42,558.33
12.65333,505.99,557.40
12.67376,502.68,557.58
12.69427,503.91,560.22
12.71403,502.53,559.18
12.73294,504.57,559.90
12.75428,502.81,556.43
12.77264,502.15,559.19
12.79398,501.65,557.69
12.81448,500.07,559.37
12.83404,501.62,559.45
12.85477,501.52,557.53
12.87556,503.06,555.25
12.89489,501.14,551.08
12.91550,500.58,546.44
12.93426,502.06,547.49
12.95436,501.63,546.10
12.97360,500.93,546.15
12.99397,500.72,549.63
13.01377,501.28,553.57
13.03498,500.69,552.38
13.05454,501.21,552.99
13.07375,504.78,554.90
13.09493,504.07,553.51
13.11379,504.55,554.13
13.13517,503.99,555.90
13.15469,504.36,547.29
13.17376,507.11,539.58
13.19559,504.24,526.60
13.21460,501.97,514.60
13.23455,499.30,499.91
13.25403,501.43,487.40
13.27534,495.36,477.07
13.29543,494.75,470.69
13.31392,493.63,463.50
13.33507,492.23,459.97
13.35364,490.27,455.10
13.37537,491.88,457.53
13.39498,489.10,461.52
13.41528,491.56,465.34
13.43525,491.63,467.83
13.45380,496.27,474.77
13.47435,497.40,484.91
13.49518,498.66,490.09
13.51526,501.87,500.13
13.53434,499.80,506.32
13.55400,498.76,511.18
13.57496,502.22,520.05
13.59458,500.00,522.60
13.61458,502.96,530.08
13.63425,503.71,532.02
13.65436,500.20,536.49
13.67476,501.93,538.67
13.69407,501.07,542.16
13.71428,502.30,543.85
13.73383,499.35,545.62
13.75445,500.82,544.89
13.77538,505.10,550.00
13.79462,505.82,550.98
13.81597,508.49,552.24
13.83538,510.56,554.43
13.85630,507.61,554.53
13.87674,508.58,557.64
13.89572,509.85,555.45
13.91457,510.58,558.95
13.93522,508.91,559.77
13.95585,505.37,561.02
13.97659,506.33,560.67
13.99647,504.99,562.23
14.01627,504.43,562.80
14.03713,506.41,562.42
14.05593,506.65,562.41
14.07563,504.94,566.44
14.09748,508.43,567.82
14.11553,507.82,567.44
14.13604,507.20,570.53
14.15742,506.57,567.81
14.17675,506.70,569.44
14.19757,508.00,566.37
14.21716,505.43,564.11
14.23626,507.37,566.63
14.25552,507.95,563.70
14.27580,507.37,563.08
14.29707,509.26,572.27
14.31602,510.53,596.14
14.33828,512.19,630.35
14.35671,512.64,664.34
14.37693,511.63,692.02
14.39657,511.65,707.18
14.41789,512.98,721.68
14.43751,512.57,727.54
14.45675,512.78,719.51
14.47756,516.20,705.24
14.49770,513.96,691.26
14.51869,512.47,674.34
14.53729,510.85,655.09
14.55692,510.11,643.23
14.57743,509.34,629.62
14.59803,507.24,620.90
14.61814,508.49,610.01
14.63847,505.63,604.05
14.65853,505.64,598.77
14.67690,505.91,591.80
14.69690,507.16,589.70
14.71774,509.33,583.56
14.73766,511.27,582.72
14.75668,512.48,577.66
14.77727,512.22,578.06
14.79724,510.39,575.75
14.81647,508.61,572.76
14.83800,508.84,569.01
14.85807,510.27,569.13
14.87790,510.16,569.22
14.89740,512.23,565.19
14.91808,509.33,565.56
14.93820,508.52,567.96
14.95854,509.04,563.62
14.97838,506.27,562.78
14.99864,508.80,565.32
15.01830,508.45,565.45
15.03884,506.49,563.93
15.05945,509.10,562.65
15.07954,506.76,563.64
15.09864,506.96,565.17
15.11842,507.04,562.92
15.13958,507.59,564.79
15.15939,509.63,565.95
15.17916,507.45,562.50
15.19901,505.82,562.51
15.21784,505.97,564.55
15.23912,507.73,563.02
15.25813,506.85,564.91
15.27778,503.67,559.38
15.29795,500.45,551.30
15.31823,493.65,536.93
15.33768,492.55,525.47
15.35833,485.65,513.81
15.37884,486.43,499.22
15.39837,482.66,491.09
15.41891,482.27,479.62
15.43845,483.22,473.03
15.45846,487.94,468.73
15.47847,492.01,461.54
15.49958,494.56,460.16
15.51873,496.26,457.45
15.53932,499.77,459.32
15.55852,505.19,461.08
15.57841,506.37,463.72
15.59858,507.48,468.28
15.61876,509.50,475.54
15.63826,511.18,482.10
15.65765,514.02,486.17
15.67803,510.67,493.00
15.69834,511.46,500.97
15.71928,510.33,509.29
15.73885,510.67,512.88
15.75915,508.71,520.74
15.77887,511.54,525.03
15.79765,509.83,531.62
15.81808,509.49,537.16
15.83948,508.26,537.88
15.85921,508.80,544.91
15.87775,508.38,551.18
15.89878,509.08,554.26
15.91804,507.65,557.96
15.93949,508.82,559.89
15.95890,508.58,564.23
15.97791,507.10,561.83
15.99806,505.11,566.14
16.01781,506.71,564.66
16.03850,507.81,566.90
16.05792,508.27,566.18
16.07930,505.64,564.56
16.09882,508.03,562.80
16.11947,509.95,565.78
16.13802,506.45,563.55
16.15824,507.18,565.16
16.17854,504.21,570.28
16.19873,507.17,571.08
16.21862,506.93,570.42
16.23889,505.85,573.57
16.25919,504.42,572.99
16.27821,506.60,572.45
16.29810,505.51,570.73
16.31892,503.81,569.21
16.33919,505.21,569.63
16.35914,504.77,566.44
16.37929,502.34,567.64
16.39850,505.89,565.55
16.41835,503.48,562.94
16.43839,506.01,560.85
16.45765,504.74,560.60
16.47947,505.33,558.42
16.49789,502.87,556.39
16.51936,503.28,555.53
16.53943,502.54,553.95
16.55769,502.71,556.31
16.57796,503.03,555.84
16.59772,504.55,553.24
16.61922,504.81,555.95
16.63780,504.91,558.29
16.65918,501.51,555.48
16.67793,502.01,554.85
16.69862,503.34,558.81
16.71780,503.52,558.41
16.73896,505.13,560.00
16.75795,503.05,558.89
16.77871,504.18,556.74
16.79890,502.77,569.95
16.81806,505.57,595.81
16.83812,507.87,631.27
16.85914,511.73,670.20
16.87888,509.22,699.51
16.90049,508.06,720.06
16.91952,510.19,720.44
16.94033,508.60,713.39
16.96042,507.95,701.99
16.97862,507.04,682.36
16.99953,505.01,667.86
17.01972,506.19,652.33
17.03857,503.77,641.62
17.05990,505.46,627.62
17.07925,504.36,618.47
17.10020,502.02,607.50
17.11912,503.17,599.55
17.13995,503.43,595.22
17.15876,502.31,584.85
17.17867,502.68,579.64
17.19914,506.46,577.31
17.21868,507.25,570.58
17.23869,507.18,568.12
17.25951,505.98,566.40
17.27973,504.51,564.31
17.29906,504.35,559.73
17.32045,504.60,561.53
17.33937,504.04,557.03
17.36102,500.95,558.86
17.38109,499.85,559.21
17.40143,501.10,557.51
17.41986,501.77,556.91
17.44078,501.07,554.33
17.46143,502.85,552.96
17.48191,499.64,554.27
17.50134,501.00,555.51
17.52079,501.91,553.52
17.54217,501.82,553.60
17.56130,502.79,554.66
17.58152,500.28,559.16
17.60065,500.66,560.46
17.62104,500.81,556.20
17.64153,503.65,543.21
17.66178,501.21,529.42
17.68158,502.30,515.26
17.70254,498.63,502.79
17.72228,498.74,488.29
17.74105,498.83,480.76
17.76142,496.62,470.54
17.78200,497.87,464.09
17.80177,493.58,456.45
17.82114,497.96,452.49
17.84256,495.71,452.35
17.86224,497.35,454.09
17.88038,501.04,453.82
17.90140,499.67,459.88
17.92079,495.72,464.96
17.94191,495.64,469.66
17.96318,497.25,477.40
17.98358,496.88,486.33
18.00302,499.52,495.33
18.02158,496.29,500.68
18.04209,499.56,507.50
18.06308,499.51,512.51
18.08345,498.98,520.45
18.10332,499.98,524.94
18.12223,498.82,529.15
18.14232,499.87,533.83
18.16330,497.94,534.89
18.18262,498.58,538.01
18.20271,498.70,541.16
18.22304,498.21,544.62
18.24286,497.30,545.21
18.26296,498.80,547.17
18.28174,500.28,549.24
18.30249,499.45,551.16
18.32292,500.57,551.91
18.34291,500.74,553.69
18.36250,499.84,552.39
18.38348,500.09,552.49
18.40261,497.54,552.42
18.42311,499.02,554.38
18.44212,502.00,553.39
18.46197,500.51,553.58
18.48337,501.65,555.26
18.50299,501.31,553.86
18.52256,501.32,556.69
18.54269,502.59,558.00
18.56242,501.32,556.67
18.58208,502.75,558.20
18.60179,503.74,555.01
18.62172,501.23,561.44
18.64177,501.46,580.99
18.66324,506.95,615.14
18.68308,506.28,649.43
18.70331,508.10,679.23
18.72278,510.43,707.35
18.74287,510.97,722.86
18.76206,509.82,730.99
18.78201,511.78,732.11
18.80214,511.41,723.36
18.82212,511.25,713.67
18.84218,511.69,694.91
18.86336,509.90,676.70
18.88260,508.65,656.92
18.90218,507.05,641.23
18.92294,504.36,631.23
18.94291,505.84,617.12
18.96349,506.91,606.59
18.98299,502.74,598.62
19.00296,502.53,589.85
19.02173,502.21,583.96
19.04170,502.90,578.74
19.06290,503.64,567.24
19.08334,501.09,563.97
19.10243,500.88,558.26
19.12293,501.48,552.36
19.14200,500.05,548.93
19.16217,502.96,544.98
19.18263,502.13,544.52
19.20166,500.63,542.49
19.22174,500.83,544.42
19.24209,504.02,544.53
19.26261,502.19,543.17
19.28174,502.67,543.80
19.30181,505.50,544.89
19.32207,503.17,547.54
19.34203,505.91,547.88
19.36155,505.54,547.87
19.38270,502.36,549.53
19.40239,501.97,549.77
19.42213,502.46,551.83
19.44215,503.47,551.00
19.46202,501.95,553.09
19.48151,501.19,554.38
19.50271,500.99,554.26
19.52255,500.24,552.74
19.54205,501.17,555.24
19.56346,503.13,555.22
19.58194,505.68,550.87
19.60191,504.54,541.54
19.62248,505.39,528.26
19.64225,508.02,511.23
19.66334,508.00,496.84
19.68352,507.98,486.95
19.70216,510.14,475.95
19.72149,510.43,466.03
19.74261,510.43,459.79
19.76358,508.37,455.03
19.78280,507.16,450.19
19.80208,507.17,451.36
19.82229,506.02,450.07
19.84251,502.61,451.34
19.86341,500.92,455.04
19.88248,501.53,462.25
19.90286,499.43,467.31
19.92284,496.88,470.03
19.94202,498.14,477.90
19.96188,499.30,485.02
19.98178,495.92,492.16
20.00275,497.65,499.68
20.02300,498.01,505.20
20.04216,497.13,513.59
20.06301,500.06,518.05
20.08147,500.35,525.83
20.10304,500.66,532.19
20.12238,501.05,535.87
20.14265,502.38,539.44
20.16318,501.08,545.49
20.18292,500.70,548.56
20.20180,500.88,551.03
20.22381,502.22,555.48
20.24261,502.24,558.27
20.26351,501.22,563.26
20.28413,502.72,564.38
20.30345,502.58,562.74
20.32355,502.34,566.28
20.34433,502.52,565.19
20.36365,503.00,564.10
20.38482,501.68,561.81
20.40512,503.22,563.28
20.42381,505.55,562.33
20.44457,505.94,562.20
20.46540,508.17,564.64
20.48538,505.40,562.83
20.50521,507.21,563.91
20.52424,505.95,565.09
20.54469,508.30,565.06
20.56416,504.54,565.32
20.58410,507.78,565.29
20.60382,505.77,563.98
20.62377,508.36,564.65
20.64390,508.06,579.13
20.66452,506.67,614.06
20.68525,508.77,660.39
20.70348,510.61,703.63
20.72426,515.17,738.59
20.74484,516.55,748.09
20.76427,516.26,754.71
20.78358,514.01,749.98
20.80505,514.59,733.39
20.82356,513.23,717.90
20.84405,508.31,695.27
20.86374,507.75,675.71
20.88409,507.36,656.02
20.90419,507.63,641.67
20.92466,505.50,627.49
20.94549,506.66,613.52
20.96455,503.90,603.75
20.98431,508.01,597.36
21.00341,507.02,589.60
21.02364,504.66,586.99
21.04371,503.16,582.21
21.06517,508.05,577.77
21.08541,506.45,573.90
21.10381,508.10,569.03
21.12482,508.36,566.81
21.14369,511.76,566.58
21.16438,508.03,566.95
21.18364,508.35,566.29
21.20499,509.63,564.25
21.22363,507.11,564.99
21.24423,507.30,563.25
21.26450,509.68,562.76
21.28542,507.13,566.33
21.30334,506.75,566.38
21.32434,506.79,566.89
21.34472,507.27,565.77
21.36500,510.23,567.38
21.38393,507.88,564.71
21.40357,507.40,567.33
21.42405,505.79,566.51
21.44547,504.44,565.52
21.46402,507.17,568.78
21.48504,506.31,567.93
21.50419,506.19,563.21
21.52555,505.42,563.92
21.54481,504.14,561.85
21.56511,507.11,560.77
21.58503,504.23,561.64
21.60485,505.41,564.92
21.62379,502.75,567.39
21.64423,503.58,563.28
21.66478,503.43,556.94
21.68557,507.63,543.15
21.70383,507.35,526.87
21.72388,506.55,510.84
21.74393,502.91,493.66
21.76366,501.06,482.10
21.78439,499.62,468.64
21.80404,499.58,462.50
21.82465,496.16,457.01
21.84373,497.34,451.77
21.86513,496.28,453.19
21.88402,495.94,453.91
21.90476,498.60,455.25
21.92522,500.55,461.70
21.94429,499.62,468.35
21.96443,500.81,473.11
21.98358,498.75,481.02
22.00501,501.21,488.72
22.02461,501.48,496.51
22.04427,502.86,503.81
22.06548,503.47,512.34
22.08452,503.94,516.64
22.10444,503.78,522.02
22.12491,506.29,525.95
22.14515,504.80,534.32
22.16503,505.99,536.16
22.18429,507.98,539.95
22.20449,505.30,545.39
22.22383,505.29,547.28
22.24446,504.20,549.03
22.26476,508.49,551.10
22.28429,505.90,549.62
22.30408,506.58,550.60
22.32449,504.85,555.46
22.34486,507.60,557.20
22.36476,507.14,555.91
22.38466,505.07,559.54
22.40416,505.31,559.20
22.42323,506.06,561.84
22.44366,505.07,562.48
22.46419,505.45,563.42
22.48413,503.18,567.21
22.50429,503.07,565.45
22.52505,504.54,568.76
22.54498,504.70,568.09
22.56342,504.02,565.79
22.58371,505.34,566.17
22.60429,504.96,564.58
22.62537,503.36,567.19
22.64501,504.66,565.68
22.66422,503.36,563.95
22.68406,501.29,561.21
22.70485,500.82,583.01
22.72433,504.23,614.72
22.74482,503.75,650.01
22.76343,503.40,683.44
22.78420,506.75,707.04
22.80527,507.92,726.85
22.82423,508.64,733.06
22.84538,506.87,728.54
22.86537,509.56,715.38
22.88354,509.19,698.47
22.90421,506.29,679.78
22.92463,505.48,666.18
22.94397,506.17,650.26
22.96595,505.37,634.50
22.98614,505.88,623.20
23.00602,502.13,611.21
23.02490,500.84,603.56
23.04474,502.68,596.68
23.06504,502.31,591.15
23.08453,501.04,587.04
23.10555,502.40,583.05
23.12560,505.69,576.35
23.14595,504.03,577.23
23.16570,502.15,570.57
23.18665,501.24,570.12
23.20675,501.93,568.20
23.22538,502.59,563.59
23.24717,500.38,565.74
23.26652,502.32,560.95
23.28797,503.81,562.55
23.30655,502.96,560.01
23.32726,500.77,557.83
23.34780,502.80,559.99
23.36754,501.54,561.14
23.38760,502.50,556.01
23.40642,498.55,558.19
23.42675,501.29,556.00
23.44757,499.02,557.86
23.46786,498.45,556.71
23.48743,499.62,560.81
23.50841,498.25,557.74
23.52719,499.11,558.34
23.54675,500.67,557.51
23.56782,499.79,554.49
23.58830,497.12,557.66
23.60718,498.36,557.56
23.62719,501.72,556.56
23.64721,498.19,555.06
23.66790,497.49,548.35
23.68793,497.21,540.47
23.70805,496.39,526.86
23.72663,493.51,509.38
23.74765,492.63,493.10
23.76789,491.65,481.76
23.78817,493.25,467.22
23.80796,490.76,456.47
23.82689,488.46,450.07
23.84700,492.87,444.79
23.86683,493.96,442.14
23.88658,495.92,443.26
23.90820,497.95,445.56
23.92707,500.36,451.66
23.94660,499.99,461.08
23.96736,502.58,469.49
23.98780,502.25,477.01
24.00700,500.34,483.73
24.02793,499.38,495.58
24.04770,500.97,501.76
24.06783,501.50,510.75
24.08751,501.56,514.20
24.10825,499.37,522.54
24.12829,503.88,524.89
24.14648,501.82,531.18
24.16797,505.66,535.06
24.18671,502.88,539.63
24.20653,506.39,540.87
24.22755,504.03,545.33
24.24827,503.94,546.02
24.26758,502.80,547.90
24.28751,506.09,549.68
24.30645,503.76,550.66
24.32788,505.75,552.45
24.34660,504.11,553.07
24.36770,501.28,556.10
24.38755,499.49,556.99
24.40795,501.97,556.56
24.42644,502.71,555.25
24.44825,501.33,553.58
24.46788,502.17,553.47
24.48636,502.18,556.24
24.50732,501.14,554.21
24.52744,501.59,558.73
24.54715,499.17,557.73
24.56640,500.06,558.50
24.58743,502.92,557.66
24.60799,501.60,556.48
24.62737,499.53,559.20
24.64665,501.01,556.17
24.66640,501.60,556.75
24.68691,503.34,558.85
24.70754,503.68,557.24
24.72804,504.73,575.93
24.74734,507.28,612.40
24.76791,508.13,654.75
24.78754,509.15,691.46
24.80918,512.61,719.37
24.82861,511.24,734.83
24.84790,514.30,736.66
24.86919,512.31,723.67
24.88773,510.58,705.75
24.90924,511.92,688.78
24.92740,510.91,670.23
24.94751,507.77,654.02
24.96729,507.35,639.25
24.98830,506.57,630.04
25.00835,507.60,618.64
25.02801,507.18,605.30
25.04793,503.69,600.36
25.06895,503.96,592.06
25.08791,503.16,584.63
25.10892,502.74,581.78
25.12859,504.02,580.03
25.14838,501.14,574.64
25.16865,501.20,571.47
25.18759,501.51,567.02
25.20832,503.29,564.22
25.22827,501.51,565.83
25.24906,499.59,562.65
25.26805,502.31,562.25
25.28823,503.23,562.34
25.30731,501.28,564.03
25.32811,502.56,560.35
25.34918,501.72,559.59
25.36742,501.44,559.95
25.38738,500.00,558.98
25.40963,502.49,561.21
25.42841,500.91,559.05
25.44914,504.56,558.38
25.47013,505.91,559.87
25.48989,506.07,559.57
25.50831,507.49,560.57
25.53008,503.66,559.03
25.54964,504.47,560.95
25.56965,504.75,563.16
25.58844,504.74,562.07
25.60843,505.30,562.03
25.62852,505.58,562.16
25.64998,505.59,560.65
25.66989,505.17,558.85
25.68962,506.89,560.62
25.70974,504.03,560.63
25.73000,505.03,559.26
25.74858,502.98,564.65
25.76983,506.05,563.07
25.78933,501.22,556.86
25.80823,502.29,545.27
25.82841,497.71,531.61
25.84895,496.31,513.82
25.86840,489.82,501.78
25.88980,489.90,489.52
25.90884,492.73,476.68
25.92867,491.78,469.41
25.95013,493.31,466.22
25.96846,494.40,459.83
25.98960,495.03,458.45
26.00821,496.61,457.18
26.02950,497.20,457.64
26.04906,501.48,460.36
26.07022,501.41,465.36
26.08948,505.79,474.60
26.11009,506.70,479.42
26.12934,505.65,487.08
26.14982,508.46,494.01
26.16996,507.36,501.15
26.18894,505.75,510.43
26.20939,508.04,514.03
26.22897,507.33,519.84
26.24933,505.97,527.18
26.26860,508.97,531.57
26.28987,510.04,533.93
26.30864,510.71,535.27
26.32985,511.83,538.89
26.34896,511.11,545.09
26.37017,510.56,547.62
26.39006,509.81,548.93
26.40838,507.65,550.28
26.42952,509.94,553.49
26.44901,510.59,556.12
26.46850,509.85,554.41
26.48946,510.12,555.60
26.50884,507.71,558.83
26.52935,504.87,556.65
26.54875,503.27,560.67
26.56917,505.50,558.65
26.58905,502.05,558.73
26.60960,502.79,561.29
26.62970,501.55,561.51
26.64906,501.30,560.81
26.66903,503.21,559.69
26.68934,505.45,560.21
26.70858,505.29,559.48
26.72876,506.00,561.42
26.75021,505.79,557.92
26.76955,504.74,557.45
26.78936,504.63,554.78
26.80833,503.71,574.77
26.82833,507.80,606.58
26.84862,511.23,646.16
26.86984,509.89,677.11
26.88832,514.61,706.12
26.90872,513.32,717.61
26.92983,515.22,724.26
26.94890,517.87,716.83
26.96877,517.18,705.53
26.98814,515.12,688.70
27.00983,515.23,674.75
27.02980,512.89,654.16
27.05009,511.59,642.80
27.06915,512.12,627.51
27.08999,508.32,618.34
27.10923,508.94,612.23
27.12837,508.01,603.71
27.15004,506.41,595.92
27.16986,505.57,591.64
27.18858,503.29,585.90
27.20977,504.26,579.88
27.22874,504.50,576.10
27.25009,504.10,572.49
27.26917,505.12,569.36
27.28953,506.64,565.97
27.30888,504.03,568.99
27.32891,503.88,572.04
27.34977,505.32,578.52
27.36921,503.21,583.12
27.38893,503.33,585.29
27.41010,501.42,583.30
27.42899,500.99,583.23
27.44859,502.68,580.45
27.46971,500.65,578.96
27.48989,503.66,577.68
27.50867,503.90,573.21
27.52890,503.88,574.25
27.54884,505.74,571.99
27.56868,502.26,570.87
27.59021,503.47,567.14
27.60838,503.41,570.43
27.62912,505.45,569.26
27.64989,503.09,566.84
27.66904,503.68,563.65
27.68833,503.56,561.78
27.70872,501.92,561.32
27.73025,505.03,558.59
27.74856,503.71,562.67
27.76928,501.06,566.68
27.78954,504.13,571.82
27.80836,506.38,580.18
27.82860,504.16,581.06
27.84962,507.65,578.02
27.86916,509.20,572.43
27.88831,508.03,562.58
27.90882,503.95,552.95
27.93001,502.14,539.16
27.94940,500.69,522.05
27.96976,501.93,506.47
27.98854,498.82,489.23
28.00918,499.11,473.16
28.02896,502.10,462.06
28.05011,500.95,454.93
28.06994,499.21,452.16
28.08997,498.29,448.76
28.10959,501.66,452.94
28.12916,500.60,456.34
28.14971,500.14,460.72
28.16829,500.01,469.22
28.19004,500.28,476.25
28.20989,500.10,482.72
28.23104,500.22,491.79
28.25083,500.72,499.20
28.26968,500.91,503.76
28.28975,505.25,510.58
28.31078,503.68,516.72
28.32940,505.57,520.71
28.34947,506.36,527.35
28.37058,505.58,530.53
28.39004,508.18,537.96
28.40987,506.32,541.80
28.43118,505.09,542.24
28.45061,504.10,546.30
28.46912,503.89,548.78
28.49030,507.49,552.35
28.50985,505.99,553.32
28.53073,504.35,555.42
28.55061,504.34,557.96
28.57118,506.46,562.12
28.59081,505.73,560.57
28.61120,503.62,561.31
28.63027,505.57,564.66
28.65013,507.93,562.46
28.67054,506.94,562.40
28.68946,504.74,564.59
28.70995,507.67,561.88
28.73052,504.13,561.25
28.75057,507.05,560.59
28.77053,504.41,563.74
28.78966,506.39,560.62
28.81013,505.23,579.36
28.83015,505.67,609.64
28.85034,505.41,641.56
28.87027,506.82,680.38
28.89107,506.91,707.22
28.90985,506.64,724.48
28.92990,508.91,726.56
28.95020,509.28,723.83
28.97096,509.39,716.69
28.99027,509.26,700.80
29.01101,511.06,683.88
29.02943,507.46,668.19
29.05042,507.16,651.55
29.06988,506.72,638.31
29.09125,508.83,629.51
29.11105,507.27,615.64
29.12931,506.92,609.32
29.14952,504.97,600.25
29.17100,505.58,593.40
29.19076,507.51,589.59
29.21087,508.06,582.79
29.22973,508.95,578.60
29.25016,507.86,575.55
29.27091,507.13,571.78
29.28995,505.80,567.94
29.31083,504.99,564.32
29.33034,508.54,561.83
29.35051,508.04,561.86
29.36984,508.75,558.77
29.38990,508.08,558.80
29.40973,512.04,557.25
29.43115,508.79,558.50
29.45049,508.70,559.45
29.47066,510.56,558.81
29.49072,509.59,557.40
29.51003,507.27,558.90
29.52996,505.62,558.56
29.54920,505.39,559.43
29.57043,506.95,560.52
29.59070,504.14,558.36
29.61095,505.82,561.01
29.63079,505.58,558.27
29.64968,504.67,562.04
29.67110,503.45,561.50
29.68954,504.23,559.97
29.71125,505.22,561.85
29.73013,506.91,558.90
29.74946,507.54,558.20
29.77039,506.18,561.02
29.79091,503.46,562.25
29.81027,504.21,560.35
29.82969,507.14,557.00
29.84975,504.29,548.78
29.87013,507.79,531.44
29.88949,505.34,516.61
29.91034,505.89,499.25
29.93092,507.74,487.42
29.95031,504.64,476.30
29.97059,504.12,466.84
29.99083,504.87,460.05
30.00963,501.53,456.34
30.03087,498.78,455.72
30.04958,499.55,459.08
30.07082,498.62,463.61
30.08973,500.19,472.18
30.11059,499.42,478.41
30.13102,500.89,485.55
30.15107,501.41,493.43
30.17096,500.46,497.84
30.18995,498.39,499.58
30.21109,500.32,502.03
30.23057,501.67,507.98
30.25071,503.80,512.85
30.26964,502.14,514.01
30.29118,505.07,520.16
30.31021,502.13,524.80
30.33101,505.04,528.17
30.35071,501.67,531.79
30.36977,502.65,535.40
30.39048,501.14,538.35
30.40971,501.31,541.03
30.43009,502.60,544.08
30.45028,501.16,545.11
30.47005,504.49,549.14
30.49010,504.88,548.91
30.51012,504.67,549.59
30.52996,504.36,551.31
30.54983,502.69,551.86
30.57080,504.67,554.01
30.58961,502.49,553.04
30.61111,501.50,552.60
30.62938,501.56,553.86
30.64991,502.60,554.95
30.67098,503.38,556.04
30.69017,503.68,554.76
30.71123,501.74,557.43
30.72944,501.15,557.47
30.75000,502.43,567.17
30.76944,502.94,593.62
30.78967,498.21,635.74
30.81026,496.08,675.28
30.83033,496.91,713.16
30.85082,498.60,735.18
30.87002,498.77,748.73
30.89063,503.59,749.30
30.90938,505.56,745.90
30.92975,506.98,729.42
30.95006,506.71,710.69
30.97107,505.13,688.82
30.98978,503.89,672.45
31.00971,501.53,654.13
31.02947,505.77,640.56
31.05046,507.45,623.91
31.07092,511.27,611.60
31.08901,508.15,599.39
31.10977,508.19,590.71
31.13109,508.89,585.14
31.15020,509.67,578.69
31.17086,508.54,571.79
31.19027,508.59,569.67
31.21061,506.71,565.13
31.23019,509.17,563.49
31.25098,506.59,560.34
31.27117,505.58,561.92
31.29033,506.38,559.35
31.31012,504.12,558.77
31.32927,505.18,553.91
31.35035,504.44,551.76
31.36961,503.69,550.56
31.38993,504.51,552.17
31.40937,506.49,550.24
31.42989,503.93,552.77
31.45080,503.41,552.42
31.47090,500.59,552.97
31.49066,501.90,554.34
31.50987,501.42,552.93
31.53105,500.35,554.93
31.54995,500.57,557.33
31.56956,500.94,557.74
31.58996,502.29,554.50
31.61024,502.63,554.63
31.63050,499.95,555.40
31.65021,501.15,558.74
31.67097,502.92,560.90
31.68973,498.52,556.76
31.71003,497.59,546.21
31.73074,496.53,529.92
31.75021,492.91,514.95
31.77073,489.73,502.69
31.78937,490.05,491.41
31.80977,488.76,475.96
31.83018,489.56,467.61
31.84939,490.47,454.91
31.87117,489.91,449.00
31.88975,493.43,446.45
31.91035,494.33,444.31
31.92967,497.47,445.81
31.94925,497.48,451.93
31.97078,497.03,455.58
31.99066,498.30,464.98
32.00927,498.74,474.19
32.02952,502.83,482.96
32.04973,502.63,495.29
32.06948,504.15,503.67
32.09090,504.70,510.15
32.11106,504.35,516.56
32.13056,505.78,523.78
32.15018,505.15,528.12
32.17065,505.67,532.01
32.18987,506.01,534.83
32.20986,508.38,537.21
32.23113,506.08,540.72
32.25071,503.91,543.37
32.27061,504.52,542.33
32.29090,503.85,545.80
32.31076,503.79,544.90
32.33080,505.05,546.93
32.35041,505.11,545.59
32.37102,504.87,547.44
32.39111,506.08,547.67
32.40998,502.74,548.79
32.43094,504.81,550.83
32.44953,500.42,550.11
32.47024,501.75,551.50
32.48986,500.59,552.11
32.51017,502.09,554.49
32.52995,503.25,555.50
32.54965,502.84,554.60
32.57043,503.44,555.91
32.59097,502.94,553.92
32.61113,503.13,553.89
32.63005,504.09,555.70
32.65045,502.70,554.07
32.66999,503.53,557.02
32.69034,502.57,556.68
32.70975,503.78,553.02
32.72946,502.36,551.00
32.75042,502.05,564.07
32.77040,503.43,587.33
32.78928,502.03,623.74
32.80983,503.41,663.47
32.82994,505.88,699.09
32.85075,506.93,723.08
32.86962,508.84,737.38
32.89035,511.87,737.54
32.90987,511.81,722.48
32.92970,512.08,703.72
32.94930,513.66,687.42
32.97077,509.92,668.36
32.99156,510.43,651.83
33.01245,511.36,633.09
33.03249,511.23,622.54
33.05355,508.23,610.09
33.07328,506.88,603.29
33.09416,505.38,594.78
33.11319,506.34,591.93
33.13302,504.38,585.74
33.15383,506.34,583.46
33.17355,504.97,576.57
33.19256,504.64,571.28
33.21257,506.20,570.62
33.23388,504.94,567.28
33.25284,504.58,564.77
33.27388,504.43,562.47
33.29257,501.88,559.77
33.31250,500.41,558.60
33.33356,501.33,559.82
33.35386,503.07,559.37
33.37220,501.03,560.93
33.39354,502.04,558.92
33.41242,502.03,559.39
33.43355,504.66,560.51
33.45217,503.17,559.85
33.47342,505.30,558.58
33.49372,503.78,559.82
33.51362,506.78,561.93
33.53393,505.13,562.71
33.55389,503.75,560.31
33.57363,501.63,559.16
33.59335,500.74,559.83
33.61513,503.20,561.69
33.63506,501.67,562.48
33.65338,503.84,563.22
33.67299,501.51,562.82
33.69442,505.36,559.59
33.71440,505.03,563.17
33.73491,502.67,560.73
33.75426,505.66,561.09
33.77483,503.78,560.91
33.79380,503.14,563.55
33.81412,503.62,560.58
33.83493,503.74,560.40
33.85497,505.52,564.77
33.87365,503.93,563.70
33.89426,504.09,563.17
33.91366,504.68,565.02
33.93425,504.45,571.36
33.95376,505.48,566.60
33.97340,503.90,554.35
33.99429,504.66,539.57
34.01424,504.00,522.74
34.03364,501.98,505.27
34.05474,500.13,491.82
34.07403,500.30,475.15
34.09320,499.75,464.84
34.11394,497.67,457.43
34.13461,496.72,452.57
34.15578,500.29,449.07
34.17550,498.08,450.98
34.19514,499.89,451.31
34.21723,500.64,457.76
34.23776,499.03,465.91
34.25718,502.88,471.74
34.27735,500.77,478.47
34.29677,502.63,484.70
34.31715,504.22,496.39
34.33768,505.00,504.71
34.35649,505.24,509.79
34.37728,506.93,519.53
34.39770,507.07,523.40
34.41778,505.34,531.16
34.43801,503.42,536.65
34.45906,505.19,542.44
34.47864,504.17,543.68
34.49812,500.72,548.69
34.51916,501.56,550.33
34.53992,500.98,553.48
34.56148,503.87,554.26
34.58155,499.93,555.46
34.60243,500.07,556.86
34.62142,500.81,558.46
34.64163,497.95,558.35
34.66254,499.69,557.64
34.68209,499.67,560.07
34.70157,500.98,559.72
34.72325,502.14,561.85
34.74178,502.43,560.06
34.76191,501.72,564.00
34.78129,499.75,561.12
34.80305,499.31,560.89
34.82302,500.68,559.34
34.84235,501.08,560.92
34.86241,500.30,560.32
34.88257,503.12,557.85
34.90298,500.45,557.23
34.92354,502.08,557.52
34.94226,501.41,556.35
34.96427,500.78,553.94
34.98380,500.14,553.58
35.00456,501.46,551.07
35.02410,501.10,550.68
35.04454,500.23,551.64
35.06626,503.48,551.30
35.08689,501.40,549.49
35.10595,502.46,555.53
35.12679,501.67,572.27
35.14681,501.54,601.93
35.16709,504.26,637.67
35.18748,505.73,667.74
35.20779,506.35,693.91
35.22779,509.03,711.70
35.24739,510.80,720.70
35.26637,512.65,728.69
35.28707,514.91,727.32
35.30661,513.43,718.23
35.32793,510.70,701.11
35.34732,508.90,682.96
35.36750,509.12,666.40
35.38738,506.52,649.74
35.40869,505.78,632.97
35.42735,509.68,620.38
35.44889,508.28,610.48
35.46754,508.55,602.05
35.48804,504.22,594.41
35.50806,505.57,589.52
35.52833,505.38,581.84
35.54785,503.92,574.11
35.56828,504.30,571.87
35.58779,503.16,568.92
35.60755,504.73,564.30
35.62719,503.35,563.17
35.64709,500.90,557.96
35.66847,502.84,560.15
35.68814,500.36,557.69
35.70901,502.65,556.16
35.72777,501.22,556.29
35.74880,503.24,557.58
35.76804,498.85,554.83
35.78789,500.62,555.12
35.80909,499.52,554.45
35.82796,499.55,555.66
35.84773,499.69,556.43
35.86755,501.19,556.27
35.88693,501.26,556.06
35.90761,499.54,555.09
35.92881,500.78,555.18
35.94764,505.04,558.92
35.96889,501.73,558.70
35.98844,506.87,559.64
36.00926,503.73,556.58
36.02843,503.30,557.91
36.04831,505.65,560.22
36.06956,504.54,559.89
36.08795,505.32,558.28
36.10817,504.30,559.88
36.12904,506.03,556.04
36.14813,503.34,557.60
36.16823,505.25,558.65
36.18952,506.49,557.18
36.20835,504.55,557.52
36.22868,503.98,558.01
36.24839,504.25,557.69
36.26862,505.45,558.25
36.28958,507.24,564.02
36.31010,503.88,571.74
36.32988,506.43,578.48
36.34947,504.56,584.87
36.36916,503.67,585.11
36.39015,503.56,580.45
36.40976,500.31,569.76
36.42963,499.68,550.11
36.45035,496.08,528.69
36.46954,498.19,505.22
36.49092,491.73,484.68
36.50972,492.68,462.42
36.53046,492.62,449.12
36.55010,492.85,439.64
36.57060,492.25,436.36
36.58942,495.65,437.22
36.60938,493.48,440.18
36.63071,495.44,445.00
36.64894,495.97,453.16
36.67061,498.90,464.74
36.68980,498.13,473.87
36.71022,502.33,484.46
36.73055,503.83,494.09
36.75033,501.75,502.57
36.77131,503.31,510.22
36.79022,505.60,520.19
36.80991,504.31,522.86
36.83050,505.77,530.71
36.85134,504.97,535.57
36.87020,509.92,539.35
36.89199,509.10,541.02
36.91190,508.28,544.46
36.93252,509.38,547.75
36.95420,508.09,550.15
36.97423,507.16,549.54
36.99423,510.11,553.09
37.01395,509.12,552.27
37.03400,507.84,554.92
37.05386,505.69,554.48
37.07366,507.06,557.76
37.09307,502.94,559.92
37.11293,506.54,560.61
37.13452,505.08,561.00
37.15385,505.18,562.21
37.17318,505.04,561.63
37.19386,504.16,559.30
37.21405,503.17,561.14
37.23419,504.26,561.35
37.25431,507.03,559.90
37.27485,503.33,559.82
37.29350,504.32,556.47
37.31469,503.77,556.57
37.33474,503.75,554.53
37.35458,501.80,553.93
37.37423,500.74,569.25
37.39498,501.37,607.84
37.41325,504.05,646.10
37.43322,501.27,679.21
37.45402,505.72,705.12
37.47362,504.95,724.23
37.49343,507.34,724.98
37.51341,509.67,723.58
37.53304,508.68,705.88
37.55429,511.21,691.14
37.57304,508.37,675.08
37.59369,509.89,657.59
37.61373,508.10,640.49
37.63383,507.46,629.89
37.65397,505.13,619.02
37.67375,506.42,609.95
37.69325,504.50,600.16
37.71498,505.53,594.20
37.73465,504.54,587.88
37.75320,504.53,585.79
37.77341,503.44,577.92
37.79310,503.69,575.56
37.81430,503.73,574.26
37.83480,504.49,569.82
37.85396,503.95,569.54
37.87316,503.87,566.68
37.89336,502.77,564.27
37.91399,502.37,561.24
37.93429,500.73,561.10
37.95283,500.56,561.02
37.97364,501.48,558.74
37.99494,502.30,559.83
38.01497,503.53,558.98
38.03362,500.81,559.29
38.05468,501.84,561.16
38.07464,499.62,559.83
38.09372,503.60,558.03
38.11381,500.01,559.86
38.13482,501.23,560.44
38.15354,500.87,558.59
38.17308,500.39,559.41
38.19483,500.10,559.51
38.21410,501.24,556.14
38.23371,498.77,558.25
38.25354,497.52,557.85
38.27426,501.25,557.19
38.29526,502.02,556.17
38.31443,499.60,550.57
38.33505,499.46,535.97
38.35472,498.00,518.58
38.37421,495.70,504.52
38.39404,494.66,491.01
38.41452,493.36,477.10
38.43549,494.13,466.03
38.45546,492.76,454.91
38.47445,491.66,447.69
38.49521,491.50,442.86
38.51535,492.39,438.08
38.53420,490.62,442.64
38.55490,493.48,443.65
38.57569,492.60,453.58
38.59563,496.67,458.69
38.61427,494.52,470.08
38.63492,493.03,478.77
38.65669,494.84,487.52
38.67572,496.87,497.08
38.69645,497.00,504.41
38.71660,499.54,512.48
38.73830,497.83,518.33
38.75799,499.23,523.38
38.77762,500.28,528.65
38.79803,500.69,532.32
38.81876,503.21,537.66
38.83985,504.41,541.31
38.85824,502.22,542.35
38.87938,504.99,544.92
38.89943,503.47,548.95
38.91972,503.32,549.25
38.93818,502.56,554.17
38.95834,504.51,554.20
38.97913,505.04,554.45
38.99988,504.51,556.06
39.02036,502.44,555.49
39.04188,504.29,556.55
39.06136,500.69,559.17
39.08262,504.63,559.12
39.10141,501.29,557.90
39.12192,504.67,561.58
39.14142,501.28,564.98
39.16239,503.83,563.89
39.18110,502.28,566.41
39.20304,499.96,566.20
39.22224,501.14,565.27
39.24339,503.69,565.94
39.26288,503.08,564.09
39.28339,502.09,562.37
39.30293,502.90,560.75
39.32387,503.85,562.31
39.34302,503.49,561.35
39.36417,504.85,559.65
39.38401,502.89,557.25
39.40407,507.08,554.60
39.42453,505.22,556.08
39.44356,504.28,557.06
39.46341,503.84,552.94
39.48282,503.34,556.35
39.50461,504.12,555.45
39.52410,501.23,553.16
39.54378,502.87,555.50
39.56407,503.83,573.86
39.58494,504.13,608.79
39.60639,509.32,642.69
39.62592,511.93,681.19
39.64592,514.13,704.95
39.66650,513.20,724.46
39.68579,515.62,728.54
39.70704,512.87,720.41
39.72727,511.90,705.19
39.74929,509.27,689.78
39.76993,508.73,671.92
39.79043,507.84,655.96
39.81084,506.21,642.51
39.83021,503.76,629.80
39.85144,502.36,615.04
39.87032,502.92,607.63
39.89113,500.39,596.51
39.91074,500.93,593.42
39.93108,500.56,585.92
39.95070,500.39,581.48
39.97060,502.57,574.67
39.99172,501.79,572.99
40.01162,501.47,567.88
40.03101,498.28,568.27
40.05109,497.33,566.01
40.07389,499.07,563.00
40.09456,499.94,561.62
40.11335,499.24,560.78
40.13426,498.36,562.46
40.15366,499.39,562.70
40.17518,499.83,566.30
40.19584,495.37,566.86
40.21566,496.16,564.91
40.23546,495.31,564.72
40.25450,497.29,563.86
40.27587,495.30,562.09
40.29600,495.36,558.49
40.31540,493.27,559.17
40.33501,492.59,556.53
40.35502,496.67,558.96
40.37479,494.83,555.92
40.39458,494.85,555.54
40.41531,497.08,556.55
40.43557,500.68,555.28
40.45569,502.03,556.28
40.47435,503.66,557.39
40.49429,504.08,555.72
40.51458,500.40,556.02
40.53482,501.82,554.61
40.55512,501.04,557.02
40.57598,504.30,554.70
40.59507,505.23,557.87
40.61405,503.51,561.33
40.63547,504.53,564.01
40.65584,502.00,561.53
40.67622,505.03,547.34
40.69648,503.41,530.52
40.71651,501.30,508.05
40.73644,505.12,485.69
40.75610,501.52,466.92
40.77651,499.58,457.10
40.79477,497.40,446.12
40.81668,499.91,442.00
40.83583,499.13,439.43
40.85670,499.88,437.81
40.87483,498.94,445.02
40.89512,498.86,448.84
40.91531,498.38,457.85
40.93627,499.16,464.93
40.95715,498.59,478.32
40.97766,501.84,484.97
40.99732,500.94,497.66
41.01826,499.79,506.26
41.03784,502.67,512.24
41.05848,503.76,519.78
41.07869,505.46,526.13
41.09827,504.42,530.95
41.11901,504.11,533.59
41.14114,503.32,539.24
41.16162,502.67,540.05
41.18202,505.24,542.33
41.20124,504.31,544.88
41.22078,504.10,549.34
41.24146,501.06,552.36
41.26220,502.28,552.87
41.28195,502.96,554.60
41.30189,502.34,557.28
41.32218,501.62,559.02
41.34241,501.88,559.71
41.36240,505.40,560.97
41.38191,503.19,562.06
41.40193,506.15,563.14
41.42344,506.85,563.34
41.44453,504.84,564.12
41.46489,504.44,563.54
41.48552,503.29,561.99
41.50531,504.10,560.62
41.52408,504.14,560.45
41.54511,501.31,561.47
41.56493,500.72,559.38
41.58497,502.26,560.39
41.60544,499.97,559.81
41.62590,501.36,562.85
41.64528,499.69,562.12
41.66584,500.59,561.05
41.68583,500.20,561.79
41.70637,504.02,561.37
41.72656,503.36,561.41
41.74491,502.74,560.45
41.76662,502.19,558.90
41.78710,499.32,557.24
41.80874,500.65,558.40
41.83047,500.48,558.13
41.85146,496.48,560.57
41.87166,499.14,586.31
41.89149,502.36,631.84
41.91153,504.74,691.60
41.93243,511.81,746.08
41.95205,515.78,780.45
41.97129,517.13,797.03
41.99251,519.12,795.65
42.01208,517.41,788.86
42.03165,516.87,767.58
42.05316,516.84,742.87
42.07244,515.95,714.68
42.09242,511.77,685.19
42.11305,507.91,658.91
42.13340,504.68,632.22
42.15278,505.21,609.38
42.17237,502.20,590.86
42.19194,497.94,575.68
42.21218,498.14,559.96
42.23271,499.53,554.92
42.25201,498.67,546.56
42.27246,497.53,540.87
42.29233,497.69,537.88
42.31346,498.09,539.10
42.33188,498.52,536.12
42.35268,497.52,539.35
42.37207,497.22,537.00
42.39267,495.98,534.58
42.41332,499.77,534.10
42.43353,495.65,539.26
42.45295,498.55,538.78
42.47272,497.26,539.63
42.49334,498.77,542.51
42.51203,497.56,545.05
42.53256,498.04,546.07
42.55361,499.97,546.69
42.57238,500.13,547.65
42.59216,499.30,549.56
42.61196,500.16,552.75
42.63206,498.76,553.50
42.65368,501.52,553.36
42.67245,501.69,554.83
42.69298,498.15,556.79
42.71320,498.82,558.49
42.73284,498.48,557.69
42.75213,500.80,558.20
42.77210,499.96,555.75
42.79294,497.69,556.92
42.81244,499.07,558.45
42.83314,498.98,555.21
42.85233,502.90,557.77
42.87211,502.86,559.49
42.89331,504.31,556.72
42.91294,505.85,560.33
42.93189,507.25,559.77
42.95357,503.25,561.35
42.97183,504.84,556.25
42.99246,505.46,542.39
43.01340,501.04,532.29
43.03373,498.08,514.96
43.05341,496.56,500.41
43.07372,493.31,486.69
43.09204,494.69,471.63
43.11213,493.92,463.61
43.13324,492.72,458.33
43.15211,492.33,455.56
43.17353,492.19,454.45
43.19285,490.37,453.61
43.21357,490.73,460.52
43.23255,493.78,463.52
43.25242,493.62,470.99
43.27298,495.77,478.57
43.29331,496.95,486.88
43.31215,501.25,498.18
43.33345,500.66,505.28
43.35241,502.78,512.57
43.37286,502.83,519.81
43.39250,503.95,524.97
43.41356,502.39,531.99
43.43242,503.29,537.29
43.45383,504.75,536.28
43.47442,506.52,537.87
43.49327,508.72,539.68
43.51421,508.48,541.32
43.53407,510.18,544.32
43.55474,508.34,546.29
43.57509,507.64,549.20
43.59551,509.83,550.92
43.61537,508.36,552.01
43.63520,509.68,551.79
43.65623,507.84,554.71
43.67787,505.58,557.90
43.69688,506.40,559.03
43.71768,506.91,559.63
43.73732,506.54,556.82
43.75624,506.60,559.82
43.77686,506.64,559.55
43.79641,506.95,560.14
43.81666,507.30,562.77
43.83699,505.44,561.73
43.85727,504.40,559.10
43.87815,505.16,561.89
43.89843,504.60,561.84
43.91696,505.49,562.22
43.93774,505.06,558.93
43.95864,501.45,561.82
43.97788,501.89,570.94
43.99803,502.37,598.44
44.01712,501.28,627.16
44.03679,501.33,657.74
44.05735,503.18,682.11
44.07835,501.55,704.40
44.09872,504.53,716.99
44.11796,506.06,723.24
44.13701,508.41,724.09
44.15766,511.42,713.99
44.17724,511.46,699.75
44.19813,511.25,684.54
44.21905,508.93,666.91
44.23807,509.62,650.68
44.26056,504.98,631.90
44.28067,502.81,620.85
44.30113,504.19,611.52
44.32195,501.66,602.21
44.34321,501.36,590.25
44.36293,503.76,584.72
44.38374,500.37,577.43
44.40382,504.67,571.35
44.42463,501.80,569.44
44.44393,503.21,566.36
44.46395,504.07,560.62
44.48444,502.19,560.05
44.50510,503.68,559.25
44.52502,500.15,559.44
44.54579,501.73,554.69
44.56634,500.61,554.80
44.58724,501.79,552.03
44.60778,503.66,552.76
44.62729,499.47,553.35
44.64731,498.23,552.80
44.66857,499.76,553.46
44.68706,501.38,553.27
44.70747,501.83,555.55
44.72700,499.45,555.21
44.74845,499.75,554.37
44.76725,499.02,556.86
44.78725,497.45,554.54
44.80860,497.46,555.83
44.82785,496.79,554.28
44.84699,500.05,555.33
44.86798,498.09,556.43
44.88716,498.11,554.76
44.90694,497.01,554.12
44.92781,498.59,554.02
44.94809,501.30,556.87
44.96685,499.01,555.37
44.98726,498.87,557.73
45.00693,501.40,558.98
45.02808,500.64,557.85
45.04682,502.18,561.13
45.06745,503.10,557.92
45.08745,504.86,560.92
45.10902,502.68,555.20
45.12969,503.62,546.93
45.14956,506.56,531.87
45.16899,504.61,517.77
45.18935,506.27,499.59
45.20940,505.37,483.22
45.22820,502.00,467.94
45.24926,501.66,455.67
45.26914,497.97,447.11
45.28864,496.91,442.57
45.30899,496.50,438.62
45.32771,492.92,441.89
45.34978,492.40,446.80
45.36977,496.48,451.14
45.39005,496.75,463.18
45.41037,495.45,470.05
45.43058,497.10,480.46
45.45038,499.17,490.06
45.46939,497.15,500.75
45.49073,497.82,507.10
45.51023,496.64,513.95
45.52936,495.39,522.23
45.54909,496.49,528.82
45.56972,499.16,533.19
45.59035,503.28,538.70
45.60913,503.00,546.22
45.62986,503.90,547.10
45.65163,506.18,551.36
45.67079,505.43,554.46
45.69251,504.43,557.11
45.71252,505.63,557.49
45.73253,503.48,559.84
45.75222,505.29,557.43
45.77214,507.26,561.80
45.79254,506.77,560.59
45.81143,504.92,562.03
45.83259,505.39,561.30
45.85116,508.74,561.73
45.87278,505.37,563.77
45.89088,505.95,565.62
45.91153,506.52,565.74
45.93234,502.50,565.00
45.95223,504.40,565.79
45.97302,502.01,563.75
45.99245,503.90,564.04
46.01286,502.38,563.17
46.03192,502.15,565.75
46.05205,500.14,565.09
46.07358,499.89,566.10
46.09253,497.90,568.12
46.11294,499.58,566.34
46.13186,501.61,566.08
46.15316,499.88,562.09
46.17361,502.78,564.79
46.19463,502.94,562.31
46.21387,501.94,562.36
46.23525,498.89,566.82
46.25557,501.25,587.97
46.27592,503.28,622.14
46.29556,507.20,660.67
46.31662,508.55,693.50
46.33583,509.97,719.08
46.35611,511.56,735.49
46.37508,510.61,741.30
46.39581,512.13,737.57
46.41662,510.81,728.86
46.43512,510.37,709.28
46.45586,506.66,693.91
46.47491,507.42,675.57
46.49602,505.76,661.59
46.51648,504.78,646.37
46.53531,501.49,630.51
46.55544,500.72,620.29
46.57636,500.55,610.77
46.59748,502.10,601.19
46.61784,502.04,592.91
46.63823,500.17,586.16
46.65801,498.98,580.21
46.67918,501.15,572.87
46.69872,500.48,569.77
46.71942,497.34,566.50
46.74152,499.29,566.39
46.76154,499.78,562.01
46.78041,500.78,562.91
46.80008,498.83,565.78
46.82149,501.29,563.86
46.84046,498.08,561.59
46.86073,497.58,563.05
46.88065,498.35,562.31
46.90017,498.19,564.15
46.92122,496.98,563.68
46.94091,498.63,563.63
46.96147,497.10,563.69
46.98033,500.81,562.37
47.00051,501.05,562.65
47.02066,498.95,562.69
47.04144,500.57,560.11
47.06015,500.33,562.21
47.08016,501.75,561.61
47.10090,502.05,562.68
47.12019,500.87,562.84
47.13985,498.25,565.02
47.16138,496.79,553.47
47.18188,497.62,535.45
47.20142,493.11,511.04
47.22096,494.09,490.39
47.24016,491.59,472.56
47.26081,492.77,455.19
47.28043,490.98,444.06
47.30075,487.45,437.75
47.32103,487.36,435.07
47.34055,484.42,438.84
47.36013,489.43,441.37
47.38099,488.92,447.13
47.40013,492.53,454.11
47.42109,494.32,462.82
47.44069,495.81,475.19
47.45997,493.20,481.61
47.48146,495.39,489.54
47.50008,498.36,499.09
47.52141,496.49,505.28
47.54149,495.87,513.76
47.55969,495.39,519.13
47.57968,496.23,524.24
47.60115,499.09,529.81
47.62017,501.87,533.02
47.64053,501.01,538.06
47.66096,499.73,540.10
47.68146,499.40,541.43
47.70153,501.18,542.74
47.72140,500.07,547.76
47.73961,497.71,548.19
47.75990,499.24,553.03
47.78124,499.10,553.67
47.80080,500.77,555.80
47.82052,501.26,556.19
47.84095,502.55,555.58
47.86016,501.92,559.30
47.88068,501.05,559.07
47.90129,499.66,558.40
47.92170,497.49,561.94
47.94036,502.01,560.25
47.96159,501.47,560.78
47.98042,498.36,561.34
48.00103,500.92,561.99
48.02155,500.06,562.18
48.04072,498.14,561.99
48.06142,499.12,562.88
48.08154,499.84,563.80
48.10056,502.02,561.79
48.12051,498.78,563.32
48.14058,497.90,563.83
48.16064,499.16,565.21
48.18124,498.83,563.59
48.20085,499.28,561.94
48.22093,499.48,564.42
48.24069,499.49,566.14
48.26037,501.25,564.38
48.28163,502.70,561.88
48.30030,502.10,562.70
48.32061,503.46,562.13
48.34171,499.72,562.47
48.36235,500.95,564.35
48.38151,501.60,561.87
48.40216,501.69,562.22
48.42077,499.37,563.84
48.44081,499.96,564.31
48.46164,500.97,563.60
48.48136,500.54,563.21
48.50207,500.57,580.77
48.52124,500.32,616.28
48.54267,504.22,654.52
48.56148,505.60,688.88
48.58103,506.93,709.83
48.60201,507.37,718.86
48.62231,507.98,711.94
48.64177,508.29,700.07
48.66296,507.32,687.11
48.68322,506.84,673.81
48.70295,505.33,655.06
48.72332,504.74,642.67
48.74334,505.00,627.74
48.76263,507.04,618.10
48.78295,506.05,610.21
48.80368,506.22,607.18
48.82354,504.39,599.86
48.84404,507.18,597.65
48.86454,506.48,593.54
48.88440,504.55,593.02
48.90467,506.06,594.23
48.92483,503.62,587.49
48.94387,504.88,586.52
48.96543,503.47,583.99
48.98552,500.81,583.36
49.00446,501.36,582.32
49.02452,503.43,579.89
49.04513,501.42,580.61
49.06443,503.64,580.61
49.13164,501.87,579.38
49.13324,502.64,574.64
49.13184,503.03,573.85
49.14474,499.55,575.58
49.16567,500.90,571.75
49.18370,500.76,573.94
49.20516,499.53,574.35
49.22402,499.67,572.62
49.24523,498.30,574.10
49.26397,498.42,573.34
49.28414,502.35,571.25
49.30482,499.06,569.50
49.32436,503.26,569.67
49.34550,502.98,569.17
49.36440,503.11,570.67
49.38522,502.20,570.26
49.40533,502.46,569.11
49.42383,503.92,569.05
49.44445,502.14,565.58
49.46563,503.34,567.06
49.48485,505.38,567.41
49.50740,500.91,567.52
49.52694,502.51,566.78
49.54730,502.93,564.92
49.56654,499.93,562.07
49.58758,501.95,563.25
49.60720,500.11,565.08
49.62707,502.16,565.08
49.64693,502.15,562.96
49.66682,499.30,561.78
49.68617,501.12,564.70
49.70751,498.01,568.06
49.72732,500.08,566.97
49.74733,503.01,565.43
49.76759,497.94,551.77
49.78869,496.36,535.32
49.81044,492.87,514.67
49.82900,490.15,496.18
49.84926,489.38,478.60
49.86995,487.50,466.60
49.88936,487.38,456.71
49.90969,492.98,450.83
49.92915,492.51,451.28
49.94901,495.24,454.49
49.96912,492.98,457.86
49.98990,496.84,464.86
50.00995,497.58,470.85
50.02881,497.93,477.69
50.05046,499.54,489.16
50.06992,499.68,495.76
50.08993,499.33,504.12
50.11058,497.88,509.03
50.13040,499.78,513.97
50.15002,500.99,522.22
50.16877,499.58,530.05
50.18875,500.97,534.70
50.21075,504.59,537.40
50.22946,504.36,538.87
50.24895,501.84,542.17
50.26929,500.72,545.40
50.28902,500.73,548.72
50.30944,499.33,550.86
50.33025,498.20,554.58
50.34879,499.80,553.44
50.37048,497.89,555.45
50.39047,497.90,558.03
50.40928,496.76,557.30
50.42981,498.05,557.29
50.45098,497.77,559.39
50.47065,498.71,560.71
50.49047,499.58,562.99
50.51140,499.54,568.53
50.53140,498.18,566.66
50.54982,496.82,569.31
50.57154,497.95,567.04
50.59053,498.22,569.12
50.61097,499.68,567.31
50.63249,500.36,567.39
50.65285,502.07,568.44
50.67229,501.99,566.17
50.69171,499.69,566.61
50.71217,500.67,566.11
50.73207,500.89,562.94
50.75322,499.39,562.44
50.77427,500.18,562.04
50.79456,501.42,563.00
50.81389,501.80,564.44
50.83501,498.47,562.59
50.85523,497.32,564.39
50.87649,499.04,560.84
50.89719,501.90,562.88
50.91755,502.62,568.16
50.93680,503.87,589.28
50.95709,503.12,618.64
50.97764,504.07,648.51
50.99724,509.36,678.92
51.01761,506.82,687.42
51.03836,506.89,685.45
51.05826,507.70,677.17
51.07841,508.69,666.79
51.09721,509.17,655.67
51.11759,508.20,641.95
51.13761,506.86,636.82
51.15693,506.96,638.41
51.17706,510.27,639.32
51.19653,512.49,638.00
51.21788,512.87,631.75
51.23917,511.40,626.49
51.25803,510.87,617.44
51.27908,508.90,608.84
51.29838,508.11,603.16
51.31819,510.63,598.93
51.33810,509.71,591.63
51.35794,508.81,589.76
51.37771,506.43,585.26
51.39808,506.50,584.72
51.41968,507.85,581.13
51.43999,508.78,580.52
51.46084,505.48,576.39
51.48255,506.35,576.30
51.50200,505.45,571.83
51.52172,506.16,571.78
51.54350,505.58,571.57
51.56317,506.37,567.72
51.58328,506.51,567.65
51.60259,505.15,568.18
51.62188,503.52,565.67
51.64332,502.56,563.65
51.66327,504.79,565.92
51.68279,502.82,563.97
51.70198,505.47,563.23
51.72299,502.89,563.57
51.74185,501.79,565.14
51.76289,499.61,565.29
51.78277,499.04,569.67
51.80409,499.56,570.09
51.82532,500.86,567.52
51.84488,502.30,569.66
51.86452,503.85,567.68
51.88538,500.13,564.34
51.90516,502.16,566.14
51.92390,502.68,565.83
51.94377,500.43,564.66
51.96512,498.86,563.14
51.98523,500.84,562.94
52.00530,501.04,560.92
52.02474,496.82,558.19
52.04510,499.31,559.32
52.06457,497.76,558.90
52.08511,496.79,558.56
52.10492,498.30,557.26
52.12513,500.37,557.30
52.14457,498.34,560.72
52.16433,502.34,546.91
52.18389,498.55,527.83
52.20493,500.79,517.36
52.22479,498.77,508.23
52.24451,499.43,506.40
52.26403,501.95,508.55
52.28402,501.74,508.91
52.30519,500.85,515.77
52.32537,500.20,519.12
52.34415,503.68,522.29
52.36457,499.77,529.11
52.38516,499.91,534.13
52.40762,499.67,536.07
52.42726,497.81,540.02
52.44731,498.90,541.43
52.46730,497.89,545.22
52.48762,498.28,548.51
52.50865,500.72,549.31
52.52834,502.18,548.35
52.54835,499.28,550.36
52.56765,501.41,552.29
52.58829,502.03,553.38
52.60828,500.76,553.58
52.62772,500.86,555.69
52.64968,501.26,554.99
52.66882,501.67,556.88
52.68804,502.36,554.95
52.70823,499.20,559.04
52.72862,501.35,558.93
52.74788,500.57,561.08
52.76889,500.97,559.86
52.78887,499.44,560.79
52.80892,498.81,563.02
52.82860,499.01,565.52
52.84878,497.93,565.94
52.86808,498.59,566.67
52.88901,502.22,567.35
52.90838,500.95,567.22
52.92829,499.47,568.16
52.94945,500.94,571.93
52.96857,500.59,581.88
52.98870,500.17,602.35
53.00752,500.29,619.37
53.02875,504.46,630.92
53.04937,505.13,633.79
53.06770,502.12,624.90
53.08875,503.24,621.11
53.10911,505.05,612.93
53.12933,502.69,607.22
53.14815,503.60,600.52
53.16830,502.16,595.85
53.18805,503.18,588.76
53.20861,503.80,583.51
53.22901,499.06,575.72
53.24842,500.28,573.86
53.26924,498.94,567.56
53.28858,499.82,565.57
53.30932,502.17,565.31
53.32840,496.05,563.68
53.34960,497.83,560.32
53.36831,495.34,559.85
53.38932,494.71,562.55
53.40846,493.79,559.22
53.42824,495.01,560.80
53.44901,496.42,560.88
53.46961,498.36,560.50
53.48943,501.14,548.70
53.50905,505.43,535.13
53.52811,506.86,529.64
53.54860,511.97,529.54
53.57039,510.71,528.03
53.58938,510.64,529.41
53.61036,510.80,530.20
53.62905,505.04,536.10
53.64924,508.59,536.44
53.66984,505.53,540.12
53.68896,504.31,546.59
53.71024,506.02,547.20
53.73038,507.01,552.08
53.74865,507.82,552.37
53.76948,507.11,554.78
53.78990,505.61,555.06
53.80943,507.49,556.86
53.82860,510.38,555.85
53.85014,517.07,550.48
53.86957,526.91,547.89
53.88951,532.67,549.68
53.91049,531.48,543.39
53.93129,522.46,524.20
53.95131,517.11,506.27
53.97309,509.49,485.07
53.99228,500.47,465.42
54.01206,491.37,451.50
54.03365,485.88,441.98
54.05255,482.53,440.47
54.07282,477.45,439.51
54.09336,475.59,446.01
54.11173,475.82,452.49
54.13256,476.61,463.02
54.15246,477.32,473.21
54.17190,478.79,481.90
54.19308,478.51,490.78
54.21231,480.49,500.35
54.23216,485.39,510.53
54.25310,486.11,516.69
54.27265,488.25,522.00
54.29218,487.55,527.57
54.31214,489.16,533.75
54.33368,490.13,537.32
54.35176,492.23,542.52
54.37426,494.36,544.51
54.39433,494.60,548.57
54.41415,496.46,553.44
54.43338,494.26,556.01
54.45442,494.23,563.55
54.47256,495.93,569.46
54.49448,495.05,572.54
54.51278,494.89,570.57
54.53408,496.80,570.62
54.55373,496.85,572.10
54.57404,496.91,572.23
54.59296,501.42,574.22
54.61389,504.51,580.07
54.63311,506.12,582.95
54.65342,510.11,584.26
54.67291,510.68,588.39
54.69372,512.28,586.70
54.71414,511.20,585.25
54.73305,509.98,583.70
54.75315,511.50,580.85
54.77255,510.89,581.40
54.79284,509.29,577.72
54.81468,505.78,577.41
54.83496,505.95,576.13
54.85523,502.94,574.91
54.87464,504.55,570.46
54.89460,504.45,570.26
54.91358,502.32,569.17
54.93526,501.51,568.87
54.95514,501.76,566.73
54.97533,504.05,567.20
54.99600,500.36,564.48
55.01736,497.59,564.98
55.03705,496.84,561.40
55.05577,496.62,559.12
55.07599,495.95,556.53
55.09715,494.49,567.46
55.11905,494.84,590.53
55.13876,494.07,622.36
55.15935,495.22,660.43
55.17911,498.01,693.37
55.19886,500.50,704.53
55.21950,499.32,706.18
55.23880,499.55,697.55
55.25864,501.13,684.69
55.28031,501.09,671.40
55.29960,500.40,655.92
55.31919,502.19,644.43
55.34022,500.69,633.93
55.35975,499.13,621.04
55.38125,500.68,610.91
55.40243,503.24,605.50
55.42074,502.71,596.80
55.44217,499.47,590.30
55.46269,500.03,585.12
55.48208,500.63,584.47
55.50292,501.79,582.09
55.52143,499.32,575.86
55.54214,500.52,577.80
55.56153,495.94,573.65
55.58222,496.00,570.28
55.60248,495.65,569.05
55.62287,494.79,567.36
55.64190,497.01,567.49
55.66233,498.70,566.57
55.68236,496.67,565.78
55.70292,496.00,564.41
55.72316,496.59,564.54
55.74255,496.53,564.54
55.76266,495.52,561.27
55.78287,497.71,560.77
55.80397,498.20,563.58
55.82321,496.18,561.88
55.84301,498.87,560.36
55.86451,498.78,563.35
55.88541,497.75,563.15
55.90508,497.90,564.52
55.92613,497.45,562.95
55.94641,501.04,561.52
55.96702,501.01,559.00
55.98722,500.95,560.73
56.00808,499.58,562.59
56.02824,502.37,562.96
56.04841,503.24,562.69
56.06829,501.67,560.96
56.09004,501.05,562.18
56.10880,500.89,561.94
56.12963,502.47,563.08
56.15063,501.49,560.40
56.17336,501.61,562.33
56.19204,501.33,559.07
56.21234,500.56,560.46
56.23346,503.36,557.83
56.25170,503.64,558.17
56.27230,501.32,560.07
56.29338,502.69,557.96
56.31253,500.34,560.48
56.33247,503.43,561.20
56.35296,502.73,560.74
56.37242,503.31,560.95
56.39260,501.80,560.12
56.41173,501.71,557.67
56.43185,502.94,560.54
56.45335,501.18,561.70
56.47159,501.58,559.87
56.49263,501.55,548.79
56.51169,495.23,530.22
56.53248,492.69,507.86
56.55259,490.20,490.38
56.57281,485.69,474.04
56.59189,486.40,458.08
56.61232,486.81,448.35
56.63259,488.08,439.23
56.65320,489.38,440.10
56.67232,492.96,439.41
56.69289,491.04,445.25
56.71242,492.43,453.36
56.73255,493.18,462.71
56.75328,497.48,471.60
56.77430,496.99,480.30
56.79487,496.71,489.99
56.81526,497.31,494.06
56.83458,498.43,501.73
56.85434,500.66,511.93
56.87521,502.69,519.63
56.89483,501.42,527.75
56.91504,501.87,532.58
56.93502,503.51,539.16
56.95640,504.26,542.63
56.97671,508.86,547.09
56.99632,510.95,549.31
57.01680,509.37,550.88
57.03772,512.12,548.84
57.05763,511.51,552.19
57.07841,512.07,552.75
57.09771,512.10,556.34
57.11842,506.93,553.65
57.13905,508.15,555.26
57.15863,504.84,556.82
57.17841,503.84,559.63
57.19911,504.62,557.50
57.21793,499.79,559.00
57.23895,499.74,559.87
57.25913,500.56,557.58
57.27932,499.16,559.88
57.29776,501.03,559.80
57.31823,501.32,559.71
57.33896,500.09,559.18
57.35822,500.07,560.57
57.37984,497.74,561.55
57.39868,497.56,561.81
57.41929,496.49,560.78
57.43895,496.89,560.21
57.45960,498.08,559.70
57.47860,494.61,559.28
57.49921,497.45,558.55
57.51922,496.85,559.64
57.54047,495.65,560.30
57.55979,499.86,559.43
57.57989,499.92,559.12
57.59831,498.73,557.89
57.61918,497.56,561.01
57.63992,497.62,560.67
57.65999,496.79,559.02
57.67881,495.59,559.05
57.69893,497.12,556.98
57.71942,496.06,559.40
57.73986,497.96,557.51
57.76040,495.44,557.12
57.77915,495.56,556.50
57.79982,494.59,556.00
57.81862,495.32,554.47
57.84035,495.88,551.16
57.85899,493.20,552.07
57.88001,495.34,550.62
57.89951,496.78,553.23
57.91854,496.31,554.30
57.93969,496.33,553.33
57.95925,497.52,563.39
57.98024,496.01,585.88
57.99895,499.22,619.26
58.01884,501.16,657.72
58.03976,507.64,689.99
58.05990,510.21,705.07
58.07963,508.58,708.15
58.09992,509.84,699.99
58.11994,511.20,688.36
58.13977,509.37,676.03
58.15852,511.27,663.95
58.17974,508.49,647.86
58.19858,508.57,637.28
58.22022,506.14,626.27
58.23966,510.18,617.81
58.25855,509.67,606.08
58.27871,506.83,600.48
58.29894,507.32,597.36
58.31982,507.83,591.33
58.33973,506.15,586.58
58.36029,502.17,582.10
58.37862,503.37,579.93
58.40029,504.54,576.28
58.41953,504.10,574.67
58.43895,502.52,561.75
58.45872,502.44,550.14
58.47860,502.44,542.16
58.49957,502.47,538.31
58.51957,502.13,533.65
58.53959,501.55,534.46
58.55902,503.82,533.32
58.57869,504.16,536.51
58.59990,503.27,541.83
58.61905,501.49,540.48
58.63867,505.57,546.86
58.65940,503.42,545.82
58.67991,505.50,549.20
58.69931,502.41,551.48
58.71946,503.01,557.07
58.73855,505.82,556.95
58.75853,503.30,557.26
58.78022,503.24,559.14
58.80026,506.03,559.56
58.81925,503.72,560.55
58.83980,502.48,559.07
58.85997,502.45,562.10
58.87939,505.54,566.76
58.90017,505.99,570.93
58.91885,505.58,584.95
58.93878,495.42,602.10
58.96041,487.26,621.27
58.98038,478.41,625.35
58.99844,476.86,616.63
59.02003,474.92,607.07
59.04032,475.91,591.95
59.06102,476.17,580.16
59.08039,480.11,568.56
59.09965,484.36,560.32
59.12017,485.42,550.78
59.14207,486.74,545.17
59.16121,489.62,542.44
59.18221,491.08,542.29
59.20237,491.19,539.06
59.22216,494.08,538.92
59.24155,497.74,541.58
59.26124,501.77,540.17
59.28219,504.63,542.78
59.30120,504.99,547.96
59.32141,505.38,546.79
59.34101,505.37,550.61
59.36072,504.39,551.12
59.38060,507.19,550.75
59.40130,504.41,556.03
59.42061,505.69,556.67
59.44146,507.69,558.58
59.46067,506.79,560.90
59.48132,505.70,563.09
59.50181,509.39,561.11
59.52200,516.71,548.41
59.54299,524.17,540.55
59.56158,529.04,535.56
59.58242,529.23,536.64
59.60308,530.72,539.68
59.62149,528.18,541.53
59.64276,527.70,544.34
59.66151,525.83,543.44
59.68417,522.61,543.93
59.70338,519.68,547.48
59.72626,522.33,544.31
59.74540,516.09,546.11
59.76676,518.48,547.05
59.78585,513.48,548.29
59.80726,515.33,550.05
59.82652,514.62,555.31
59.84591,508.54,554.60
59.86636,509.86,560.93
59.88734,508.30,563.86
59.90634,510.62,565.29
59.92617,506.25,565.65
59.94719,502.02,565.74
59.96565,502.99,568.30
59.98683,501.12,568.51
