Program Time [s],data 0,data 1
4.74028,401.84,471.94
4.76068,401.06,473.15
4.78028,403.16,476.23
4.79960,403.93,473.80
4.81922,402.66,476.16
4.84177,404.33,472.84
4.86105,403.66,472.88
4.88057,401.56,470.84
4.89974,403.90,472.67
4.91992,402.07,472.70
4.94050,402.90,471.56
4.96062,399.70,468.41
4.98092,401.58,470.82
5.00222,398.38,471.96
5.02243,398.67,471.35
5.04122,398.36,472.27
5.06203,395.77,470.38
5.08350,398.34,471.08
5.10346,396.99,471.08
5.12303,394.27,472.13
5.14281,395.52,467.80
5.16364,393.89,468.62
5.18288,393.94,468.73
5.20359,395.41,468.47
5.22245,395.29,467.33
5.24358,393.31,462.68
5.26282,393.64,461.00
5.28286,395.35,460.36
5.30420,391.94,457.67
5.32353,394.15,457.33
5.34341,392.50,455.01
5.36333,390.95,457.25
5.38292,391.20,456.21
5.40478,392.97,459.03
5.42320,389.57,458.40
5.44358,389.14,459.57
5.46382,389.61,461.03
5.48426,390.05,464.86
5.50481,388.26,463.23
5.52390,387.23,466.10
5.54452,391.49,465.65
5.56417,389.45,462.82
5.58441,392.93,462.58
5.60463,395.09,463.08
5.62437,395.30,463.35
5.64300,395.26,462.17
5.66329,393.21,459.59
5.68424,393.21,462.20
5.70389,394.87,459.91
5.72453,396.67,457.22
5.74471,394.10,458.18
5.76389,394.21,458.95
5.78451,396.16,459.51
5.80458,394.36,462.82
5.82437,390.87,462.80
5.84308,391.98,464.01
5.86379,392.58,466.70
5.88453,390.34,464.97
5.90437,389.06,468.17
5.92467,391.69,469.37
5.94331,394.54,472.35
5.96324,395.02,474.67
5.98468,393.25,474.47
6.00431,396.19,473.11
6.02453,396.41,470.69
6.04396,397.91,470.76
6.06459,398.86,470.10
6.08320,400.79,468.79
6.10302,399.08,466.63
6.12337,398.87,464.89
6.14382,400.98,464.08
6.16354,396.39,472.77
6.18440,397.61,486.92
6.20435,393.39,497.21
6.22488,391.62,498.77
6.24385,389.78,498.51
6.26420,390.05,497.91
6.28396,388.06,493.86
6.30296,391.28,490.94
6.32345,388.93,485.89
6.34295,389.38,479.40
6.36374,386.63,476.44
6.38371,391.47,473.90
6.40299,389.36,471.51
6.42437,392.92,470.05
6.44330,392.48,468.41
6.46336,394.29,466.92
6.48402,394.01,467.40
6.50350,394.25,464.85
6.52327,393.65,464.02
6.54444,395.12,463.51
6.56403,394.47,463.79
6.58289,395.56,464.73
6.60397,394.18,465.44
6.62390,394.49,463.80
6.64438,397.26,466.38
6.66459,394.35,465.48
6.68397,397.73,462.31
6.70281,397.40,464.64
6.72397,398.32,460.88
6.74311,395.57,462.48
6.76282,396.98,460.22
6.78450,396.77,461.97
6.80316,396.20,460.41
6.82420,395.82,461.63
6.84404,395.58,462.04
6.86392,394.59,459.04
6.88434,395.84,450.04
6.90518,397.50,435.14
6.92482,396.50,420.31
6.94578,392.99,400.77
6.96397,392.50,386.82
6.98412,391.96,375.86
7.00407,392.54,371.51
7.02461,392.47,368.81
7.04491,390.38,367.24
7.06549,389.10,371.81
7.08399,389.49,380.04
7.10397,389.78,386.96
7.12398,390.28,393.50
7.14463,389.72,399.00
7.16483,389.41,405.53
7.18441,389.88,413.51
7.20368,391.77,417.75
7.22544,392.41,422.57
7.24482,393.01,429.64
7.26590,395.12,436.50
7.28633,392.47,440.35
7.30529,391.99,445.39
7.32626,393.04,446.87
7.34581,396.41,451.26
7.36669,396.43,453.19
7.38558,395.00,454.81
7.40586,395.54,456.51
7.42495,396.06,457.22
7.44583,395.57,458.16
7.46599,394.39,460.74
7.48549,394.99,464.93
7.50560,395.19,464.31
7.52609,397.72,466.52
7.54554,394.81,467.37
7.56509,395.56,465.26
7.58517,393.39,467.50
7.60668,396.27,465.21
7.62668,396.32,466.26
7.64633,397.58,466.84
7.66513,396.63,466.22
7.68524,397.40,466.28
7.70668,393.52,466.40
7.72645,395.49,462.84
7.74517,394.22,472.17
7.76498,396.58,490.11
7.78538,399.51,523.10
7.80498,402.49,558.61
7.82595,404.25,583.00
7.84507,404.79,598.35
7.86641,404.46,603.37
7.88601,405.38,598.12
7.90555,400.61,584.68
7.92568,399.36,568.32
7.94498,397.96,553.52
7.96634,397.38,540.73
7.98503,396.26,531.57
8.00672,398.28,523.19
8.02604,394.86,514.86
8.04563,396.88,503.37
8.06500,394.60,498.93
8.08608,397.03,495.36
8.10658,396.43,490.07
8.12619,394.83,488.86
8.14500,394.32,485.19
8.16671,394.29,483.47
8.18620,393.20,480.98
8.20623,394.87,478.03
8.22734,396.38,478.91
8.24743,397.08,475.14
8.26598,396.87,475.77
8.28614,398.60,474.33
8.30572,400.24,474.64
8.32625,399.36,472.44
8.34644,396.80,473.85
8.36728,400.15,476.95
8.38677,398.05,474.58
8.40738,397.14,476.23
8.42752,396.61,474.36
8.44762,397.97,473.12
8.46777,397.74,474.99
8.48771,398.28,471.99
8.50652,397.72,473.70
8.52640,398.34,473.17
8.54673,399.59,476.80
8.56699,398.01,475.49
8.58638,400.61,476.41
8.60558,400.12,474.72
8.62580,400.60,474.67
8.64700,397.11,474.10
8.66680,398.95,472.01
8.68666,400.86,472.04
8.70680,399.26,470.73
8.72772,399.39,473.70
8.74561,397.79,473.62
8.76640,399.37,470.75
8.78612,397.85,468.84
8.80770,397.76,470.10
8.82627,395.90,470.66
8.84677,399.39,469.20
8.86755,395.80,464.68
8.88704,398.58,454.85
8.90632,395.34,437.62
8.92748,394.03,418.74
8.94587,391.86,399.95
8.96693,387.52,384.51
8.98667,384.60,375.36
9.00624,384.43,368.79
9.02651,386.55,365.54
9.04666,387.46,366.32
9.06634,386.88,370.56
9.08642,386.53,375.30
9.10683,388.87,383.99
9.12586,391.05,391.71
9.14589,392.50,401.05
9.16741,391.87,407.98
9.18673,390.78,417.78
9.20605,394.56,423.10
9.22695,393.59,429.53
9.24641,395.83,435.46
9.26684,395.54,440.43
9.28663,398.74,443.95
9.30790,397.70,448.86
9.32605,396.27,452.86
9.34595,398.09,456.93
9.36633,395.11,461.38
9.38744,397.99,463.08
9.40752,399.60,464.70
9.42667,399.16,464.06
9.44685,398.75,466.88
9.46656,399.10,467.38
9.48709,397.35,470.00
9.50767,398.52,469.91
9.52595,399.17,469.26
9.54581,399.30,470.93
9.56688,399.92,470.31
9.58742,397.09,472.54
9.60670,402.69,471.46
9.62628,403.28,474.28
9.64706,403.01,477.73
9.66692,402.53,481.11
9.68704,401.25,481.76
9.70767,403.66,483.59
9.72688,401.90,482.36
9.74818,401.87,482.62
9.76808,404.99,478.12
9.79059,404.88,486.94
9.80924,407.12,507.30
9.82932,406.82,535.96
9.84886,409.14,559.06
9.86901,412.72,582.44
9.88985,415.07,599.28
9.90967,414.72,602.68
9.93053,412.60,594.99
9.94903,413.70,587.05
9.96935,410.06,571.74
9.98966,411.50,559.70
10.01032,410.30,549.28
10.03066,409.73,538.24
10.04928,408.10,526.14
10.06889,406.25,518.72
10.08883,409.24,514.27
10.10932,403.90,506.35
10.13056,405.78,502.76
10.14997,403.22,500.17
10.16960,404.04,493.34
10.18926,401.66,490.70
10.20929,401.82,487.86
10.23000,400.75,486.69
10.25051,400.79,483.86
10.26895,402.17,481.55
10.29007,403.25,482.68
10.30972,399.77,481.14
10.33017,398.78,478.05
10.34904,400.59,476.68
10.36885,400.60,478.29
10.38864,398.69,477.66
10.40893,397.58,478.33
10.42952,398.68,475.39
10.44872,400.36,474.63
10.46972,398.93,474.76
10.48968,399.36,473.26
10.50991,397.35,471.95
10.52863,396.00,472.19
10.54870,394.77,472.21
10.56968,394.86,473.07
10.58912,395.69,473.07
10.60998,395.18,474.87
10.62895,394.16,473.65
10.65023,397.16,472.64
10.66981,398.65,473.08
10.68995,395.38,472.08
10.71059,396.97,472.35
10.73015,396.39,471.26
10.74896,398.36,470.26
10.76908,399.68,473.23
10.78998,398.64,474.35
10.80874,401.10,475.63
10.82963,399.83,470.33
10.85006,400.73,462.26
10.87049,395.02,447.49
10.88987,396.60,434.74
10.90968,393.84,420.63
10.92949,390.86,407.39
10.94861,391.01,399.83
10.97035,387.90,388.13
10.98896,388.08,380.29
11.00937,387.37,373.57
11.02901,386.88,371.48
11.04911,389.37,373.98
11.06963,390.54,377.20
11.08921,388.12,378.91
11.10998,392.94,385.37
11.12907,392.04,389.91
11.15054,390.69,396.17
11.17037,391.94,403.55
11.18951,391.44,409.65
11.21060,393.22,417.32
11.23031,392.91,425.11
11.24927,394.56,431.77
11.26957,395.06,434.75
11.29006,394.13,439.33
11.30907,393.93,442.49
11.32919,395.18,448.40
11.35008,394.19,450.94
11.36938,394.24,455.35
11.38979,396.70,457.59
11.40985,396.35,460.45
11.42955,394.96,460.56
11.44918,394.42,459.88
11.46899,396.37,463.81
11.48996,398.28,465.24
11.50909,397.69,465.35
11.53052,397.13,467.52
11.55011,398.06,465.53
11.56946,395.74,466.15
11.58924,398.83,468.87
11.61053,398.64,469.28
11.63049,399.09,470.72
11.64986,396.66,469.84
11.66991,398.51,468.87
11.68896,397.68,470.02
11.70893,397.02,468.69
11.73063,397.80,468.47
11.74915,395.80,469.03
11.77052,396.92,471.96
11.79027,394.47,470.65
11.81042,396.47,468.47
11.82966,396.65,469.76
11.85060,397.24,484.64
11.86998,401.22,506.55
11.89000,404.10,536.50
11.91038,401.77,568.05
11.93020,402.85,590.41
11.94999,404.29,612.03
11.96867,400.96,619.87
11.99008,403.94,618.04
12.01142,401.20,603.64
12.02980,400.78,588.90
12.05032,401.27,574.58
12.07075,401.38,557.13
12.09060,398.23,541.68
12.11235,396.66,529.30
12.13136,397.76,521.24
12.15224,396.98,511.00
12.17217,397.08,501.99
12.19143,396.10,500.33
12.21334,395.76,492.89
12.23200,396.75,486.57
12.25163,395.20,483.40
12.27180,393.26,481.46
12.29216,393.57,478.63
12.31273,393.47,475.09
12.33180,394.60,478.02
12.35203,397.13,473.82
12.37348,396.31,473.15
12.39197,397.98,469.76
12.41324,395.89,470.17
12.43308,400.39,467.14
12.45442,397.73,470.08
12.47328,399.91,465.53
12.49454,399.36,466.29
12.51430,398.88,465.00
12.53324,399.74,464.85
12.55336,397.20,465.68
12.57301,398.70,463.14
12.59401,398.20,464.29
12.61462,399.44,465.15
12.63422,397.76,465.33
12.65400,398.12,465.94
12.67399,395.65,467.08
12.69338,397.09,466.33
12.71445,396.90,467.29
12.73343,395.91,466.09
12.75337,395.04,463.68
12.77382,394.57,463.51
12.79371,396.26,466.34
12.81511,394.25,464.17
12.83505,396.15,466.68
12.85546,397.29,464.77
12.87485,397.00,462.54
12.89531,394.58,457.62
12.91520,394.87,458.75
12.93449,395.75,454.94
12.95439,393.48,456.29
12.97429,394.20,454.55
12.99532,394.12,459.71
13.01557,396.74,459.81
13.03385,394.85,460.96
13.05506,396.65,461.05
13.07511,395.13,463.01
13.09550,395.11,460.99
13.11488,397.47,461.54
13.13383,398.02,460.40
13.15447,399.08,458.18
13.17536,398.92,448.04
13.19380,396.97,439.46
13.21555,395.85,427.02
13.23483,392.56,415.50
13.25432,394.68,406.30
13.27531,389.85,397.17
13.29435,388.35,393.04
13.31515,386.10,384.86
13.33485,388.32,385.12
13.35416,384.82,383.54
13.37503,387.39,383.83
13.39496,384.56,385.90
13.41553,385.72,386.86
13.43436,389.30,393.51
13.45445,390.86,399.97
13.47418,391.07,405.94
13.49416,391.75,410.76
13.51535,393.65,417.50
13.53403,394.74,420.75
13.55474,393.99,428.52
13.57377,393.52,433.95
13.59519,395.75,438.58
13.61378,393.71,442.97
13.63411,393.82,445.52
13.65408,393.63,448.35
13.67506,395.97,450.03
13.69550,394.82,450.84
13.71416,395.25,454.79
13.73453,396.63,455.36
13.75403,395.73,455.34
13.77554,397.07,456.36
13.79572,399.63,457.98
13.81547,401.78,459.98
13.83509,400.49,463.51
13.85599,402.66,463.00
13.87590,402.57,462.44
13.89619,402.39,463.95
13.91465,402.78,464.47
13.93598,400.29,464.60
13.95548,397.29,466.22
13.97586,399.05,466.90
13.99559,397.78,468.78
14.01715,398.92,469.01
14.03567,398.27,467.96
14.05642,397.60,471.15
14.07640,398.03,472.31
14.09662,399.30,473.11
14.11655,400.36,471.45
14.13571,401.66,474.38
14.15694,398.13,472.64
14.17717,399.85,472.21
14.19607,402.66,472.03
14.21582,401.34,470.67
14.23567,400.82,469.44
14.25560,402.29,468.79
14.27683,398.81,468.28
14.29732,400.18,476.09
14.31675,404.56,496.39
14.33820,404.25,524.18
14.35856,403.98,549.83
14.37747,404.05,571.51
14.39812,404.33,587.19
14.41860,404.32,597.32
14.43762,405.13,603.20
14.45719,407.20,596.11
14.47663,407.45,585.90
14.49679,405.80,572.00
14.51826,407.15,558.83
14.53822,405.33,543.18
14.55756,401.26,533.86
14.57719,402.29,523.16
14.59703,402.41,517.78
14.61698,399.36,509.76
14.63800,400.04,501.06
14.65864,397.92,496.86
14.67658,401.64,493.36
14.69724,401.04,489.91
14.71806,401.15,487.06
14.73819,401.65,484.53
14.75782,404.76,480.17
14.77714,403.46,479.98
14.79852,401.26,476.65
14.81703,401.77,477.06
14.83684,400.76,472.96
14.85693,404.20,472.28
14.87710,401.88,474.46
14.89781,404.22,473.73
14.91817,404.11,471.21
14.93872,403.02,469.78
14.95915,400.53,472.78
14.97822,398.85,468.83
14.99904,401.29,469.02
15.01898,400.20,470.73
15.03938,400.54,469.72
15.05952,398.64,470.95
15.07939,399.85,469.65
15.09871,398.74,469.09
15.11881,399.19,471.47
15.13890,399.46,467.90
15.15807,401.84,470.93
15.17763,401.22,468.35
15.19909,398.93,470.46
15.21863,400.99,470.60
15.23770,400.33,471.26
15.25960,399.27,470.18
15.27868,398.20,463.93
15.29805,394.31,458.93
15.31953,388.74,447.41
15.33873,386.13,436.55
15.35874,384.76,428.40
15.37926,381.91,418.71
15.39869,379.57,407.88
15.41908,378.67,402.85
15.43885,382.07,395.50
15.45967,384.30,392.04
15.47839,385.52,386.81
15.49800,390.10,383.12
15.51891,391.26,383.69
15.53873,394.97,382.52
15.55917,398.43,387.38
15.57798,399.65,389.53
15.59781,400.92,391.21
15.61764,403.26,395.62
15.63860,404.30,402.77
15.65801,402.17,407.22
15.67787,404.01,412.48
15.69889,404.53,419.53
15.71911,405.62,426.02
15.73914,405.02,428.18
15.75798,402.57,433.47
15.77775,403.69,440.85
15.79811,401.83,444.49
15.81785,401.11,446.35
15.83913,402.32,447.78
15.85959,399.50,454.08
15.87942,399.66,458.33
15.89933,402.06,462.21
15.91907,401.76,464.07
15.93824,402.46,467.74
15.95793,400.39,469.91
15.97945,400.56,467.81
15.99893,400.96,469.06
16.01875,398.07,472.84
16.03786,397.53,471.69
16.05769,400.10,471.94
16.07873,400.23,468.44
16.09778,399.21,468.25
16.11781,401.50,471.61
16.13815,401.41,472.01
16.15843,398.47,471.68
16.17845,397.02,474.53
16.19882,398.37,474.65
16.21948,398.21,477.75
16.23755,398.58,474.94
16.25864,398.94,474.60
16.27884,399.24,476.22
16.29937,399.63,474.13
16.31915,396.39,472.54
16.33875,398.31,472.60
16.35952,396.44,472.03
16.37886,397.07,473.40
16.39794,399.32,470.20
16.41899,396.77,471.08
16.43820,398.82,469.18
16.45769,400.60,468.25
16.47933,398.45,464.86
16.49873,397.51,462.36
16.51858,396.26,461.42
16.53939,397.17,461.21
16.55807,395.00,462.62
16.57793,396.22,461.29
16.59827,398.81,462.01
16.61847,398.87,461.80
16.63841,395.13,462.73
16.65886,397.33,463.08
16.67804,397.19,463.80
16.69744,395.74,464.90
16.71828,397.51,463.99
16.73887,397.32,464.91
16.75840,396.03,465.15
16.77851,397.61,466.68
16.79774,397.67,473.83
16.81793,398.10,495.31
16.83834,402.50,524.71
16.85916,401.74,558.34
16.87903,403.32,581.75
16.90021,401.48,594.20
16.91993,402.03,598.96
16.93853,400.27,593.58
16.95899,400.12,581.67
16.97887,401.46,568.66
16.99897,398.82,553.97
17.01961,397.70,541.20
17.03986,398.47,533.63
17.05976,399.43,521.93
17.08001,397.86,513.14
17.09972,398.60,507.12
17.11972,396.97,501.47
17.14047,393.60,493.93
17.15944,395.65,487.80
17.18013,397.13,483.23
17.20043,398.25,478.24
17.22031,397.01,476.47
17.24011,399.66,474.07
17.25896,396.27,473.33
17.28033,395.04,470.56
17.29896,395.65,469.74
17.31930,398.76,466.30
17.33861,397.23,465.66
17.36114,395.17,463.86
17.38145,395.94,464.94
17.40023,394.98,466.09
17.42099,396.61,465.35
17.44092,394.19,462.77
17.46176,392.76,463.56
17.48066,393.40,460.88
17.50205,396.58,460.73
17.52235,394.60,461.96
17.54112,396.80,461.05
17.56083,395.38,464.00
17.58219,394.06,464.93
17.60116,396.84,465.06
17.62132,395.35,464.43
17.64106,397.25,454.08
17.66159,393.39,443.86
17.68156,396.73,429.13
17.70063,394.90,418.95
17.72084,394.17,408.09
17.74176,391.97,400.74
17.76225,393.97,395.29
17.78179,392.68,388.07
17.80073,388.98,384.34
17.82225,392.82,378.98
17.84127,392.70,378.95
17.86226,390.27,379.04
17.88139,394.65,379.04
17.90140,390.85,386.34
17.92218,392.34,387.63
17.94295,389.52,394.24
17.96247,389.27,399.71
17.98244,393.40,407.63
18.00245,392.19,413.28
18.02225,393.83,417.56
18.04328,390.94,421.15
18.06267,394.62,426.27
18.08329,392.61,433.02
18.10143,392.90,437.47
18.12271,393.39,441.28
18.14172,392.00,442.67
18.16287,392.73,445.41
18.18325,393.57,447.42
18.20262,393.66,450.29
18.22198,392.29,454.00
18.24272,395.12,455.04
18.26180,394.72,457.57
18.28219,394.21,458.85
18.30349,393.28,458.23
18.32249,392.91,459.33
18.34330,393.33,460.74
18.36290,395.18,460.10
18.38250,395.10,461.57
18.40304,394.65,460.73
18.42215,395.87,462.23
18.44346,392.01,463.91
18.46333,392.87,463.77
18.48329,393.79,463.68
18.50297,394.24,463.10
18.52162,396.19,464.67
18.54159,395.41,465.40
18.56220,397.47,463.14
18.58345,394.90,462.68
18.60205,395.77,462.53
18.62158,394.62,468.89
18.64209,396.03,486.43
18.66184,399.53,512.22
18.68226,402.50,539.45
18.70177,401.80,566.56
18.72160,403.53,585.07
18.74289,400.85,597.26
18.76327,402.00,607.58
18.78229,404.11,606.29
18.80276,403.87,600.81
18.82242,402.89,591.28
18.84197,403.94,574.64
18.86189,401.02,560.36
18.88309,400.92,545.28
18.90170,401.68,532.32
18.92313,398.12,524.99
18.94290,398.96,514.33
18.96211,399.22,505.23
18.98258,397.23,500.02
19.00293,397.26,494.38
19.02231,395.40,485.71
19.04183,397.28,481.92
19.06335,395.96,473.17
19.08314,395.90,471.46
19.10358,397.83,464.87
19.12236,395.24,459.66
19.14310,395.01,457.27
19.16306,395.76,454.05
19.18182,393.58,452.72
19.20205,395.82,452.95
19.22264,395.65,450.68
19.24300,397.40,451.61
19.26198,397.82,450.59
19.28314,394.86,454.89
19.30303,395.94,454.91
19.32302,396.63,454.62
19.34215,399.27,455.26
19.36207,396.26,456.62
19.38306,395.50,458.16
19.40166,393.52,458.77
19.42242,396.67,460.95
19.44164,395.44,459.53
19.46299,397.63,460.34
19.48312,394.05,460.47
19.50183,396.86,459.98
19.52257,396.28,460.57
19.54202,394.09,462.56
19.56224,395.77,461.70
19.58306,397.85,460.80
19.60255,396.90,448.89
19.62227,397.99,440.06
19.64302,401.77,426.96
19.66159,400.01,415.12
19.68225,402.90,404.26
19.70337,400.97,396.11
19.72278,403.03,390.59
19.74325,403.38,385.87
19.76228,401.49,379.68
19.78300,399.27,377.37
19.80279,398.44,375.67
19.82253,396.82,376.97
19.84320,398.23,378.58
19.86248,395.21,382.38
19.88140,392.26,385.19
19.90350,394.03,390.13
19.92320,390.89,393.92
19.94264,393.26,398.93
19.96338,392.71,403.57
19.98302,391.78,409.70
20.00196,392.10,418.45
20.02280,391.48,423.98
20.04197,393.68,427.32
20.06200,392.08,432.13
20.08192,394.78,436.57
20.10220,394.55,443.42
20.12262,394.13,446.84
20.14224,395.34,451.15
20.16275,396.59,453.23
20.18293,395.29,457.58
20.20314,397.38,459.35
20.22300,395.23,463.95
20.24301,396.15,466.52
20.26367,394.65,469.15
20.28331,397.27,471.85
20.30359,396.22,470.23
20.32370,395.28,469.89
20.34534,394.84,468.06
20.36498,397.81,469.04
20.38513,396.15,471.50
20.40362,398.02,470.66
20.42519,396.46,468.89
20.44547,399.52,468.22
20.46379,398.74,469.40
20.48548,398.97,471.86
20.50522,400.05,471.43
20.52531,400.02,469.77
20.54543,398.53,468.76
20.56496,400.26,470.72
20.58426,398.24,471.23
20.60483,399.35,470.67
20.62391,398.18,469.47
20.64459,398.14,481.82
20.66508,400.79,510.17
20.68531,401.61,551.30
20.70342,404.43,582.85
20.72497,405.23,612.37
20.74472,404.10,621.53
20.76543,404.26,628.25
20.78380,404.12,619.06
20.80493,403.57,611.44
20.82483,405.38,595.22
20.84429,403.01,578.26
20.86372,399.33,560.61
20.88386,399.67,543.70
20.90539,398.64,533.07
20.92414,396.74,520.12
20.94535,399.33,510.90
20.96513,398.97,503.01
20.98448,399.20,497.35
21.00518,399.70,493.48
21.02371,400.34,488.25
21.04361,399.14,486.10
21.06519,399.82,482.32
21.08351,399.39,475.41
21.10403,403.21,474.87
21.12523,400.94,472.43
21.14503,400.43,470.02
21.16524,403.83,470.58
21.18384,400.17,469.47
21.20477,401.68,469.66
21.22533,399.37,471.08
21.24427,399.96,470.45
21.26410,398.88,470.73
21.28470,399.09,470.31
21.30334,402.14,472.14
21.32369,399.58,472.26
21.34402,399.32,469.94
21.36521,400.78,469.59
21.38439,401.40,469.78
21.40522,401.95,471.97
21.42533,399.83,473.45
21.44423,399.42,471.76
21.46504,398.96,473.42
21.48513,396.82,470.18
21.50446,398.02,470.40
21.52554,396.66,469.86
21.54450,397.27,470.54
21.56374,396.33,469.47
21.58533,397.00,467.27
21.60368,396.79,471.75
21.62511,396.45,474.21
21.64495,396.77,468.43
21.66445,397.73,462.92
21.68540,399.61,452.01
21.70479,397.34,440.17
21.72395,397.91,426.43
21.74417,396.15,413.06
21.76394,396.68,403.31
21.78407,393.14,393.82
21.80497,392.09,385.34
21.82528,391.16,382.57
21.84375,391.22,379.55
21.86392,391.17,378.02
21.88380,391.89,378.52
21.90393,392.19,382.26
21.92517,392.71,386.53
21.94353,391.87,390.55
21.96495,394.02,397.50
21.98445,393.72,403.20
22.00357,395.14,410.82
22.02556,395.10,414.25
22.04379,395.10,422.42
22.06354,397.68,428.26
22.08351,396.98,431.88
22.10366,396.72,435.69
22.12473,397.34,439.43
22.14432,398.83,443.28
22.16381,400.65,449.41
22.18463,399.47,452.58
22.20511,397.87,451.96
22.22437,398.62,455.58
22.24512,399.62,457.19
22.26365,400.82,457.35
22.28501,399.61,461.42
22.30337,397.40,458.70
22.32397,399.46,463.21
22.34494,399.81,463.85
22.36512,400.95,464.13
22.38501,399.62,463.19
22.40380,398.78,467.17
22.42387,400.33,468.83
22.44340,397.40,470.00
22.46474,397.28,471.39
22.48523,397.91,472.77
22.50417,396.97,470.86
22.52389,396.83,471.66
22.54459,396.56,472.62
22.56526,398.91,471.74
22.58497,397.21,470.19
22.60379,395.85,473.10
22.62525,397.59,470.99
22.64548,398.28,471.61
22.66485,394.46,468.96
22.68477,395.75,470.23
22.70498,394.90,484.30
22.72485,397.84,511.53
22.74421,394.73,539.90
22.76394,396.54,567.85
22.78413,397.79,588.59
22.80454,398.95,604.41
22.82491,399.42,607.82
22.84525,399.36,604.19
22.86477,398.66,591.69
22.88476,400.27,581.31
22.90520,400.58,566.85
22.92486,401.06,550.68
22.94411,400.62,538.28
22.96629,398.53,528.87
22.98578,395.60,515.90
23.00595,395.64,508.25
23.02558,394.44,502.56
23.04593,397.18,496.89
23.06468,398.20,490.00
23.08423,395.54,486.47
23.10639,398.10,483.13
23.12600,398.65,481.18
23.14578,396.97,477.72
23.16541,393.96,473.96
23.18552,397.33,475.24
23.20687,393.74,471.13
23.22685,394.18,469.35
23.24660,396.25,469.70
23.26781,396.80,470.11
23.28726,395.17,466.71
23.30775,394.17,466.78
23.32671,397.30,464.32
23.34663,393.88,468.35
23.36678,392.73,468.13
23.38799,395.13,464.81
23.40743,392.84,464.55
23.42712,392.82,465.36
23.44694,394.69,465.40
23.46726,393.62,466.22
23.48702,393.47,465.99
23.50662,393.99,465.64
23.52663,394.21,466.33
23.54798,393.07,465.55
23.56645,393.10,463.19
23.58716,392.48,463.34
23.60807,394.70,462.72
23.62824,392.38,464.76
23.64699,391.98,464.07
23.66790,390.79,459.35
23.68729,392.78,450.35
23.70651,387.97,437.91
23.72818,389.00,427.12
23.74641,387.88,411.92
23.76675,388.63,402.00
23.78682,384.84,392.31
23.80698,384.18,380.83
23.82786,387.29,376.50
23.84720,388.09,371.54
23.86766,389.00,369.93
23.88832,392.54,372.17
23.90787,393.09,374.34
23.92838,392.98,377.47
23.94822,395.39,384.65
23.96684,396.71,392.93
23.98679,394.67,397.54
24.00644,395.90,404.39
24.02683,395.17,410.90
24.04707,396.67,418.71
24.06696,394.40,423.40
24.08815,393.89,431.40
24.10760,395.52,435.55
24.12806,394.84,439.15
24.14734,397.58,445.17
24.16712,395.79,448.49
24.18705,398.26,449.14
24.20710,396.60,452.09
24.22696,398.04,452.97
24.24711,397.24,454.07
24.26733,398.97,458.18
24.28768,397.73,456.87
24.30670,395.27,459.18
24.32768,398.98,458.76
24.34673,396.58,461.37
24.36733,396.00,461.86
24.38765,394.53,464.17
24.40836,394.89,464.62
24.42802,395.39,461.30
24.44702,393.33,460.42
24.46707,396.95,462.57
24.48798,396.11,462.38
24.50691,395.81,462.73
24.52646,393.98,463.02
24.54807,396.70,464.75
24.56765,395.97,464.01
24.58795,393.81,466.56
24.60667,396.47,466.14
24.62785,393.39,465.17
24.64810,394.01,462.72
24.66666,396.69,462.94
24.68818,395.40,465.66
24.70805,394.84,466.17
24.72902,398.20,476.70
24.74895,399.62,508.47
24.76934,400.87,541.62
24.78914,401.70,571.59
24.80752,403.94,598.97
24.82939,405.72,610.92
24.84827,404.92,609.92
24.86758,406.39,598.94
24.88819,405.97,586.93
24.90936,401.65,571.17
24.92749,403.67,555.14
24.94893,403.15,543.71
24.96783,399.42,532.43
24.98870,397.89,522.42
25.00846,401.30,514.84
25.02862,399.75,504.37
25.04778,398.01,499.22
25.06896,398.39,495.00
25.08784,396.56,485.92
25.10915,395.71,486.08
25.12786,396.40,483.35
25.14870,394.79,479.88
25.16897,396.32,475.48
25.18842,396.69,470.93
25.20755,393.20,471.11
25.22875,393.14,470.80
25.24749,392.74,467.90
25.26837,394.20,468.24
25.28826,393.94,469.28
25.30734,393.79,467.24
25.32776,397.07,465.95
25.34828,393.49,467.96
25.36846,395.42,466.54
25.38866,394.08,465.70
25.40869,397.39,464.64
25.42939,395.45,464.73
25.44919,395.65,467.34
25.46984,397.21,467.32
25.48895,399.46,467.12
25.50994,399.53,465.64
25.53023,398.77,468.12
25.54925,396.62,469.38
25.56841,395.21,466.93
25.58884,396.36,469.85
25.60984,395.75,469.26
25.62919,399.11,468.27
25.65002,395.95,466.43
25.66995,395.98,465.80
25.68959,399.42,466.83
25.70851,398.10,467.12
25.72947,396.32,469.22
25.74976,398.08,470.73
25.76950,398.05,468.67
25.78916,397.70,462.38
25.80953,396.59,454.48
25.83010,391.69,443.21
25.84936,390.09,429.92
25.86960,388.55,418.27
25.88934,385.28,407.84
25.90957,387.22,400.75
25.93038,385.85,392.79
25.94869,384.90,388.79
25.96861,387.61,384.49
25.98886,387.93,381.73
26.00897,389.25,381.25
26.03027,393.81,383.53
26.04938,394.67,385.05
26.06893,395.26,390.07
26.08894,397.49,394.36
26.10889,398.81,400.26
26.12888,398.01,409.74
26.14909,398.30,414.33
26.16998,399.32,418.13
26.18870,400.34,423.60
26.20886,399.77,429.60
26.22883,400.51,434.77
26.24851,398.17,439.15
26.26888,401.10,440.09
26.28936,402.45,445.76
26.30938,401.69,447.50
26.32852,400.39,448.58
26.34941,403.85,452.88
26.36902,402.20,454.26
26.38926,399.83,458.05
26.40888,402.45,456.99
26.42952,400.99,458.96
26.44887,401.23,461.28
26.46906,402.59,460.98
26.48914,401.39,465.37
26.51029,402.10,463.53
26.53001,400.80,464.21
26.54954,397.45,467.06
26.56984,396.35,465.59
26.58844,397.03,468.04
26.60904,396.41,467.51
26.62922,398.29,464.81
26.64954,397.98,466.54
26.66958,397.34,467.43
26.68915,397.09,465.51
26.70895,396.99,466.26
26.72918,399.32,467.62
26.74840,398.58,467.56
26.77021,399.28,467.06
26.78870,396.89,465.25
26.81021,397.46,479.15
26.82925,397.10,506.59
26.85021,401.11,535.45
26.86931,404.88,564.47
26.88929,405.79,585.36
26.90976,405.56,594.84
26.93019,405.45,600.31
26.94972,408.69,595.91
26.96895,408.18,585.39
26.99003,408.03,570.49
27.01013,406.00,559.32
27.02837,405.88,545.96
27.04912,403.11,534.01
27.06929,402.77,521.44
27.09014,401.21,515.97
27.11026,400.80,508.80
27.12952,398.82,499.26
27.15004,398.36,495.16
27.16997,397.83,490.42
27.18852,396.97,485.33
27.20814,396.84,483.01
27.22871,398.21,479.88
27.24868,399.69,475.20
27.26874,399.67,473.48
27.28891,397.36,472.17
27.30983,398.22,473.47
27.32922,394.52,477.33
27.34926,398.55,481.67
27.36988,396.80,484.85
27.38942,394.80,488.21
27.40965,395.13,487.65
27.42860,395.21,486.54
27.45025,395.49,484.58
27.46841,397.04,482.95
27.49033,397.25,480.94
27.50851,396.11,479.01
27.52861,398.47,477.81
27.54966,398.27,477.56
27.56936,397.51,475.95
27.58991,398.78,474.79
27.61013,396.55,475.21
27.63012,396.01,473.46
27.64914,399.54,473.02
27.66901,396.58,469.75
27.68917,398.86,467.82
27.70896,397.14,469.15
27.73010,395.65,467.54
27.74912,396.68,466.54
27.76948,396.95,471.00
27.78875,395.63,477.90
27.80838,396.28,482.64
27.82943,398.01,485.00
27.84983,402.40,483.95
27.86980,401.45,474.84
27.88884,402.19,468.46
27.90850,398.77,460.17
27.93001,395.89,450.57
27.95024,395.51,435.30
27.96972,395.43,421.02
27.98899,394.24,407.18
28.00940,395.18,397.75
28.02948,393.17,387.28
28.04882,394.63,380.72
28.06995,394.43,378.73
28.08950,392.67,374.75
28.10893,395.43,377.16
28.12855,393.85,381.08
28.14991,392.75,384.77
28.16939,393.73,392.36
28.18953,392.98,399.42
28.21049,393.39,403.05
28.23113,394.62,411.73
28.24948,396.65,417.85
28.26988,395.28,422.77
28.28987,396.57,428.90
28.30911,399.14,431.43
28.32932,398.77,434.22
28.34993,399.72,440.13
28.36997,401.35,441.15
28.39019,399.27,447.42
28.40969,397.86,452.01
28.43109,400.37,454.34
28.45037,397.40,455.44
28.46971,397.37,455.94
28.49107,396.68,461.18
28.50970,400.01,460.04
28.52968,396.06,465.42
28.54993,398.04,464.08
28.56980,399.33,464.98
28.59050,397.61,468.61
28.61123,397.19,468.24
28.63045,400.25,469.82
28.64962,400.01,467.76
28.67012,397.90,471.50
28.68944,397.73,470.88
28.71109,398.51,466.98
28.73047,398.36,469.04
28.75036,398.49,469.12
28.77105,400.50,467.32
28.79064,396.33,466.72
28.81080,397.89,483.53
28.83103,397.78,505.40
28.84946,397.60,535.50
28.86957,398.84,563.39
28.88984,401.93,587.13
28.91029,399.41,600.08
28.93092,401.88,604.12
28.94959,401.66,603.03
28.97017,403.91,592.72
28.98977,402.87,580.26
29.01123,403.28,565.83
29.02999,402.24,552.30
29.05035,399.71,541.61
29.06951,399.18,530.57
29.09047,401.80,520.39
29.10951,402.19,512.73
29.13040,400.36,507.47
29.15081,399.35,499.28
29.16921,397.82,495.64
29.18929,399.47,488.49
29.20947,398.39,483.87
29.23116,398.20,481.04
29.25007,399.85,479.33
29.27057,398.69,475.09
29.29091,400.23,475.54
29.31103,400.46,468.85
29.32938,400.18,467.59
29.35117,402.80,466.12
29.36956,401.50,464.33
29.39091,400.79,463.80
29.40992,403.91,466.12
29.43037,402.91,462.77
29.44947,400.16,466.62
29.47053,399.81,463.56
29.49009,403.12,464.53
29.50945,399.08,462.64
29.53021,400.47,464.86
29.55081,397.77,464.24
29.57017,397.68,465.22
29.58936,399.41,464.27
29.61093,396.81,466.65
29.62995,399.69,467.04
29.65099,397.02,467.58
29.66991,398.36,466.76
29.69137,400.06,468.06
29.71094,396.84,466.78
29.73041,397.94,468.63
29.74961,399.73,465.73
29.77026,397.02,468.84
29.79113,399.25,468.45
29.81056,397.91,466.62
29.83032,397.37,466.48
29.85049,400.12,454.90
29.87046,400.52,442.50
29.89059,399.17,430.27
29.91074,399.20,416.18
29.92980,397.29,408.08
29.94962,399.22,396.25
29.97044,396.75,389.41
29.99056,396.76,385.31
30.00999,394.56,382.59
30.02968,394.71,383.83
30.04989,391.74,383.66
30.07074,391.90,389.51
30.08971,393.00,394.70
30.11118,394.83,398.40
30.13037,394.56,406.53
30.14923,395.02,411.48
30.16942,394.28,417.58
30.18936,394.06,417.41
30.21084,394.48,420.85
30.23077,395.74,423.62
30.25061,397.20,425.42
30.27069,395.39,428.59
30.29004,394.67,433.52
30.31040,396.30,436.96
30.33040,396.23,439.23
30.35088,396.16,441.60
30.37082,397.54,445.61
30.39091,397.39,446.98
30.40970,396.13,452.05
30.43086,398.11,451.02
30.44961,394.72,453.22
30.47011,396.83,454.81
30.49055,398.09,457.35
30.51033,397.63,460.34
30.53052,398.16,459.56
30.55010,395.27,460.95
30.57002,398.74,459.34
30.58969,397.84,462.76
30.60987,395.18,461.57
30.62980,397.75,462.63
30.65009,396.58,461.36
30.67004,395.68,461.68
30.69108,395.51,465.08
30.70932,396.26,463.20
30.73083,398.41,463.86
30.74981,397.66,472.24
30.76926,393.82,494.24
30.79107,392.96,529.98
30.81026,390.11,558.38
30.83062,389.81,590.22
30.85004,392.90,609.43
30.87062,395.95,621.13
30.89111,396.10,624.49
30.91122,398.21,616.58
30.93057,397.55,603.17
30.95062,400.02,588.13
30.97090,399.39,572.08
30.99071,396.27,559.98
31.01007,396.45,546.54
31.03019,397.19,531.58
31.05016,399.53,520.81
31.06952,402.98,509.42
31.08995,403.69,500.37
31.11034,401.49,492.16
31.12951,403.10,486.35
31.15017,401.46,480.94
31.17063,400.56,476.54
31.19041,400.42,474.12
31.20993,398.47,470.52
31.23043,401.64,468.44
31.25053,400.09,467.52
31.27079,398.60,467.22
31.28938,398.87,464.80
31.30971,398.00,464.18
31.32936,397.60,462.02
31.34943,400.26,459.50
31.36959,396.38,459.72
31.38985,397.98,460.44
31.40992,398.26,460.98
31.42935,397.46,460.08
31.45083,398.04,459.19
31.47018,393.91,460.04
31.48998,395.07,463.02
31.51117,394.11,460.07
31.53033,394.57,463.32
31.55110,395.26,462.88
31.56922,395.25,464.60
31.59118,393.40,463.24
31.60969,394.74,463.89
31.62996,395.93,464.22
31.64940,396.84,466.03
31.66936,396.26,466.33
31.69076,394.23,463.97
31.70915,390.58,453.86
31.72949,390.43,440.68
31.74989,390.02,429.33
31.76944,387.82,419.99
31.78930,386.16,408.69
31.80953,383.97,397.71
31.83112,386.77,388.31
31.85102,386.34,381.58
31.87125,387.83,373.95
31.89110,387.12,373.88
31.91077,387.88,370.64
31.93072,390.08,372.91
31.94954,391.61,378.25
31.96961,391.70,384.27
31.98996,393.03,391.38
32.01056,394.29,395.16
32.02968,394.42,403.65
32.05107,398.50,412.73
32.07085,398.82,419.51
32.09083,399.33,425.01
32.11014,400.20,432.88
32.12979,399.75,437.05
32.14972,397.64,438.85
32.16927,398.94,443.73
32.18929,401.18,444.36
32.20964,398.91,447.93
32.23023,400.48,450.36
32.24939,398.74,452.36
32.27050,396.92,453.88
32.29097,397.61,452.48
32.31072,397.54,455.66
32.33118,395.49,453.55
32.35044,398.01,455.67
32.36961,396.83,454.43
32.38989,395.83,458.46
32.41077,397.02,458.41
32.42954,398.59,459.86
32.45057,393.67,460.89
32.46940,395.15,462.40
32.49031,396.41,461.59
32.50989,397.92,461.82
32.52978,397.33,463.82
32.55038,396.79,464.56
32.57078,397.83,463.67
32.59006,395.13,462.52
32.60950,394.11,460.85
32.63021,396.17,464.30
32.65062,394.98,464.13
32.66947,394.27,461.79
32.69050,397.62,460.50
32.71109,398.05,460.50
32.73040,397.99,460.43
32.75053,395.19,467.12
32.77014,394.24,492.25
32.79061,395.87,517.98
32.81077,394.34,552.69
32.83099,398.39,580.29
32.85024,400.47,601.60
32.87050,400.92,610.99
32.89092,404.43,609.56
32.91098,404.71,601.37
32.93019,405.98,586.29
32.95089,404.06,567.73
32.97120,403.76,555.13
32.99136,402.03,538.38
33.01235,403.04,529.26
33.03238,402.98,519.70
33.05360,403.05,508.47
33.07293,398.53,504.12
33.09390,397.38,495.64
33.11392,397.42,491.49
33.13306,398.10,487.46
33.15340,397.85,485.91
33.17273,396.85,477.55
33.19365,399.99,476.20
33.21318,399.07,474.72
33.23346,399.13,471.81
33.25289,397.97,468.83
33.27364,396.80,466.67
33.29351,394.17,465.50
33.31228,396.29,465.71
33.33247,394.37,466.82
33.35307,394.41,466.20
33.37354,396.28,465.19
33.39264,395.47,464.43
33.41415,395.24,465.61
33.43398,395.94,465.78
33.45354,398.73,465.42
33.47337,399.86,464.75
33.49355,399.55,468.04
33.51352,398.09,467.72
33.53275,396.06,467.70
33.55372,396.87,469.48
33.57378,394.76,465.65
33.59465,395.60,466.86
33.61497,396.57,467.89
33.63334,395.11,466.46
33.65357,394.28,469.89
33.67337,395.72,467.46
33.69349,395.35,466.28
33.71372,398.92,469.87
33.73482,396.49,468.35
33.75376,398.62,466.38
33.77385,396.03,466.87
33.79494,396.63,469.58
33.81331,398.38,467.04
33.83445,396.98,466.42
33.85380,397.51,468.63
33.87468,398.20,470.42
33.89373,398.78,467.79
33.91382,395.41,469.80
33.93459,398.60,475.98
33.95421,399.34,472.29
33.97447,397.33,465.19
33.99355,397.21,452.73
34.01448,399.66,434.25
34.03421,396.52,421.50
34.05353,397.05,408.51
34.07384,395.73,399.95
34.09292,392.19,388.27
34.11407,392.84,381.71
34.13587,394.44,379.45
34.15522,393.05,375.19
34.17630,394.57,377.39
34.19597,392.56,378.34
34.21731,393.30,384.77
34.23774,392.94,387.22
34.25635,393.41,395.96
34.27763,394.78,399.83
34.29807,395.66,404.61
34.31783,396.40,411.90
34.33766,398.99,420.41
34.35629,398.61,427.98
34.37775,398.77,431.22
34.39677,400.69,436.79
34.41885,398.86,443.13
34.43819,396.69,447.61
34.45929,397.26,452.20
34.47842,397.52,455.80
34.49916,396.74,459.03
34.51842,394.65,457.54
34.54091,396.78,460.16
34.56184,394.20,464.16
34.58155,394.60,464.49
34.60136,394.87,463.45
34.62277,396.47,464.87
34.64281,393.80,464.60
34.66272,393.14,467.24
34.68112,391.97,465.71
34.70137,394.68,468.12
34.72273,394.63,467.18
34.74224,395.74,468.48
34.76198,393.68,467.13
34.78162,393.64,467.13
34.80305,394.43,468.13
34.82380,396.79,466.42
34.84406,394.98,467.23
34.86205,393.79,466.83
34.88355,396.31,464.50
34.90276,395.90,467.31
34.92390,394.19,465.38
34.94269,393.21,462.26
34.96312,396.18,462.68
34.98455,394.51,461.64
35.00306,393.77,459.82
35.02374,393.93,458.08
35.04546,393.37,460.68
35.06552,393.70,459.35
35.08529,397.27,459.88
35.10642,393.88,463.61
35.12779,393.63,475.33
35.14635,396.68,499.81
35.16616,394.45,528.42
35.18719,396.65,556.64
35.20641,400.19,574.38
35.22718,403.62,591.55
35.24754,405.21,600.44
35.26691,407.19,606.56
35.28614,405.95,603.00
35.30613,405.43,595.29
35.32608,401.81,582.08
35.34659,402.97,569.32
35.36749,401.67,556.26
35.38724,399.52,540.95
35.40820,399.10,525.90
35.42892,400.05,517.05
35.44727,400.58,508.92
35.46843,398.25,498.53
35.48755,398.79,496.79
35.50891,397.80,491.17
35.52759,397.86,484.25
35.54885,395.00,479.17
35.56895,396.44,476.75
35.58823,396.68,475.50
35.60826,397.02,472.52
35.62712,395.09,471.39
35.64761,395.76,468.25
35.66826,396.80,464.75
35.68853,395.40,465.94
35.70770,394.56,464.41
35.72903,396.58,463.60
35.74710,394.90,464.28
35.76762,393.56,462.83
35.78829,394.01,464.05
35.80900,396.49,461.36
35.82830,395.04,465.58
35.84756,393.84,461.99
35.86762,392.81,463.51
35.88861,393.61,463.73
35.90780,396.46,465.60
35.92821,395.48,464.64
35.94876,397.87,464.93
35.96814,398.63,464.57
35.98890,399.19,464.07
36.00838,398.55,464.59
36.02931,397.47,464.53
36.04892,399.24,465.33
36.06903,399.01,464.59
36.08902,399.43,465.58
36.10970,398.71,464.83
36.12903,399.74,463.67
36.14819,398.20,463.61
36.16892,399.01,465.99
36.18926,399.11,466.76
36.20839,397.96,464.15
36.22967,398.16,463.65
36.24825,397.07,466.27
36.26995,400.37,467.64
36.29084,399.05,469.46
36.31057,398.23,476.68
36.33055,398.63,481.28
36.34952,398.52,486.49
36.37024,399.66,487.11
36.39007,396.29,483.77
36.40941,393.88,472.75
36.43088,392.35,460.93
36.44966,391.36,442.76
36.47068,389.53,423.38
36.49056,387.85,404.60
36.50914,386.65,385.80
36.52940,390.38,376.65
36.54974,386.32,367.83
36.56996,387.67,364.13
36.58945,390.83,364.53
36.60924,389.49,367.67
36.63021,390.06,373.89
36.65082,391.20,381.72
36.67053,391.85,387.77
36.68942,391.95,396.51
36.70950,393.75,404.82
36.72992,394.09,413.74
36.75062,395.22,420.37
36.77051,395.65,427.49
36.79180,395.65,430.83
36.81070,397.79,438.47
36.83072,396.54,441.51
36.85126,400.07,444.97
36.87047,401.74,450.13
36.89280,401.59,451.14
36.91266,402.69,454.59
36.93220,404.21,454.71
36.95449,399.55,457.33
36.97400,403.06,457.67
36.99351,401.63,461.26
37.01309,401.99,461.10
37.03467,400.74,463.43
37.05379,398.55,462.41
37.07405,397.03,464.82
37.09340,398.30,463.48
37.11302,396.92,466.71
37.13484,400.03,466.92
37.15428,396.57,467.34
37.17347,398.29,466.80
37.19471,399.11,466.69
37.21505,396.33,467.45
37.23362,399.65,466.59
37.25487,399.28,468.30
37.27433,399.15,465.50
37.29414,397.88,465.21
37.31311,396.43,465.70
37.33460,396.92,461.25
37.35409,395.21,461.15
37.37414,394.85,475.24
37.39349,393.93,505.08
37.41375,395.65,535.62
37.43391,397.64,566.14
37.45371,398.62,584.26
37.47458,400.94,598.45
37.49446,399.64,601.59
37.51396,403.07,600.43
37.53335,402.36,586.70
37.55411,403.44,571.29
37.57291,399.90,560.74
37.59336,402.66,545.83
37.61494,400.33,535.14
37.63301,400.97,523.12
37.65366,399.15,515.12
37.67332,399.45,506.22
37.69463,399.57,499.02
37.71498,395.06,492.46
37.73440,396.54,490.85
37.75315,396.77,485.82
37.77498,395.86,483.87
37.79443,398.41,480.32
37.81399,396.11,478.10
37.83465,398.79,474.29
37.85489,397.53,471.86
37.87301,398.45,470.76
37.89412,394.40,470.12
37.91329,395.53,467.69
37.93421,393.27,467.73
37.95332,395.46,468.01
37.97447,394.25,467.96
37.99463,394.71,466.53
38.01424,394.81,465.14
38.03475,395.25,465.71
38.05415,394.28,465.04
38.07385,393.64,464.89
38.09493,397.02,465.40
38.11485,395.61,463.92
38.13465,394.14,464.70
38.15334,396.19,466.57
38.17379,394.77,467.90
38.19381,392.52,465.80
38.21308,395.38,464.66
38.23457,393.24,465.93
38.25466,393.31,464.73
38.27584,393.00,462.12
38.29545,392.70,464.33
38.31388,393.46,455.95
38.33516,392.03,449.29
38.35604,392.83,434.64
38.37443,391.54,420.55
38.39535,390.90,408.59
38.41471,389.11,398.73
38.43503,390.23,388.77
38.45525,387.88,381.84
38.47393,386.50,376.32
38.49418,386.44,369.09
38.51551,387.08,367.16
38.53453,387.54,371.39
38.55507,389.05,372.57
38.57519,390.72,377.01
38.59403,390.58,386.42
38.61563,389.35,393.18
38.63575,388.69,400.71
38.65620,388.18,407.92
38.67609,389.27,417.91
38.69695,390.99,423.70
38.71606,392.55,428.43
38.73749,395.03,434.00
38.75855,392.71,436.21
38.77717,393.96,441.88
38.79903,396.56,446.67
38.81932,397.08,447.95
38.83973,396.30,449.45
38.85954,398.23,454.51
38.87845,397.90,456.26
38.89980,395.76,456.89
38.91930,397.08,458.65
38.93942,397.58,458.77
38.95990,395.79,459.23
38.97855,396.19,462.83
38.99848,398.05,462.80
39.01999,396.47,464.17
39.04013,396.20,465.77
39.06043,397.30,466.17
39.08118,397.44,463.60
39.10116,397.76,464.50
39.12111,398.01,466.30
39.14147,394.40,471.04
39.16265,395.37,470.34
39.18214,393.68,472.48
39.20303,393.21,470.81
39.22239,393.81,470.34
39.24262,396.85,467.90
39.26348,397.30,469.73
39.28278,396.42,469.63
39.30206,396.39,468.35
39.32241,398.87,467.66
39.34341,398.40,465.60
39.36455,396.90,465.97
39.38419,397.41,464.23
39.40294,396.81,464.40
39.42403,397.51,464.75
39.44452,395.69,461.23
39.46389,398.21,462.64
39.48430,396.93,462.21
39.50395,397.99,463.41
39.52456,398.42,459.75
39.54377,394.88,460.26
39.56419,398.62,477.27
39.58502,396.74,505.04
39.60533,399.53,534.76
39.62580,405.22,564.62
39.64554,403.59,584.33
39.66678,406.21,601.67
39.68552,405.90,603.47
39.70751,405.03,596.12
39.72858,405.82,584.54
39.74914,404.81,571.00
39.76993,401.04,556.68
39.78994,399.81,543.68
39.81189,396.82,532.75
39.83136,396.09,520.58
39.85125,395.68,512.56
39.87020,397.23,506.15
39.89101,396.11,499.48
39.91055,397.40,493.48
39.93049,396.32,487.91
39.95027,396.79,482.53
39.97189,395.85,481.31
39.99023,395.40,476.92
40.00998,392.43,474.00
40.02984,392.72,472.47
40.05153,393.29,468.47
40.07323,391.30,471.26
40.09360,392.71,469.08
40.11410,392.32,466.64
40.13374,393.85,466.12
40.15290,391.98,470.26
40.17484,390.61,472.19
40.19585,390.62,473.16
40.21469,392.53,470.64
40.23463,392.71,471.79
40.25536,389.36,467.58
40.27484,389.79,467.57
40.29558,388.36,466.53
40.31459,388.94,467.18
40.33590,390.23,463.24
40.35513,389.00,464.82
40.37592,390.05,463.67
40.39561,391.45,465.46
40.41398,393.22,462.61
40.43425,392.96,461.76
40.45530,394.82,463.41
40.47563,393.90,463.41
40.49511,395.54,460.39
40.51551,395.69,463.73
40.53481,396.60,459.65
40.55463,394.97,463.91
40.57497,398.65,462.79
40.59547,397.11,465.35
40.61537,398.04,466.84
40.63502,395.94,471.21
40.65592,398.68,467.16
40.67556,396.80,459.17
40.69680,396.98,441.44
40.71560,397.00,422.72
40.73633,396.55,406.47
40.75551,396.99,390.51
40.77640,395.53,382.77
40.79658,394.49,372.20
40.81643,392.18,371.08
40.83709,394.05,367.51
40.85561,394.17,369.49
40.87592,394.97,372.53
40.89487,393.76,374.92
40.91667,392.83,384.06
40.93616,394.14,391.72
40.95617,394.28,397.86
40.97689,392.64,408.19
40.99803,394.37,415.01
41.01864,396.57,420.26
41.03732,393.72,427.09
41.05741,395.21,434.95
41.07799,398.80,436.94
41.09927,397.17,440.28
41.11918,399.52,446.33
41.13996,397.36,448.12
41.16042,398.44,450.50
41.18088,398.24,454.09
41.20050,396.58,456.61
41.22087,397.23,457.29
41.24294,395.97,459.78
41.26224,395.03,460.90
41.28249,394.68,461.46
41.30179,397.25,462.70
41.32160,396.14,465.11
41.34183,395.68,464.42
41.36211,396.92,467.04
41.38223,399.19,469.03
41.40206,399.52,467.62
41.42272,399.20,469.10
41.44426,396.79,470.18
41.46530,395.24,468.65
41.48468,395.52,467.38
41.50587,395.25,468.02
41.52430,396.98,466.14
41.54545,397.02,465.58
41.56595,396.82,466.77
41.58654,395.73,466.57
41.60529,395.00,466.22
41.62594,393.82,468.39
41.64638,395.31,469.21
41.66526,395.80,466.30
41.68532,396.44,468.46
41.70539,397.72,467.65
41.72595,396.66,468.57
41.74652,397.34,467.95
41.76754,394.39,466.68
41.78767,393.03,464.04
41.80829,391.97,465.31
41.83075,394.22,466.28
41.85068,393.96,465.75
41.86975,394.68,488.86
41.89154,395.82,525.92
41.91224,400.18,574.76
41.93135,403.86,616.94
41.95187,406.03,645.87
41.97115,407.28,660.20
41.99220,408.36,658.59
42.01192,407.70,649.84
42.03229,410.19,638.05
42.05234,407.97,618.54
42.07240,406.18,594.49
42.09281,404.29,567.75
42.11233,401.96,544.52
42.13346,398.98,524.08
42.15380,395.96,504.44
42.17262,395.70,490.85
42.19306,393.28,478.28
42.21366,389.72,468.02
42.23255,394.07,461.01
42.25362,392.32,456.63
42.27235,393.57,452.09
42.29301,393.50,447.03
42.31250,392.20,449.70
42.33353,394.38,446.98
42.35283,394.34,449.85
42.37212,392.10,445.74
42.39373,393.69,444.33
42.41354,390.83,447.77
42.43252,392.14,448.30
42.45283,391.27,451.65
42.47228,393.78,450.14
42.49313,395.02,452.22
42.51348,392.42,453.18
42.53302,391.12,454.37
42.55365,393.79,453.97
42.57294,391.86,454.37
42.59290,391.40,460.46
42.61317,393.62,458.61
42.63259,395.23,459.35
42.65311,393.05,461.71
42.67320,392.72,464.11
42.69290,394.76,463.42
42.71206,392.64,465.09
42.73189,393.13,465.64
42.75267,394.41,465.75
42.77333,393.86,463.44
42.79354,393.33,466.21
42.81296,393.95,464.90
42.83341,396.09,464.66
42.85192,393.13,463.37
42.87289,396.63,465.57
42.89205,397.29,464.31
42.91329,398.71,467.11
42.93254,396.33,466.32
42.95227,397.74,469.05
42.97302,399.13,462.42
42.99310,395.95,452.00
43.01221,394.55,442.52
43.03333,392.66,430.85
43.05294,389.12,419.32
43.07209,388.37,408.50
43.09293,388.51,394.01
43.11366,386.13,388.19
43.13313,385.60,383.43
43.15210,385.39,379.22
43.17390,386.26,378.45
43.19386,386.99,382.26
43.21282,388.22,382.80
43.23298,388.43,387.65
43.25296,387.48,394.17
43.27390,392.73,400.95
43.29275,393.87,407.13
43.31270,392.26,414.73
43.33209,395.68,421.65
43.35278,396.93,428.74
43.37367,396.38,432.35
43.39194,395.01,437.88
43.41190,398.24,444.97
43.43230,395.15,447.75
43.45287,397.10,448.36
43.47448,400.84,451.29
43.49451,401.49,449.09
43.51482,402.73,449.74
43.53544,401.87,454.80
43.55471,401.00,456.65
43.57607,400.44,457.49
43.59591,402.35,456.44
43.61570,401.29,461.55
43.63517,402.22,459.82
43.65693,398.17,464.27
43.67635,400.58,465.61
43.69673,399.79,463.62
43.71729,400.26,464.56
43.73677,400.22,466.07
43.75643,399.12,464.24
43.77716,397.47,467.41
43.79660,398.37,468.03
43.81758,399.68,465.97
43.83700,399.85,466.49
43.85771,399.19,469.06
43.87721,398.06,465.92
43.89869,396.71,467.46
43.91828,397.46,465.18
43.93846,397.54,465.28
43.95817,396.73,467.46
43.97765,397.99,478.73
43.99693,394.92,495.15
44.01854,396.07,523.83
44.03832,394.36,547.17
44.05702,396.10,567.02
44.07752,394.05,582.91
44.09886,396.72,594.04
44.11790,400.54,599.62
44.13769,402.95,601.07
44.15814,402.14,591.98
44.17884,403.41,579.48
44.19773,400.59,565.89
44.21789,402.07,553.10
44.23975,400.43,538.14
44.25956,399.96,526.41
44.28162,398.55,514.89
44.29983,395.42,508.08
44.32242,398.02,500.65
44.34279,393.40,490.12
44.36479,395.63,485.52
44.38348,394.80,480.65
44.40361,395.60,477.95
44.42407,394.90,473.78
44.44469,395.16,469.05
44.46404,395.98,468.83
44.48560,396.90,464.67
44.50550,394.19,463.96
44.52594,394.59,464.48
44.54563,395.44,462.03
44.56682,396.82,460.78
44.58729,396.76,458.03
44.60709,394.33,458.99
44.62752,394.54,461.22
44.64725,394.44,459.71
44.66783,392.57,462.79
44.68709,394.77,463.13
44.70797,394.72,461.20
44.72780,394.26,463.23
44.74868,394.88,464.13
44.76768,395.86,462.76
44.78787,392.82,461.73
44.80688,391.59,462.77
44.82890,391.83,461.04
44.84775,394.84,464.06
44.86695,392.32,463.76
44.88817,390.85,461.54
44.90828,393.29,463.89
44.92719,390.78,464.90
44.94725,392.54,463.27
44.96771,395.05,464.53
44.98761,394.12,463.55
45.00710,396.43,466.37
45.02720,393.66,467.92
45.04789,395.27,468.28
45.06798,398.27,467.62
45.08735,397.76,464.60
45.10805,398.92,465.31
45.12904,397.51,457.30
45.14843,397.98,444.19
45.16961,400.17,431.67
45.18782,395.98,418.80
45.20947,398.82,406.60
45.22988,395.99,394.39
45.24966,394.17,380.38
45.26782,394.66,373.80
45.28814,391.96,367.85
45.30779,389.79,368.40
45.32906,389.99,367.24
45.34980,386.76,371.28
45.37048,390.60,378.43
45.38930,392.85,384.51
45.40927,393.59,393.30
45.43082,392.03,400.77
45.45046,391.96,409.15
45.47065,392.41,419.11
45.48976,390.69,424.90
45.50973,389.90,429.03
45.52998,389.99,434.96
45.54969,392.64,440.60
45.57097,393.12,446.15
45.58952,396.75,451.64
45.60888,398.12,454.32
45.63125,398.21,455.34
45.65073,396.98,461.00
45.67114,398.57,460.81
45.69240,399.71,463.06
45.71243,400.66,465.22
45.73253,397.30,466.24
45.75245,397.69,465.25
45.77200,398.32,465.95
45.79241,400.31,468.80
45.81141,398.49,467.97
45.83257,398.83,470.40
45.85267,399.28,469.01
45.87297,400.77,468.32
45.89241,399.98,469.85
45.91110,396.67,469.29
45.93193,397.52,469.34
45.95302,396.41,471.53
45.97381,394.60,470.99
45.99299,396.28,468.47
46.01214,395.64,470.13
46.03315,394.32,469.83
46.05246,395.18,473.19
46.07262,394.90,473.58
46.09191,392.62,474.53
46.11238,392.01,473.62
46.13315,395.85,471.00
46.15232,395.05,468.07
46.17223,393.89,468.66
46.19395,394.37,468.70
46.21565,393.20,466.65
46.23557,394.78,473.33
46.25570,396.13,491.20
46.27668,398.04,519.43
46.29529,400.80,548.86
46.31511,402.95,577.71
46.33479,403.97,595.81
46.35549,404.64,611.45
46.37641,404.69,614.96
46.39635,404.69,613.46
46.41572,403.98,604.05
46.43610,403.41,589.18
46.45655,402.67,573.83
46.47543,399.43,559.10
46.49536,396.81,546.74
46.51528,396.77,535.11
46.53510,396.33,527.15
46.55661,394.87,517.63
46.57542,394.48,508.34
46.59633,395.04,498.72
46.61843,395.47,491.05
46.63728,395.32,488.05
46.65843,392.36,481.12
46.67868,392.92,479.33
46.69968,393.74,473.86
46.71926,392.88,471.40
46.74035,392.20,469.03
46.76014,392.27,470.97
46.78142,393.33,471.34
46.80165,392.27,468.82
46.82151,391.90,471.03
46.84044,394.27,466.72
46.86057,391.71,467.92
46.88134,393.72,468.91
46.90173,393.52,470.03
46.92014,393.02,468.63
46.94163,390.27,470.77
46.96134,394.54,469.20
46.98153,393.12,468.54
47.00051,393.03,468.80
47.02036,392.74,469.39
47.04082,393.34,466.69
47.06002,393.59,466.92
47.08178,396.29,467.71
47.10147,393.54,466.48
47.12076,394.64,467.19
47.13998,393.25,470.37
47.16041,391.26,461.25
47.18017,390.88,447.39
47.20092,390.72,427.34
47.22074,388.30,410.66
47.24046,388.69,394.97
47.26062,385.17,382.44
47.27987,385.16,373.69
47.30053,385.54,368.25
47.31992,382.20,367.27
47.34117,381.45,364.81
47.36049,383.06,369.55
47.38178,383.66,372.66
47.39996,385.48,380.08
47.42100,388.16,389.12
47.43994,387.71,396.70
47.46139,390.43,404.80
47.48067,390.57,410.60
47.50057,392.67,414.94
47.52128,391.50,421.50
47.54007,391.32,430.67
47.56005,389.91,432.41
47.58075,390.10,438.03
47.60071,394.67,441.54
47.61966,393.49,444.21
47.64132,392.21,446.74
47.66044,394.78,448.31
47.68110,395.47,451.86
47.70167,391.55,454.24
47.71969,393.58,455.85
47.74113,394.11,459.37
47.76008,392.41,459.14
47.78155,393.62,461.47
47.80132,395.17,464.10
47.82071,393.58,463.27
47.84145,394.61,462.46
47.86009,393.79,463.84
47.88156,393.93,466.76
47.90105,393.48,466.14
47.92047,394.02,465.76
47.94025,392.57,468.46
47.96036,394.61,467.62
47.98143,393.48,468.21
47.99991,392.59,468.65
48.02125,392.02,470.34
48.04033,394.63,469.34
48.06036,392.90,467.67
48.08075,393.97,466.88
48.10010,394.02,467.15
48.12040,392.81,468.22
48.13981,392.30,467.93
48.15990,395.75,468.41
48.18024,395.73,469.61
48.19989,393.64,467.71
48.22135,393.37,471.65
48.24081,394.64,469.43
48.26049,395.41,469.78
48.28152,395.58,471.20
48.30047,396.82,470.50
48.32088,394.79,471.05
48.34257,396.56,470.44
48.36087,396.71,470.18
48.38091,395.14,468.65
48.40180,393.73,469.92
48.42104,392.56,470.62
48.44191,395.43,470.29
48.46221,393.43,471.11
48.48183,393.71,468.30
48.50211,395.18,485.07
48.52070,397.79,510.41
48.54142,396.72,541.56
48.56240,397.35,571.23
48.58085,400.72,590.77
48.60113,399.37,596.06
48.62087,401.68,588.41
48.64291,399.21,580.58
48.66362,398.55,571.84
48.68327,398.01,559.95
48.70216,396.72,543.08
48.72370,399.18,536.36
48.74287,397.22,524.22
48.76288,397.21,515.72
48.78249,397.86,509.48
48.80230,400.29,502.87
48.82179,396.45,498.56
48.84362,397.33,497.02
48.86264,397.56,496.44
48.88323,398.04,494.67
48.90501,398.38,492.02
48.92449,397.38,491.06
48.94464,397.23,488.48
48.96424,394.84,484.94
48.98449,394.66,486.52
49.00373,396.86,484.96
49.02423,396.24,483.85
49.04518,393.84,482.08
49.06458,396.14,480.93
49.13254,394.39,481.72
49.13349,396.05,480.76
49.13212,393.06,478.14
49.14419,396.08,476.79
49.16394,396.10,477.80
49.18412,393.37,477.23
49.20449,396.04,478.10
49.22539,393.16,478.68
49.24426,393.76,477.15
49.26561,394.86,475.16
49.28461,393.42,476.56
49.30507,396.39,477.35
49.32555,393.68,476.14
49.34447,396.85,475.13
49.36432,394.63,475.70
49.38423,394.95,474.15
49.40386,398.00,474.11
49.42428,398.62,473.78
49.44420,395.99,473.43
49.46634,395.68,473.67
49.48557,396.53,473.94
49.50745,397.29,472.80
49.52706,396.86,469.56
49.54625,393.88,470.38
49.56711,393.52,469.35
49.58573,394.06,467.96
49.60689,394.62,469.43
49.62771,394.92,469.87
49.64655,393.99,469.13
49.66642,393.23,468.81
49.68582,396.02,468.44
49.70727,394.23,470.65
49.72860,396.48,471.89
49.74825,395.42,470.69
49.76741,392.89,461.18
49.78830,391.55,446.44
49.80879,386.46,429.44
49.82954,385.63,411.55
49.84932,385.37,400.38
49.86995,384.06,390.11
49.89044,383.71,381.59
49.90981,388.08,379.70
49.92934,386.69,378.00
49.95005,387.90,379.88
49.96924,390.44,382.41
49.98994,390.24,388.61
50.00917,389.92,395.62
50.02978,393.20,398.97
50.05003,391.27,408.57
50.07035,391.72,412.96
50.08904,391.47,417.63
50.11026,392.72,425.12
50.12938,392.36,432.01
50.14934,393.00,437.23
50.16888,393.49,442.20
50.19031,396.11,444.84
50.21026,395.21,449.99
50.22994,395.83,449.13
50.24915,397.53,455.15
50.27038,394.03,455.44
50.28985,394.91,456.74
50.30958,392.85,458.17
50.32929,394.87,459.18
50.34878,392.19,462.92
50.36905,392.27,462.57
50.39003,392.11,462.77
50.40995,392.35,465.78
50.43012,391.29,464.26
50.45147,391.41,465.21
50.47035,394.00,470.25
50.48985,392.66,470.21
50.51098,391.24,471.76
50.53028,393.92,474.64
50.55145,391.31,473.04
50.57091,391.95,472.50
50.59127,393.18,472.52
50.61226,393.33,471.40
50.63291,393.21,471.54
50.65352,394.58,471.52
50.67280,394.85,472.58
50.69244,392.77,470.68
50.71176,394.43,469.34
50.73153,395.80,471.39
50.75295,392.80,469.23
50.77265,393.87,468.09
50.79280,394.82,468.02
50.81346,395.22,467.60
50.83493,394.67,469.40
50.85494,391.61,467.27
50.87650,394.87,468.64
50.89565,394.22,469.11
50.91750,395.09,474.95
50.93807,396.96,488.93
50.95704,399.38,513.92
50.97831,400.02,538.89
50.99790,399.43,561.39
51.01803,401.87,571.96
51.03723,401.47,571.33
51.05740,400.97,563.91
51.07828,401.15,556.14
51.09763,400.05,543.33
51.11825,398.06,534.80
51.13714,398.54,527.60
51.15795,401.72,533.60
51.17747,401.93,533.08
51.19671,403.30,531.12
51.21713,404.71,524.74
51.23785,404.19,517.90
51.25776,404.71,514.79
51.27763,403.70,505.93
51.29829,402.78,502.70
51.31779,400.87,495.97
51.33855,400.29,495.18
51.35889,398.78,490.06
51.37887,398.78,489.16
51.39860,401.33,487.55
51.41996,398.62,485.57
51.44022,398.24,483.31
51.46152,400.91,480.54
51.48147,398.86,476.78
51.50109,401.53,474.68
51.52268,399.17,474.36
51.54292,396.76,476.12
51.56363,398.67,471.76
51.58286,397.02,474.49
51.60215,397.07,470.61
51.62312,394.81,471.59
51.64335,399.03,468.36
51.66304,396.73,470.46
51.68354,398.40,468.56
51.70261,399.29,468.67
51.72178,396.47,469.30
51.74210,395.50,470.06
51.76243,392.04,471.41
51.78450,394.37,472.11
51.80460,394.37,475.83
51.82375,396.23,472.88
51.84543,396.11,472.23
51.86431,395.12,473.59
51.88535,395.64,472.19
51.90571,394.86,472.41
51.92555,395.45,471.42
51.94370,395.16,469.09
51.96510,392.91,467.02
51.98417,393.55,467.96
52.00497,394.30,468.94
52.02372,392.41,464.80
52.04501,392.59,464.97
52.06395,391.59,463.76
52.08432,392.76,465.13
52.10509,391.51,465.68
52.12529,392.27,465.34
52.14413,392.73,464.38
52.16394,394.33,456.81
52.18527,395.67,438.86
52.20545,395.27,428.56
52.22498,394.40,424.59
52.24445,394.71,423.38
52.26407,395.44,424.92
52.28385,393.70,426.80
52.30481,393.61,431.54
52.32491,394.49,433.27
52.34511,393.60,436.55
52.36375,393.32,442.26
52.38642,396.14,443.28
52.40701,394.57,444.65
52.42674,391.60,449.36
52.44685,395.00,450.48
52.46778,393.16,454.51
52.48771,393.46,456.92
52.50793,393.04,458.13
52.52672,396.34,460.07
52.54748,393.94,459.83
52.56843,395.40,458.80
52.58768,393.77,460.65
52.60825,392.74,462.72
52.62952,395.55,463.02
52.64875,396.37,461.69
52.66924,396.17,463.37
52.68944,394.39,462.22
52.70787,395.98,465.68
52.72815,395.50,467.80
52.74916,396.49,464.96
52.76864,396.70,465.78
52.78804,392.95,468.15
52.80865,392.13,469.96
52.82945,394.84,471.53
52.84844,395.66,471.41
52.86804,392.68,469.43
52.88883,393.27,472.81
52.90904,392.12,470.65
52.92897,393.57,475.13
52.94914,393.99,476.42
52.96964,392.40,485.86
52.98940,396.57,501.60
53.00803,394.89,516.11
53.02949,395.60,524.70
53.04872,397.76,523.98
53.06868,397.18,520.55
53.08919,398.18,514.32
53.10769,396.72,512.99
53.12793,395.37,504.07
53.14917,398.57,501.50
53.16825,397.51,495.44
53.18903,393.99,488.24
53.20776,395.20,483.47
53.22821,395.09,478.87
53.24906,393.42,476.84
53.26922,393.51,474.05
53.28864,395.28,471.38
53.30840,395.30,471.76
53.32941,391.04,471.17
53.34933,391.84,468.52
53.36933,393.08,466.07
53.38901,390.50,468.18
53.40911,390.43,466.11
53.42778,389.77,467.90
53.44808,390.40,469.33
53.46934,391.27,464.84
53.48793,395.28,457.17
53.50940,401.10,448.01
53.52824,400.46,441.62
53.54887,402.40,443.03
53.56967,403.02,438.82
53.58867,402.51,440.07
53.60857,401.82,442.43
53.63035,397.99,446.14
53.65004,398.08,448.56
53.66928,397.20,451.01
53.68888,398.34,453.21
53.70961,397.78,455.27
53.72968,398.82,459.53
53.75048,399.06,462.23
53.76890,400.53,461.48
53.79014,399.83,462.89
53.80936,398.69,464.86
53.82907,400.02,462.25
53.84972,408.94,458.60
53.86954,415.11,459.68
53.88924,418.09,458.51
53.91112,417.58,451.72
53.93210,412.48,440.42
53.95234,408.42,421.47
53.97261,400.23,405.93
53.99255,393.81,387.22
54.01353,388.17,379.14
54.03217,379.76,372.33
54.05337,380.03,366.37
54.07257,373.95,368.24
54.09280,374.67,373.23
54.11356,375.16,380.65
54.13157,373.57,386.71
54.15272,375.20,394.37
54.17164,375.00,405.33
54.19265,377.87,412.03
54.21337,381.00,416.26
54.23354,382.16,424.79
54.25282,381.56,430.56
54.27333,381.20,436.01
54.29161,385.59,442.36
54.31326,384.98,443.58
54.33218,386.78,450.27
54.35272,390.46,450.56
54.37353,387.97,456.30
54.39309,391.01,455.39
54.41393,391.13,459.62
54.43270,389.29,463.58
54.45332,389.32,467.88
54.47355,389.05,473.40
54.49286,389.41,474.77
54.51410,390.93,476.80
54.53359,389.28,477.01
54.55435,390.77,476.06
54.57348,392.67,475.55
54.59390,393.55,476.15
54.61279,397.57,479.42
54.63422,399.17,484.79
54.65354,403.16,486.10
54.67395,403.66,486.51
54.69412,404.36,486.66
54.71338,404.36,487.78
54.73328,404.76,487.42
54.75429,403.97,483.64
54.77330,400.38,483.97
54.79457,400.89,479.50
54.81469,400.37,480.30
54.83362,398.20,477.19
54.85362,395.94,479.36
54.87429,395.47,478.10
54.89388,398.59,476.53
54.91533,395.52,472.67
54.93365,396.93,473.53
54.95418,397.45,472.40
54.97551,395.21,472.55
54.99657,392.22,471.74
55.01625,391.57,468.05
55.03559,392.01,469.57
55.05768,393.51,466.68
55.07620,390.69,465.84
55.09805,388.71,470.20
55.11788,387.38,490.19
55.13882,387.02,518.72
55.15853,389.98,548.55
55.17927,393.08,573.80
55.19879,392.17,585.70
55.21856,394.89,586.45
55.24057,396.54,578.10
55.26052,393.07,568.80
55.28013,394.20,557.49
55.29947,395.37,547.43
55.31969,396.00,535.33
55.34055,392.48,525.47
55.36092,394.74,519.03
55.38148,394.85,508.45
55.40058,396.48,501.05
55.42163,395.41,496.18
55.44229,393.89,492.97
55.46242,394.15,488.12
55.48359,392.88,484.06
55.50258,395.37,481.21
55.52241,394.76,480.00
55.54182,394.89,479.09
55.56292,393.07,477.34
55.58163,392.27,473.58
55.60290,391.47,473.45
55.62332,389.45,474.64
55.64317,390.74,472.70
55.66303,390.22,471.70
55.68210,391.27,469.01
55.70309,390.98,470.44
55.72299,393.35,467.77
55.74344,389.53,469.52
55.76266,392.84,467.61
55.78433,391.86,465.75
55.80402,392.26,466.48
55.82331,392.56,469.52
55.84425,391.49,468.44
55.86506,392.97,467.01
55.88501,393.18,470.51
55.90543,394.83,470.28
55.92572,394.11,467.22
55.94468,394.27,467.33
55.96718,395.95,466.26
55.98632,394.36,465.53
56.00657,394.05,467.87
56.02730,393.49,467.02
56.04684,393.59,468.97
56.06838,394.01,468.16
56.08968,394.41,466.35
56.10965,396.38,467.66
56.13093,394.35,465.97
56.15199,396.23,466.62
56.17304,395.04,466.18
56.19280,396.15,468.17
56.21304,393.95,466.46
56.23358,395.72,466.27
56.25326,397.36,464.33
56.27195,396.93,463.97
56.29306,395.35,465.61
56.31337,395.78,465.52
56.33355,394.99,467.54
56.35294,395.87,468.20
56.37215,395.82,466.14
56.39257,395.80,467.69
56.41263,397.35,463.91
56.43176,393.20,467.58
56.45329,394.57,466.89
56.47317,393.59,466.50
56.49322,391.78,456.96
56.51270,392.00,440.47
56.53346,390.54,422.92
56.55190,386.46,408.61
56.57166,382.41,393.89
56.59254,384.13,383.96
56.61198,382.51,375.89
56.63169,384.55,369.69
56.65355,386.55,367.49
56.67246,388.57,369.56
56.69221,389.36,372.93
56.71352,387.47,380.30
56.73234,387.88,387.38
56.75390,389.08,392.42
56.77462,389.47,400.33
56.79403,390.44,409.12
56.81364,392.39,413.96
56.83494,391.49,420.56
56.85397,395.08,427.14
56.87532,396.31,433.03
56.89480,396.06,439.43
56.91361,394.87,445.89
56.93474,394.83,448.27
56.95458,400.65,453.47
56.97642,402.90,454.30
56.99739,401.44,456.24
57.01830,403.28,456.22
57.03686,404.76,456.15
57.05768,402.57,461.50
57.07795,403.17,460.56
57.09956,404.09,464.05
57.11908,400.00,461.34
57.13819,397.44,462.37
57.15818,396.62,465.39
57.17817,399.34,463.96
57.19782,394.86,463.17
57.21776,393.55,465.94
57.23858,394.73,464.03
57.25797,392.87,466.54
57.27892,394.09,463.79
57.29895,394.61,464.92
57.31905,395.39,466.17
57.33871,394.95,465.27
57.35848,394.75,466.19
57.37953,394.17,468.39
57.39850,392.63,467.90
57.41866,392.87,466.02
57.43878,390.22,468.34
57.46009,391.74,465.10
57.48001,392.15,467.18
57.49957,392.40,464.77
57.52020,393.90,464.57
57.53921,390.17,464.37
57.55933,393.71,466.98
57.57843,390.87,466.39
57.59831,392.62,467.61
57.61935,393.46,464.70
57.63956,393.95,468.40
57.66001,390.10,467.45
57.68044,391.16,466.35
57.69969,389.35,464.98
57.71887,391.45,466.96
57.73996,389.68,466.24
57.75994,390.08,462.69
57.77890,388.56,460.94
57.79976,391.40,461.00
57.81971,388.98,461.45
57.83948,388.86,460.56
57.85856,391.53,459.06
57.87988,387.52,461.06
57.89891,388.21,462.00
57.91938,390.23,459.17
57.93931,391.10,458.81
57.95913,392.66,468.19
57.97875,393.69,485.35
57.99999,393.21,518.44
58.01948,398.22,546.05
58.03899,399.40,570.49
58.05947,400.44,584.42
58.07919,401.82,587.49
58.10010,402.68,583.60
58.12010,402.63,570.83
58.13971,403.00,561.18
58.15930,401.11,551.47
58.17866,401.25,537.82
58.19908,401.42,530.51
58.22002,400.54,519.33
58.23902,398.83,512.50
58.25977,398.97,506.00
58.27932,402.33,502.50
58.30007,399.94,496.18
58.31963,397.07,491.01
58.33899,396.71,488.33
58.36032,397.59,485.85
58.38033,395.51,482.76
58.39911,395.01,477.63
58.42023,398.96,476.02
58.43911,397.98,466.57
58.45971,396.89,456.28
58.48024,394.71,452.57
58.49932,394.04,446.96
58.51960,393.17,445.75
58.54015,393.85,444.53
58.55968,397.36,446.85
58.57960,395.85,447.68
58.60007,397.49,448.95
58.62000,395.29,454.11
58.63861,396.35,452.75
58.65853,398.22,456.00
58.67886,396.71,459.98
58.69908,397.57,460.80
58.71992,397.52,463.18
58.73936,399.19,464.35
58.76001,398.52,465.53
58.77923,398.81,466.69
58.79905,398.84,466.87
58.81984,395.55,467.50
58.84036,399.12,468.92
58.86013,395.75,470.21
58.87924,396.11,471.08
58.89996,396.78,473.51
58.92036,396.05,486.38
58.93946,393.27,501.92
58.96023,381.37,516.46
58.97882,374.51,520.28
58.99990,375.29,512.11
59.01924,373.07,503.54
59.04010,373.07,493.90
59.06033,375.82,483.18
59.08048,377.29,476.68
59.09999,380.72,466.78
59.12091,382.57,460.25
59.14107,383.93,456.76
59.16117,385.25,453.99
59.18115,384.61,449.24
59.20181,388.46,448.59
59.22220,390.69,448.50
59.24206,391.93,451.36
59.26097,395.60,449.23
59.28041,395.48,451.49
59.30209,395.23,456.39
59.32206,399.52,457.75
59.34081,397.42,457.49
59.36113,399.04,458.61
59.38078,398.81,458.21
59.40156,399.07,460.56
59.42185,398.58,463.71
59.44080,399.83,466.54
59.46094,398.06,468.85
59.48155,400.82,469.79
59.50083,404.24,467.64
59.52201,410.57,457.14
59.54213,415.50,450.20
59.56199,417.66,448.10
59.58232,417.02,447.42
59.60240,415.95,448.23
59.62206,414.57,449.94
59.64360,415.84,453.07
59.66229,414.22,454.55
59.68308,414.13,456.13
59.70409,410.34,455.72
59.72492,410.34,454.72
59.74724,409.76,454.17
59.76703,407.29,455.13
59.78563,405.63,457.40
59.80617,406.77,459.46
59.82581,405.98,460.79
59.84725,401.26,463.68
59.86699,404.28,467.89
59.88582,403.68,469.50
59.90669,402.95,472.11
59.92616,399.35,471.11
59.94657,396.43,471.23
59.96641,396.86,473.44
59.98611,395.52,474.04
