Program Time [s],data 0,data 1
5.07457,820.73,1068.02
5.09554,770.42,1068.45
5.11508,735.87,1056.17
5.13527,698.43,939.24
5.15568,656.07,899.81
5.17676,618.90,898.86
5.19678,599.06,832.29
5.21612,562.18,785.87
5.23660,543.71,752.55
5.25731,515.93,680.50
5.27702,502.74,606.17
5.29615,480.36,589.34
5.31662,467.95,565.95
5.33624,482.40,483.92
5.35573,512.53,461.41
5.37682,537.01,410.02
5.39711,558.80,340.76
5.41586,562.08,297.32
5.43708,573.16,295.76
5.45619,559.85,239.63
5.47826,530.72,260.62
5.49673,510.89,269.00
5.51822,488.91,222.25
5.53933,447.26,192.00
5.55905,446.85,160.50
5.58010,448.77,175.56
5.60008,405.02,195.15
5.61935,362.42,188.96
5.63855,331.24,202.78
5.66007,321.98,248.76
5.67905,302.90,220.13
5.69883,292.37,256.01
5.72045,269.11,238.16
5.73942,247.58,210.21
5.75892,249.27,213.24
5.77974,279.42,214.30
5.79867,279.78,212.30
5.81871,319.48,212.59
5.83904,335.48,185.83
5.86012,358.15,204.48
5.88043,370.79,166.32
5.89846,357.25,135.53
5.91934,342.77,109.53
5.94021,336.66,129.35
5.95943,309.43,142.65
5.97954,305.82,178.14
5.99864,296.26,215.95
6.01934,288.32,248.74
6.03894,279.82,253.08
6.05973,291.03,262.59
6.07916,291.58,269.17
6.09938,310.41,291.55
6.12007,318.42,318.56
6.14000,325.74,368.26
6.15858,335.84,401.36
6.18026,352.41,437.88
6.19934,358.13,452.94
6.21952,357.25,458.40
6.23849,364.70,452.14
6.25947,375.66,445.85
6.27867,385.40,454.19
6.30017,394.60,462.91
6.31926,408.42,480.36
6.33912,423.02,525.38
6.35949,434.15,559.48
6.37971,442.68,603.47
6.39850,453.61,632.10
6.41839,457.67,644.11
6.43893,455.50,637.16
6.45893,454.49,619.83
6.47912,455.76,600.50
6.49891,459.66,579.13
6.51926,465.54,568.01
6.53990,467.61,551.71
6.55854,473.73,542.87
6.58021,474.97,523.45
6.60024,476.81,522.69
6.62014,475.69,521.61
6.63998,469.58,521.71
6.65910,469.60,526.95
6.67846,469.73,523.04
6.69885,470.88,524.84
6.71858,469.31,521.65
6.73913,475.21,520.75
6.75913,479.40,511.30
6.77914,483.32,509.12
6.79966,488.37,505.93
6.82096,492.89,508.04
6.83968,500.23,505.95
6.86101,503.87,507.28
6.88069,509.00,502.25
6.90099,511.78,507.77
6.91950,513.51,508.70
6.94033,515.96,505.72
6.96030,517.02,504.91
6.97936,519.26,508.36
7.00018,518.43,509.72
7.01938,520.07,511.47
7.04047,519.60,517.48
7.06049,521.41,522.18
7.08001,522.10,523.44
7.10222,520.81,530.95
7.12060,521.76,532.76
7.14195,526.25,536.11
7.16226,525.45,535.71
7.18232,526.54,533.31
7.20358,531.80,532.70
7.22288,532.18,534.96
7.24387,536.32,533.07
7.26365,540.15,531.01
7.28395,537.87,532.17
7.30332,537.34,531.68
7.32316,539.65,531.12
7.34353,538.74,525.81
7.36259,541.77,528.60
7.38402,538.98,528.54
7.40384,538.55,529.12
7.42337,538.46,529.51
7.44375,539.87,531.42
7.46414,538.56,529.61
7.48515,536.05,534.35
7.50382,539.37,551.77
7.52467,541.00,575.99
7.54428,543.66,597.21
7.56479,542.19,622.13
7.58413,541.51,643.81
7.60509,545.75,654.35
7.62519,546.29,654.70
7.64393,545.64,653.15
7.66345,543.31,659.43
7.68422,545.02,653.68
7.70389,546.23,645.05
7.72425,545.53,634.77
7.74396,543.99,629.28
7.76367,543.16,616.24
7.78502,542.32,607.44
7.80475,538.63,598.87
7.82386,537.83,594.95
7.84362,543.03,587.68
7.86493,543.54,579.86
7.88451,542.57,576.92
7.90384,540.31,573.01
7.92452,541.23,567.21
7.94352,540.23,566.59
7.96398,544.16,568.15
7.98523,542.03,567.95
8.00468,540.24,567.98
8.02505,539.69,567.72
8.04461,538.86,563.25
8.06457,537.14,561.14
8.08333,539.05,560.45
8.10373,540.29,557.26
8.12356,539.40,553.33
8.14325,538.41,552.78
8.16433,539.56,548.64
8.18357,541.09,550.19
8.20541,541.52,549.79
8.22410,541.31,548.51
8.24514,537.36,549.69
8.26514,536.70,546.89
8.28437,536.68,548.63
8.30445,537.26,552.12
8.32535,538.76,549.57
8.34629,539.22,547.42
8.36556,539.03,549.92
8.38443,538.59,549.85
8.40447,535.70,550.34
8.42494,538.05,552.70
8.44463,541.74,553.57
8.46480,541.00,538.57
8.48597,536.18,508.16
8.50476,532.24,471.69
8.52520,532.19,439.50
8.54441,530.98,415.80
8.56575,530.17,403.35
8.58626,530.82,404.80
8.60437,531.00,410.60
8.62596,536.64,416.74
8.64544,536.32,425.57
8.66605,532.91,432.16
8.68629,534.45,439.35
8.70576,534.93,450.05
8.72469,536.04,459.57
8.74631,536.62,469.96
8.76519,537.33,476.86
8.78557,535.50,485.32
8.80528,537.02,493.77
8.82541,539.72,501.34
8.84486,538.25,506.32
8.86441,538.12,509.29
8.88480,537.92,515.30
8.90610,538.05,515.76
8.92592,536.40,516.08
8.94470,539.26,522.65
8.96461,534.68,521.94
8.98571,535.80,525.44
9.00498,535.24,525.34
9.02449,537.17,526.26
9.04616,536.73,524.74
9.06534,536.96,525.41
9.08565,531.36,525.40
9.10601,533.40,527.77
9.12460,535.59,528.72
9.14531,532.46,529.56
9.16456,536.20,528.66
9.18567,535.94,529.20
9.20464,539.75,533.67
9.22518,537.26,534.05
9.24484,537.62,532.50
9.26594,542.30,536.90
9.28559,549.60,539.05
9.30601,549.58,543.60
9.32440,551.77,546.56
9.34487,550.67,552.41
9.36552,548.10,552.98
9.38460,550.35,551.14
9.40472,547.85,552.39
9.42569,541.16,544.49
9.44727,541.65,546.25
9.46750,541.37,543.27
9.48687,538.49,541.46
9.50820,538.71,540.87
9.52845,530.87,537.58
9.54820,530.00,538.52
9.56826,526.64,541.65
9.58870,530.27,540.08
9.60891,527.49,540.15
9.62882,524.73,541.96
9.64797,527.33,541.92
9.66755,527.20,542.99
9.68744,528.03,546.64
9.70903,526.55,548.74
9.72806,527.13,547.74
9.74948,528.48,550.21
9.77120,521.70,546.39
9.79206,520.46,545.07
9.81098,525.29,545.17
9.83219,517.21,542.66
9.85043,517.86,542.34
9.87087,521.00,535.48
9.89220,519.12,536.04
9.91195,518.36,536.40
9.93072,518.28,535.49
9.95081,518.93,533.90
9.97085,517.05,535.46
9.99186,516.10,532.41
10.01119,514.90,531.02
10.03116,516.61,533.54
10.05105,516.36,534.77
10.07178,519.27,539.81
10.09198,519.44,540.12
10.11195,519.62,538.97
10.13047,521.89,539.22
10.15068,519.42,537.46
10.17097,517.70,539.24
10.19076,519.45,537.49
10.21037,516.43,538.00
10.23068,516.90,540.62
10.25204,517.84,541.54
10.27260,520.74,542.73
10.29169,519.82,540.83
10.31310,519.69,537.28
10.33190,525.44,539.45
10.35303,523.56,534.97
10.37339,522.22,532.59
10.39236,522.89,532.12
10.41298,514.94,531.50
10.43316,516.85,536.06
10.45273,520.99,538.49
10.47176,518.01,537.57
10.49168,519.06,539.04
10.51175,516.80,539.33
10.53301,518.45,538.46
10.55276,518.94,538.81
10.57304,519.97,537.15
10.59317,521.60,537.92
10.61285,522.56,539.49
10.63222,519.66,541.61
10.65301,521.45,540.82
10.67368,518.25,541.55
10.69254,518.01,540.41
10.71449,518.09,541.52
10.73268,516.60,543.66
10.75418,519.22,543.31
10.77386,522.33,541.29
10.79527,518.40,539.88
10.81400,521.31,540.36
10.83384,521.10,540.44
10.85313,522.78,542.10
10.87486,522.84,541.72
10.89449,521.30,542.20
10.91398,518.88,539.21
10.93375,523.12,542.07
10.95344,520.04,540.71
10.97356,520.42,542.54
10.99432,517.34,547.68
11.01486,516.99,548.79
11.03524,515.93,548.95
11.05419,518.43,549.53
11.07359,518.50,549.28
11.09360,517.72,549.03
11.11372,517.43,546.14
11.13460,519.35,546.47
11.15374,517.29,545.67
11.17385,516.20,554.14
11.19470,518.57,570.69
11.21407,520.69,593.90
11.23347,520.81,617.02
11.25497,524.78,631.53
11.27484,525.29,636.58
11.29424,524.47,642.62
11.31409,527.48,646.27
11.33385,526.11,641.29
11.35357,525.60,642.63
11.37442,520.39,641.38
11.39321,517.53,636.26
11.41399,518.99,633.16
11.43346,514.51,619.78
11.45489,516.78,613.82
11.47469,513.78,606.55
11.49543,517.30,602.61
11.51579,518.60,595.79
11.53620,514.83,594.42
11.55446,519.01,589.64
11.57592,522.63,586.34
11.59481,522.75,578.65
11.61591,527.32,576.22
11.68060,527.73,571.02
11.67911,526.97,569.53
11.68055,525.86,565.24
11.69625,523.16,561.66
11.71489,522.69,559.20
11.73710,521.17,556.72
11.75512,525.86,557.82
11.77634,521.63,555.92
11.79624,522.17,556.69
11.81560,519.62,555.46
11.83675,521.83,555.03
11.85680,521.83,555.80
11.87581,523.01,555.16
11.89636,522.11,556.50
11.91587,521.63,559.01
11.93563,525.03,559.49
11.95674,527.71,563.94
11.97716,528.57,562.97
11.99722,525.29,562.90
12.01574,525.48,561.17
12.03690,527.99,560.43
12.05605,524.64,561.17
12.07715,528.35,557.63
12.09705,527.85,556.09
12.11603,526.79,559.00
12.13712,525.40,558.30
12.15545,527.64,555.46
12.17616,525.35,554.95
12.19593,527.00,553.90
12.21730,526.78,557.01
12.23557,525.95,556.26
12.25640,526.95,557.05
12.27668,525.45,553.88
12.29633,529.52,555.96
12.31620,527.94,552.73
12.33722,531.23,552.16
12.35679,530.26,551.08
12.37713,530.90,555.53
12.39597,531.40,548.56
12.41548,531.83,525.43
12.43656,532.59,490.94
12.45569,529.89,463.85
12.47699,527.83,447.02
12.49679,528.20,442.67
12.51820,525.52,437.24
12.53696,527.49,441.83
12.55867,528.47,443.29
12.57832,528.10,454.62
12.59859,532.67,461.98
12.61852,530.27,467.83
12.63772,530.73,474.08
12.65783,530.52,483.11
12.67737,533.64,492.16
12.69909,532.21,500.63
12.71737,535.34,508.13
12.73753,533.04,512.97
12.75766,534.79,520.72
12.77909,536.18,526.69
12.79812,536.97,529.21
12.81924,535.65,531.87
12.83913,538.54,533.67
12.85907,536.65,535.90
12.87865,538.90,536.13
12.89920,536.97,538.12
12.91764,535.46,538.05
12.93813,536.95,541.40
12.95907,535.86,542.17
12.97717,537.23,543.93
12.99803,537.93,550.41
13.01774,538.95,555.76
13.03731,541.42,575.77
13.05849,546.52,605.80
13.07830,550.05,642.01
13.09838,552.61,669.54
13.11828,554.74,675.04
13.13789,552.19,658.65
13.15949,550.04,634.53
13.17812,547.07,609.29
13.19820,543.12,583.31
13.21765,538.92,562.42
13.23713,536.01,543.17
13.25912,534.97,531.17
13.27929,531.94,522.20
13.29802,530.35,514.76
13.31905,529.24,508.61
13.33909,531.24,505.66
13.35740,532.72,507.79
13.37845,531.16,508.20
13.39798,532.69,509.11
13.41879,534.87,514.24
13.43752,533.15,517.91
13.45911,535.42,519.08
13.47782,537.92,524.66
13.49750,534.63,527.87
13.51768,536.49,532.08
13.53755,537.48,535.38
13.55897,539.95,540.78
13.57877,537.86,541.15
13.59738,537.35,543.16
13.61878,538.34,543.74
13.63789,538.51,541.05
13.65767,536.62,543.75
13.67743,537.41,546.56
13.69844,537.28,547.52
13.71830,537.23,549.82
13.73893,536.37,546.18
13.75938,536.41,552.13
13.77876,535.99,553.99
13.79874,538.06,555.86
13.81802,541.58,558.36
13.83913,543.08,559.50
13.85707,542.56,557.44
13.87803,539.90,559.14
13.89855,538.71,559.83
13.91739,538.85,560.51
13.93781,539.63,562.07
13.95774,539.68,562.81
13.97821,536.85,562.39
13.99870,540.90,561.09
14.01902,540.46,561.18
14.03785,540.61,557.90
14.05908,540.42,559.89
14.07809,541.71,559.58
14.09791,538.49,558.90
14.11855,539.14,554.71
14.13860,536.62,556.90
14.15777,536.39,555.07
14.17834,535.03,555.74
14.19741,536.88,558.07
14.21819,539.34,555.66
14.23858,541.12,557.99
14.25885,540.03,556.23
14.27783,544.01,558.24
14.29794,540.75,560.01
14.31736,540.48,556.87
14.33803,539.78,556.13
14.35762,541.86,560.85
14.37865,541.41,557.83
14.39876,540.17,557.47
14.41895,541.79,554.10
14.43763,543.01,554.55
14.45870,544.55,553.44
14.47880,541.35,555.40
14.49840,541.85,555.55
14.51743,539.94,557.17
14.53844,539.35,555.96
14.55836,540.90,553.78
14.57714,542.24,557.47
14.59800,539.72,556.14
14.61873,538.65,556.06
14.63825,540.56,559.53
14.65852,541.49,557.26
14.67901,538.89,557.43
14.69999,539.20,557.44
14.72093,536.35,559.48
14.73989,536.39,561.53
14.75987,536.89,563.43
14.78078,534.02,562.30
14.80077,538.13,565.23
14.82002,536.43,564.99
14.83960,533.68,559.00
14.86084,535.73,558.07
14.87981,536.23,560.73
14.90113,533.29,556.02
14.91960,532.57,556.12
14.94063,536.22,555.55
14.96000,534.38,559.19
14.98054,534.47,559.39
15.00042,533.28,559.55
15.02089,536.61,559.74
15.03908,535.67,560.68
15.05994,536.78,562.34
15.08005,537.61,561.75
15.10074,537.38,560.76
15.11908,536.72,561.88
15.14019,537.11,562.16
15.16045,535.06,563.91
15.18103,535.90,562.06
15.19936,536.49,561.79
15.21997,537.33,562.98
15.24025,537.91,566.45
15.26071,540.05,563.23
15.28009,537.97,564.57
15.30055,534.57,562.38
15.31978,537.78,560.02
15.34006,535.64,558.06
15.36021,537.27,556.60
15.38040,535.46,559.94
15.40079,536.93,571.81
15.42016,539.41,590.85
15.44049,541.96,607.31
15.45983,542.42,623.06
15.48084,541.00,635.98
15.49951,543.71,645.18
15.52065,543.47,646.56
15.54068,541.40,647.05
15.55936,542.52,644.44
15.57948,538.53,636.57
15.60013,538.13,633.55
15.61980,537.85,625.63
15.64031,535.68,615.92
15.66097,536.02,620.02
15.68222,541.82,614.93
15.70130,536.80,620.44
15.72060,538.02,619.43
15.74216,535.09,617.12
15.76328,533.11,614.40
15.78144,530.15,608.37
15.80249,528.54,603.35
15.82242,527.74,601.71
15.84341,527.79,601.91
15.86261,528.92,602.31
15.88260,530.32,597.97
15.90281,527.16,593.04
15.92380,528.36,586.16
15.94331,527.07,582.70
15.96377,528.02,579.01
15.98276,526.38,576.46
16.00443,526.39,571.59
16.02266,526.58,570.00
16.04258,527.22,566.13
16.06400,527.14,567.23
16.08328,525.13,564.75
16.10399,525.58,566.85
16.12285,525.50,560.58
16.14354,523.77,560.66
16.16340,526.85,558.19
16.18386,524.32,558.03
16.20415,523.54,558.83
16.22568,519.56,558.77
16.24560,518.88,554.58
16.26480,518.15,555.54
16.28587,520.28,558.41
16.30481,520.71,555.76
16.32546,520.91,554.88
16.34593,520.32,553.11
16.36490,519.21,555.48
16.38495,521.49,555.32
16.40490,517.52,555.24
16.42531,519.35,555.04
16.44609,517.81,557.99
16.46570,518.82,553.42
16.48543,516.68,554.37
16.50433,518.06,552.63
16.52496,520.10,553.23
16.54448,517.59,558.14
16.56415,515.79,555.65
16.58498,516.16,554.84
16.60488,517.19,559.74
16.62575,516.82,554.39
16.64401,517.92,556.56
16.66552,514.66,559.41
16.68545,514.82,565.21
16.70560,516.44,552.83
16.72535,513.77,528.10
16.74538,513.24,494.22
16.76622,509.02,460.72
16.78424,510.43,441.53
16.80586,510.70,435.01
16.82598,510.06,431.48
16.84508,512.18,436.33
16.86611,510.63,438.70
16.88580,510.52,448.05
16.90419,510.46,461.52
16.92485,511.60,468.52
16.94611,512.36,476.59
16.96526,514.67,485.05
16.98582,514.47,492.33
17.00451,514.04,498.66
17.02424,515.63,501.67
17.04507,517.28,510.83
17.06575,515.23,515.96
17.08453,518.77,521.17
17.10477,516.52,525.86
17.12578,514.12,528.18
17.14425,515.45,531.53
17.16419,514.16,535.00
17.18603,514.29,532.28
17.20575,516.16,535.84
17.22580,517.41,537.36
17.24574,512.91,541.80
17.26584,514.05,544.16
17.28560,516.17,548.83
17.30501,515.11,551.76
17.32513,517.01,550.74
17.34489,516.92,551.23
17.36504,518.21,551.88
17.38440,520.38,552.94
17.40534,515.93,553.64
17.42618,517.57,552.67
17.44466,520.32,551.28
17.46610,518.02,549.22
17.48500,518.08,550.25
17.50539,517.64,548.76
17.52535,516.68,549.97
17.54440,518.19,553.27
17.56560,516.24,554.46
17.58573,519.30,553.97
17.60602,519.62,552.25
17.62533,518.89,549.17
17.64625,517.45,551.36
17.66556,514.89,549.77
17.68539,516.35,550.01
17.70665,519.07,551.48
17.72629,515.92,551.25
17.74700,518.53,551.05
17.76583,518.08,545.89
17.78517,519.21,547.13
17.80528,519.13,546.61
17.82624,518.10,550.82
17.84711,518.64,550.86
17.86593,515.84,551.09
17.88513,514.68,551.03
17.90610,518.43,551.84
17.92649,516.74,552.19
17.94688,519.87,552.02
17.96559,520.46,549.97
17.98622,517.89,550.55
18.00607,515.89,551.92
18.02621,516.95,552.84
18.04586,516.58,558.51
18.06646,516.17,557.66
18.08580,517.34,560.84
18.10585,516.39,558.61
18.12545,514.57,559.83
18.14613,517.70,557.30
18.16640,513.89,558.84
18.18704,516.41,555.92
18.20577,515.04,555.95
18.22640,515.28,555.08
18.24559,514.67,557.08
18.26532,514.47,556.16
18.28661,515.72,554.26
18.30523,517.22,552.01
18.32517,514.69,552.18
18.34617,513.16,551.59
18.36639,513.33,552.38
18.38684,512.16,552.91
18.40548,513.56,552.40
18.42614,517.34,549.60
18.44623,516.04,548.86
18.46696,520.47,550.70
18.48680,519.14,547.74
18.50692,518.91,546.18
18.52648,518.33,548.03
18.54666,519.36,547.13
18.56619,520.62,546.83
18.58541,519.38,548.81
18.60725,518.69,550.91
18.62615,519.62,550.52
18.64643,517.05,549.95
18.66627,519.39,551.68
18.68675,519.82,552.47
18.70701,519.90,548.01
18.72542,520.25,551.68
18.74677,519.82,550.06
18.76564,519.86,548.18
18.78651,518.38,550.86
18.80655,516.67,552.32
18.82578,518.65,551.47
18.84622,518.79,550.39
18.86651,520.76,548.46
18.88530,517.92,547.14
18.90686,520.60,547.03
18.92641,519.69,546.24
18.94671,516.35,547.65
18.96626,515.96,549.98
18.98512,516.50,547.76
19.00671,518.08,547.71
19.02685,514.46,549.44
19.04604,518.24,550.61
19.06560,519.62,548.17
19.08618,516.48,551.69
19.10503,519.60,552.54
19.12684,518.71,551.82
19.14582,518.63,549.38
19.16521,518.38,550.89
19.18641,518.07,552.78
19.20629,518.93,547.59
19.22580,518.78,549.07
19.24526,517.85,550.19
19.26661,517.84,549.75
19.28714,514.25,548.61
19.30552,518.97,548.52
19.32611,516.13,551.01
19.34592,517.93,552.34
19.36615,517.77,551.25
19.38570,516.99,550.35
19.40656,515.31,551.34
19.42632,517.89,550.45
19.44531,515.42,555.12
19.46669,517.99,554.80
19.48533,516.58,554.02
19.50592,518.74,552.57
19.52507,519.07,550.52
19.54719,519.35,551.88
19.56647,521.27,553.69
19.58604,517.27,554.91
19.60647,518.41,555.34
19.62682,517.90,553.10
19.64672,516.82,555.15
19.66633,514.06,552.97
19.68550,516.09,555.06
19.70616,514.39,553.44
19.72679,516.87,554.58
19.74544,516.58,554.41
19.76677,517.69,555.16
19.78654,515.97,552.68
19.80546,519.03,556.19
19.82638,517.64,554.45
19.84542,517.13,554.30
19.86591,513.62,555.11
19.88512,513.64,555.85
19.90521,512.88,556.05
19.92552,516.01,559.37
19.94518,516.46,558.44
19.96583,517.70,555.28
19.98680,518.01,556.79
20.00626,517.75,552.45
20.02512,519.76,555.95
20.04696,518.74,556.79
20.06630,519.88,559.11
20.08545,518.36,572.76
20.10615,516.38,600.94
20.12578,516.58,638.47
20.14642,519.85,660.10
20.16615,522.02,674.99
20.18661,523.79,681.53
20.20512,527.00,677.99
20.22523,526.39,675.44
20.24657,524.95,671.23
20.26611,524.30,660.14
20.28566,522.60,646.24
20.30682,525.14,640.03
20.32564,522.10,626.56
20.34676,523.74,619.07
20.36589,523.06,614.90
20.38635,526.17,605.63
20.40596,524.44,599.96
20.42534,524.25,591.11
20.44682,524.30,589.34
20.46603,523.38,581.17
20.48544,523.40,578.84
20.50699,522.15,576.69
20.52561,522.44,570.20
20.54591,520.31,569.32
20.56666,521.98,567.31
20.58707,521.33,566.86
20.60505,520.97,565.24
20.62638,520.37,563.86
20.64683,521.64,562.29
20.66681,520.90,563.35
20.68657,522.12,562.01
20.70739,524.38,562.55
20.72806,523.87,562.49
20.74809,525.18,561.11
20.76758,525.41,559.17
20.78738,524.77,560.87
20.80857,528.25,558.75
20.82869,525.96,559.18
20.84809,525.79,559.57
20.86764,530.23,555.83
20.88778,528.74,556.61
20.90901,527.52,556.68
20.92773,529.04,552.15
20.94865,527.46,555.07
20.96870,527.64,556.22
20.98748,528.99,554.50
21.00916,529.29,554.82
21.02873,529.42,555.49
21.04731,528.01,553.18
21.06887,529.90,557.68
21.08744,529.53,559.33
21.10894,528.30,564.99
21.12739,528.27,562.15
21.14818,525.13,543.20
21.16909,523.61,507.78
21.18768,520.24,476.62
21.20744,519.77,454.78
21.22876,520.67,445.38
21.24706,518.04,439.21
21.26879,519.18,440.50
21.28784,519.38,442.62
21.30816,521.16,450.65
21.32866,524.08,457.63
21.34831,524.35,467.49
21.36840,524.37,474.26
21.38863,522.20,484.26
21.40865,525.76,492.69
21.42716,528.61,497.87
21.44855,530.49,503.48
21.46779,526.80,507.82
21.48838,528.80,514.71
21.50801,528.36,516.36
21.52885,526.29,521.94
21.54823,525.64,527.05
21.56760,525.78,530.48
21.58728,524.42,534.75
21.60749,529.80,537.39
21.62815,527.81,540.22
21.64824,530.61,544.55
21.66853,531.82,544.78
21.68838,532.75,545.77
21.70762,531.50,550.17
21.72885,533.09,551.03
21.74856,529.95,550.08
21.76795,531.52,552.91
21.78872,529.91,551.00
21.80820,530.21,550.73
21.82723,529.64,550.44
21.84715,532.33,550.08
21.86833,531.79,551.42
21.88893,529.95,553.54
21.90727,531.60,557.20
21.92877,531.12,556.98
21.94712,533.07,554.43
21.96805,530.61,553.87
21.98797,531.79,553.79
22.00777,530.75,553.66
22.02838,528.13,553.20
22.04858,529.48,554.14
22.06752,528.11,556.76
22.08812,529.22,555.10
22.10883,532.78,554.44
22.12766,531.32,554.67
22.14870,531.80,556.31
22.16707,530.21,555.51
22.18694,532.38,559.16
22.20790,528.91,557.01
22.22724,530.28,556.69
22.24765,531.57,555.25
22.26742,531.60,556.44
22.28842,530.52,557.51
22.30798,529.55,556.29
22.32764,529.38,557.96
22.34728,531.33,553.15
22.36903,533.28,553.82
22.38852,531.52,556.39
22.40853,534.08,556.14
22.42825,530.80,554.50
22.44765,529.14,556.09
22.46717,532.69,559.23
22.48862,533.11,556.58
22.50723,530.98,558.67
22.52774,531.32,559.41
22.54867,530.32,559.35
22.56830,531.64,559.40
22.58895,532.91,558.16
22.60823,531.45,555.72
22.62906,529.99,556.15
22.64747,533.86,554.15
22.66777,533.85,555.57
22.68785,532.55,556.51
22.70724,531.54,559.21
22.72845,529.21,557.53
22.74837,531.32,555.84
22.76884,530.11,555.58
22.78805,527.26,557.55
22.80849,527.57,555.41
22.82712,528.83,558.30
22.84891,527.84,554.80
22.86738,531.40,557.82
22.88707,529.39,554.18
22.90692,531.74,552.92
22.92765,531.78,554.61
22.94879,530.79,559.60
22.96877,529.46,560.32
22.98777,529.70,556.27
23.00726,530.45,554.73
23.02859,528.25,558.33
23.04712,528.86,556.51
23.06831,528.71,556.11
23.08804,529.30,555.86
23.10750,528.32,557.90
23.12741,532.49,555.96
23.14879,531.32,554.52
23.16872,529.94,557.31
23.18810,534.30,558.01
23.20802,532.51,554.92
23.22737,537.23,558.93
23.24759,535.72,556.03
23.26888,538.01,553.80
23.28723,537.88,557.71
23.30857,536.65,556.76
23.32737,536.89,554.81
23.34749,534.69,557.31
23.36694,533.58,553.38
23.38797,533.98,556.76
23.40798,532.45,555.78
23.42832,534.34,557.61
23.44840,533.09,554.64
23.46746,532.75,555.80
23.48803,534.68,554.18
23.50868,532.77,555.62
23.52732,534.65,553.09
23.54754,537.15,556.24
23.56775,534.40,555.87
23.58809,532.59,556.24
23.60816,533.08,558.76
23.62890,534.99,560.09
23.64753,533.88,558.22
23.66719,535.06,558.78
23.68730,534.17,556.95
23.70819,531.16,558.72
23.72823,531.59,560.56
23.74817,532.21,557.89
23.76839,534.07,559.34
23.78796,532.43,560.28
23.80837,533.48,559.88
23.82710,532.48,559.43
23.84859,537.42,559.74
23.86874,535.48,562.31
23.88843,536.21,560.39
23.90832,535.51,561.36
23.92867,536.31,560.46
23.94947,535.44,558.62
23.96993,535.92,561.28
23.98931,533.84,557.54
24.00899,533.06,559.74
24.02808,538.27,559.68
24.04805,536.33,557.32
24.06970,534.80,559.39
24.08838,535.81,560.14
24.10820,535.44,560.40
24.12997,538.52,558.80
24.14944,537.35,562.74
24.16849,535.95,561.70
24.18866,537.11,559.22
24.20968,539.27,558.94
24.22964,535.82,560.71
24.24930,536.29,560.72
24.26928,535.79,560.56
24.28893,533.81,562.10
24.30833,537.58,565.63
24.32941,538.54,577.70
24.34854,538.41,592.35
24.36852,543.36,613.53
24.38855,544.40,632.51
24.40836,542.62,645.32
24.42832,540.70,654.07
24.44970,542.45,660.16
24.46912,542.12,667.53
24.48974,544.48,665.51
24.50972,544.70,667.48
24.52844,544.90,661.12
24.54882,545.42,656.77
24.56893,542.42,648.21
24.58878,541.53,648.36
24.60957,541.02,642.04
24.62882,540.87,632.23
24.64957,541.24,625.47
24.66986,538.73,619.66
24.68871,538.36,617.18
24.70957,541.23,614.50
24.72969,538.02,606.94
24.74995,537.65,604.01
24.76818,537.51,596.77
24.78811,538.27,595.02
24.80819,539.17,588.70
24.82857,539.64,583.34
24.84907,540.07,580.64
24.86919,539.15,579.24
24.88817,539.70,577.06
24.90965,541.43,570.02
24.92977,540.57,572.06
24.94883,540.17,572.08
24.96818,540.04,569.91
24.98914,538.01,567.23
25.00950,539.36,565.95
25.02946,540.57,565.92
25.04919,539.73,565.85
25.06964,537.08,568.45
25.08900,538.96,569.67
25.10805,539.14,567.12
25.12913,540.47,568.26
25.14817,540.89,566.78
25.17008,540.11,580.48
25.18966,543.08,605.65
25.21050,550.05,634.59
25.22906,551.67,648.09
25.24954,552.44,636.95
25.27024,550.28,600.72
25.29107,547.79,547.13
25.30908,539.94,499.06
25.32906,537.27,460.42
25.35003,532.15,431.59
25.36900,528.38,418.66
25.38924,525.99,413.96
25.40966,523.18,411.52
25.43051,523.90,414.00
25.44974,521.42,420.90
25.46891,523.52,431.29
25.48993,524.05,443.75
25.50991,525.39,455.29
25.52930,526.81,462.26
25.55089,527.84,475.41
25.56892,527.72,484.07
25.59005,528.27,490.76
25.60965,529.41,501.64
25.62913,533.26,508.20
25.64892,533.16,511.45
25.66965,537.78,522.33
25.69195,538.18,529.05
25.71153,535.82,532.25
25.73148,535.03,538.78
25.75109,534.39,542.30
25.77094,536.72,544.00
25.79076,537.82,546.19
25.81056,538.21,550.09
25.83156,533.92,550.70
25.85022,534.03,551.13
25.87157,534.44,554.27
25.89134,533.12,555.15
25.91156,534.59,557.64
25.93153,531.48,557.47
25.95285,534.48,561.13
25.97130,537.10,559.58
25.99203,538.21,563.21
26.01285,538.67,561.00
26.03213,538.19,559.72
26.05246,537.88,561.26
26.07103,536.26,557.73
26.09188,534.40,560.82
26.11137,532.31,561.92
26.13297,537.21,561.58
26.15280,536.59,563.23
26.17289,536.18,559.46
26.19230,535.86,560.79
26.21174,538.50,563.31
26.23201,536.44,561.87
26.25148,538.16,559.27
26.27295,538.19,558.46
26.29204,536.42,557.43
26.31266,533.61,559.42
26.33170,535.34,558.86
26.35168,536.44,561.11
26.37205,536.70,560.68
26.39193,535.39,562.33
26.41150,533.20,558.64
26.43165,531.99,559.99
26.45153,534.06,562.39
26.47221,531.46,561.84
26.49293,533.75,559.28
26.51222,532.76,559.65
26.53113,533.76,561.64
26.55123,533.73,560.61
26.57116,533.91,558.88
26.59208,531.92,556.66
26.61194,535.08,556.12
26.63109,533.69,555.81
26.65120,533.31,557.99
26.67161,534.10,559.22
26.69173,536.74,558.55
26.71176,533.61,558.98
26.73202,536.39,562.07
26.75232,534.44,561.08
26.77139,534.08,559.53
26.79256,532.20,561.96
26.81169,534.30,560.23
26.83259,534.92,560.04
26.85128,532.31,556.85
26.87179,533.46,558.85
26.89185,536.12,557.91
26.91197,533.19,558.54
26.93274,536.24,557.14
26.95248,534.97,559.15
26.97225,531.30,563.71
26.99220,531.02,562.86
27.01280,532.00,566.11
27.03224,532.03,565.65
27.05100,533.68,562.14
27.07227,534.76,562.43
27.09120,534.34,564.93
27.11197,534.04,566.57
27.13151,532.75,566.09
27.15262,535.28,563.48
27.17236,533.49,561.90
27.19091,535.69,560.10
27.21276,534.08,561.97
27.23157,535.25,563.36
27.25114,530.92,561.06
27.27218,533.05,559.91
27.29202,530.11,558.36
27.31272,529.80,558.05
27.33282,531.83,560.90
27.35192,533.23,560.78
27.37197,533.11,562.91
27.39137,534.73,561.24
27.41290,535.38,562.01
27.43337,534.02,562.24
27.45343,535.73,563.73
27.47357,534.57,561.65
27.49349,531.40,562.21
27.51253,533.30,559.82
27.53276,529.16,558.15
27.55197,528.36,558.67
27.57292,529.31,556.13
27.59347,530.68,559.73
27.61233,529.26,558.96
27.63211,530.27,557.71
27.65277,531.45,559.73
27.67243,532.26,557.88
27.69285,533.09,559.56
27.71365,534.07,556.02
27.73316,530.12,559.34
27.75334,532.65,560.40
27.77237,533.89,558.00
27.79331,532.45,560.76
27.81349,530.48,560.40
27.83227,530.88,562.69
27.85198,533.02,563.08
27.87299,533.20,560.69
27.89298,531.69,561.32
27.91240,535.89,557.66
27.93205,535.01,560.28
27.95301,530.61,559.56
27.97241,530.92,561.35
27.99467,527.80,565.28
28.01316,530.68,561.95
28.03399,526.85,560.32
28.05413,527.25,563.73
28.07343,528.50,562.65
28.09349,525.42,561.51
28.11295,529.68,562.86
28.13373,527.06,559.03
28.15370,524.13,560.60
28.17405,524.50,560.07
28.19346,520.34,563.82
28.21421,520.78,563.55
28.23387,525.37,562.38
28.25314,523.64,562.40
28.27304,525.18,560.62
28.29317,524.00,561.36
28.31469,522.28,557.88
28.33391,522.26,560.51
28.35507,520.02,556.22
28.37460,521.41,555.88
28.39438,522.10,558.45
28.41435,519.91,556.02
28.43576,518.39,556.85
28.45586,518.34,558.27
28.47567,519.51,556.72
28.49427,519.84,558.05
28.51595,519.44,571.06
28.53434,520.26,587.29
28.55485,522.19,607.74
28.57480,523.08,633.35
28.59475,523.63,653.04
28.61506,527.42,670.58
28.63427,526.20,679.03
28.65407,529.53,684.24
28.67464,531.00,679.25
28.69574,528.18,673.04
28.71586,526.00,664.69
28.73506,525.60,655.47
28.75462,524.38,646.37
28.77483,524.53,638.51
28.79490,524.94,633.01
28.81461,527.10,624.27
28.83433,527.04,618.96
28.85484,528.19,609.73
28.87409,525.01,602.08
28.89405,524.01,598.04
28.91431,523.92,590.94
28.93560,523.36,589.46
28.95523,522.03,586.16
28.97495,519.61,583.88
28.99544,520.07,582.42
29.01421,518.61,580.16
29.03477,518.07,579.69
29.05493,517.85,578.34
29.07629,518.31,574.83
29.09628,516.12,576.72
29.11640,517.03,574.78
29.13574,515.32,572.99
29.15588,518.75,568.51
29.17650,515.46,570.82
29.19624,515.00,566.28
29.21588,517.09,564.89
29.23676,515.12,564.96
29.25618,515.67,562.49
29.27622,517.19,565.35
29.29565,517.77,565.22
29.31550,519.09,565.86
29.33558,516.44,562.14
29.35597,517.59,559.80
29.37674,517.52,561.08
29.39527,515.05,559.37
29.41698,516.48,564.37
29.43551,519.41,567.89
29.45496,519.38,544.96
29.47506,518.27,516.64
29.49582,516.19,483.89
29.51622,511.56,459.54
29.53615,513.09,446.67
29.55586,513.02,444.03
29.57620,511.89,445.14
29.59609,513.32,445.34
29.61621,510.87,454.94
29.63709,513.60,461.70
29.65629,513.81,469.33
29.67611,511.35,477.85
29.69487,515.95,489.11
29.71659,513.89,495.06
29.73675,516.14,499.68
29.75581,515.26,507.88
29.77665,513.28,514.11
29.79572,515.94,512.54
29.81599,513.74,515.20
29.83531,513.44,520.42
29.85527,513.07,524.47
29.87661,516.46,526.15
29.89649,514.86,531.15
29.91510,516.25,531.99
29.93686,513.65,534.67
29.95546,515.00,537.74
29.97551,516.28,540.65
29.99520,515.22,540.41
30.01664,512.14,544.10
30.03699,515.15,542.77
30.05650,515.30,547.39
30.07631,514.54,547.48
30.09586,515.39,552.54
30.11554,513.03,551.04
30.13538,513.71,551.37
30.15573,515.46,551.53
30.17532,512.83,551.67
30.19652,513.76,555.00
30.21764,514.46,553.49
30.23671,515.77,554.59
30.25683,513.54,551.83
30.27743,515.81,553.92
30.29668,518.31,554.97
30.31610,518.49,555.32
30.33698,515.49,552.99
30.35796,517.95,552.59
30.37847,519.37,551.74
30.39711,521.43,551.66
30.41795,521.09,554.99
30.43854,520.57,557.31
30.45802,518.31,553.37
30.47871,517.39,553.36
30.49804,519.63,556.52
30.51833,516.49,554.98
30.53774,516.46,556.88
30.55860,519.28,555.97
30.57860,515.60,552.47
30.59832,518.62,554.85
30.61936,517.81,556.31
30.63874,517.45,558.61
30.65800,521.06,556.14
30.67848,519.90,556.39
30.69913,518.09,556.46
30.71812,517.31,553.41
30.73876,518.85,553.58
30.75871,517.03,552.24
30.77889,517.89,552.43
30.79824,518.18,554.19
30.81797,518.95,555.43
30.83942,516.14,553.27
30.85901,515.22,551.92
30.87848,515.16,552.71
30.89834,515.34,553.21
30.91814,517.04,554.64
30.93892,518.21,553.17
30.95840,517.75,551.29
30.97925,517.51,553.80
30.99988,519.73,553.29
31.01911,522.37,555.30
31.04046,522.12,555.12
31.06006,522.43,554.53
31.07930,523.36,555.38
31.10094,523.09,556.17
31.11897,519.82,556.52
31.13957,522.01,556.30
31.16033,525.35,554.55
31.17957,525.48,556.02
31.20049,524.55,552.63
31.21962,525.80,554.50
31.24037,524.77,552.97
31.25971,527.13,552.76
31.27920,526.31,553.93
31.29949,524.12,555.89
31.32035,524.03,557.34
31.34064,521.57,554.51
31.36034,521.64,555.73
31.38028,520.44,556.57
31.39885,519.23,556.80
31.41879,520.01,556.55
31.43992,517.98,557.94
31.46033,519.46,554.61
31.47926,519.68,553.65
31.49907,523.70,556.32
31.52051,522.48,557.28
31.54036,521.22,556.52
31.55914,522.49,555.90
31.58079,520.84,558.39
31.59947,522.73,556.17
31.61874,522.60,555.12
31.63945,523.38,555.55
31.66027,520.44,554.91
31.67923,522.11,555.82
31.69947,524.36,556.47
31.72053,522.45,556.56
31.73979,522.99,559.34
31.76053,523.24,559.54
31.78054,522.38,555.60
31.79944,522.40,558.50
31.81872,523.77,555.69
31.84021,520.88,557.83
31.86005,523.76,557.89
31.88024,522.85,556.98
31.90024,526.91,559.55
31.92007,528.04,557.79
31.94084,526.20,556.88
31.96089,526.59,554.85
31.97958,527.62,557.11
31.99896,526.24,556.65
32.01920,527.99,557.01
32.04075,527.73,559.31
32.06128,524.98,556.62
32.08062,525.50,558.06
32.09986,524.99,556.60
32.12122,526.99,557.37
32.14038,527.31,558.05
32.15984,528.18,557.21
32.18029,527.90,558.90
32.20118,527.15,558.56
32.22158,527.88,559.25
32.24207,530.01,558.57
32.26177,531.12,558.43
32.28171,532.30,557.62
32.30262,532.02,557.13
32.32105,533.63,555.40
32.34237,533.45,556.58
32.36253,534.57,554.66
32.38195,534.54,554.93
32.40167,532.99,557.65
32.42235,534.26,557.50
32.44210,534.98,557.09
32.46239,532.83,559.20
32.48295,533.62,559.85
32.50365,536.62,559.47
32.52400,533.07,558.21
32.54458,534.69,559.16
32.56308,535.35,559.98
32.58386,536.95,557.61
32.60560,537.34,560.27
32.62395,534.42,561.14
32.64521,535.59,562.76
32.66476,534.99,563.58
32.68432,537.28,563.08
32.70418,538.64,560.84
32.72531,536.98,559.01
32.74486,536.03,560.44
32.76535,536.68,561.03
32.78453,538.24,562.25
32.80511,537.92,557.81
32.82484,543.38,564.30
32.84678,544.35,573.53
32.86562,541.65,599.06
32.88531,544.03,628.71
32.90513,545.17,651.58
32.92644,549.49,674.57
32.94570,548.77,684.09
32.96607,552.59,695.27
32.98684,548.55,690.43
33.00683,548.08,681.66
33.02581,545.63,669.42
33.04773,543.42,657.52
33.06739,539.39,646.33
33.08618,538.54,634.56
33.10729,538.38,621.94
33.12641,539.49,616.77
33.14600,540.96,607.15
33.16637,539.13,605.51
33.18600,538.28,601.06
33.20757,536.49,596.25
33.22758,535.22,592.18
33.24723,536.72,585.47
33.26732,534.44,583.14
33.28734,532.69,581.21
33.30842,533.04,577.92
33.32770,533.11,577.96
33.34710,533.53,576.70
33.36687,531.86,578.27
33.38685,533.53,576.16
33.40688,533.56,574.96
33.42836,533.68,574.78
33.44812,533.32,573.13
33.46686,535.30,574.21
33.48670,534.21,573.71
33.50856,533.62,570.24
33.52692,535.56,571.14
33.54827,532.09,564.72
33.56707,535.79,566.81
33.58839,533.95,566.11
33.60773,539.36,566.03
33.62719,539.76,566.27
33.64823,540.57,566.59
33.66738,537.03,564.60
33.68809,537.47,563.49
33.70831,533.73,565.39
33.72764,535.49,563.88
33.74765,533.58,562.55
33.76756,531.51,560.16
33.78819,534.88,563.66
33.80724,534.37,568.35
33.82838,532.80,570.97
33.84723,535.36,562.02
33.86750,534.82,539.39
33.88797,535.81,511.23
33.90838,533.35,482.62
33.92863,531.43,466.78
33.94826,530.24,454.29
33.96820,529.33,453.55
33.98879,523.39,454.45
34.00870,525.52,455.66
34.02876,523.01,463.32
34.04884,522.31,467.46
34.06798,523.59,472.32
34.08835,523.37,484.50
34.10909,521.41,489.54
34.12801,522.38,499.54
34.14930,525.28,504.63
34.16765,527.39,515.20
34.18863,528.65,520.22
34.20952,525.98,526.43
34.22839,527.74,528.89
34.24915,523.97,533.80
34.27053,525.82,536.39
34.29038,522.57,542.86
34.31145,521.92,545.89
34.33114,524.35,543.46
34.35054,523.55,548.51
34.37137,522.32,549.67
34.39101,524.17,552.87
34.40980,522.24,551.12
34.42980,526.46,552.49
34.45068,525.80,553.52
34.47049,521.95,553.06
34.48983,523.48,556.47
34.51117,523.70,554.00
34.53097,525.24,556.12
34.55059,522.09,557.96
34.57158,525.59,558.67
34.58999,522.08,555.82
34.61001,523.09,554.77
34.62965,522.30,558.38
34.65117,522.46,558.96
34.67061,519.25,553.57
34.69040,518.62,556.57
34.71147,521.06,558.41
34.73116,518.91,559.32
34.75016,521.00,557.90
34.77146,520.30,560.74
34.79150,517.94,558.87
34.81046,521.01,558.42
34.83095,520.60,557.52
34.85128,520.97,559.81
34.87044,523.23,559.19
34.89100,523.52,556.10
34.91098,521.82,557.95
34.93135,522.24,558.41
34.94987,519.84,556.31
34.97109,522.42,559.30
34.98993,522.21,558.80
35.00988,520.45,557.70
35.03108,521.17,557.25
35.05093,520.64,557.43
35.07056,523.13,558.00
35.09096,520.78,555.52
35.11044,526.41,556.88
35.13073,523.12,555.66
35.14980,522.47,556.34
35.17072,526.31,556.55
35.19099,525.68,557.58
35.21009,525.89,558.18
35.23123,526.87,557.38
35.25009,525.02,559.41
35.27114,525.08,559.59
35.29098,524.84,558.40
35.31109,525.57,560.24
35.33071,524.95,558.94
35.35034,523.73,558.39
35.36970,523.50,558.57
35.39012,520.34,556.80
35.41150,521.82,555.50
35.43008,522.66,555.25
35.45017,520.87,555.91
35.46984,521.46,556.61
35.49147,523.26,560.73
35.51074,522.53,562.25
35.52996,520.81,558.85
35.55123,520.45,560.42
35.57128,521.90,560.77
35.59075,523.34,559.31
35.61036,526.57,559.22
35.63016,525.31,558.66
35.65013,521.32,556.17
35.67068,523.51,561.41
35.69059,519.70,560.56
35.71127,521.51,557.16
35.73143,521.98,558.37
35.75092,518.93,559.10
35.77137,517.45,560.78
35.79119,519.66,557.87
35.81020,517.37,559.90
35.83075,516.93,559.19
35.85089,517.13,558.53
35.87167,517.16,557.99
35.89137,519.56,561.27
35.91087,518.18,559.37
35.93125,519.53,560.00
35.95134,519.30,559.47
35.97062,519.57,563.17
35.99132,521.40,562.13
36.01144,520.33,558.65
36.02994,521.06,560.98
36.04994,523.59,559.90
36.07026,522.87,562.98
36.08995,521.47,560.28
36.11168,522.42,560.88
36.13048,521.17,562.45
36.15143,524.54,559.51
36.17081,523.21,559.90
36.18992,523.32,561.11
36.21037,525.29,559.74
36.23091,520.98,558.93
36.25067,520.70,559.27
36.27015,522.09,559.57
36.28986,521.37,558.13
36.31045,524.13,561.73
36.33016,521.35,560.16
36.35133,519.50,557.29
36.37191,519.99,557.42
36.39076,516.79,555.02
36.41336,517.33,551.94
36.43291,516.48,554.20
36.45281,514.64,554.37
36.47325,516.12,553.11
36.49286,512.17,553.84
36.51377,512.74,553.05
36.53369,512.58,550.36
36.55283,513.45,550.44
36.57266,517.21,548.74
36.59255,515.82,546.58
36.61200,515.83,549.02
36.63324,516.10,548.49
36.65171,512.90,548.94
36.67270,515.61,549.79
36.69216,516.79,551.36
36.71180,516.05,553.16
36.73303,516.23,555.88
36.75269,512.52,556.08
36.77248,514.37,555.68
36.79352,513.35,554.70
36.81357,517.49,558.04
36.83280,515.65,557.14
36.85260,520.09,557.70
36.87219,518.73,558.34
36.89175,520.45,557.51
36.91332,519.03,557.65
36.93329,516.64,560.07
36.95188,516.36,558.04
36.97203,515.25,556.08
36.99255,515.91,553.60
37.01297,514.34,553.93
37.03324,517.22,553.27
37.05321,518.58,552.91
37.07349,516.92,555.77
37.09363,514.86,552.83
37.11222,514.84,552.23
37.13314,517.70,553.64
37.15421,516.02,551.05
37.17378,520.17,562.94
37.19478,520.55,584.92
37.21375,520.17,612.46
37.23315,523.18,641.30
37.25285,521.24,662.60
37.27441,522.13,674.10
37.29309,522.14,672.73
37.31360,520.00,671.41
37.33505,522.25,663.57
37.35431,521.07,656.32
37.37433,521.50,643.34
37.39514,520.40,636.47
37.41396,523.47,623.81
37.43445,519.78,617.52
37.45528,522.72,609.26
37.47578,522.72,600.60
37.49489,522.24,593.15
37.51549,522.00,587.79
37.53565,523.96,581.45
37.55464,521.22,576.89
37.57415,520.48,574.61
37.59381,522.55,573.82
37.61591,523.70,569.49
37.63537,523.62,572.12
37.65656,523.78,568.10
37.67742,522.81,562.63
37.69677,522.97,563.39
37.71731,523.19,562.28
37.73714,524.94,561.24
37.75700,524.94,561.95
37.77698,525.33,563.66
37.79727,528.36,564.97
37.81656,524.15,563.44
37.83784,528.08,561.41
37.85854,528.05,561.73
37.87682,529.55,556.46
37.89792,527.96,555.65
37.91846,530.93,558.85
37.93779,529.72,558.32
37.95889,530.07,557.65
37.97838,530.50,559.43
37.99849,530.09,559.49
38.01831,529.24,558.09
38.03906,530.67,560.56
38.05755,533.13,557.16
38.07821,535.42,560.99
38.09952,534.00,558.10
38.11805,531.30,563.41
38.13927,532.53,559.40
38.15893,532.89,551.19
38.17950,537.45,532.47
38.19816,537.89,508.70
38.21948,533.83,486.49
38.23799,530.77,464.11
38.25973,528.79,448.10
38.27803,527.66,441.26
38.29965,525.43,437.42
38.31831,526.54,438.95
38.33939,524.90,444.71
38.35942,522.93,451.99
38.37840,525.61,460.39
38.39910,524.68,468.86
38.41849,525.21,477.44
38.43850,524.64,487.82
38.45922,527.69,497.01
38.47964,528.57,500.32
38.49817,529.73,509.46
38.51918,531.85,516.37
38.53979,530.83,524.61
38.55902,532.86,531.06
38.58027,536.35,534.69
38.59924,534.57,539.62
38.61920,533.86,541.49
38.63959,536.86,547.38
38.66000,533.31,547.66
38.67973,536.08,552.47
38.70094,535.03,552.41
38.71977,539.26,557.32
38.73961,539.72,558.50
38.75976,540.53,558.64
38.78112,539.56,559.50
38.80047,536.98,560.31
38.82119,535.42,559.00
38.83991,539.51,557.59
38.86135,540.91,557.38
38.88164,540.31,560.90
38.90118,537.28,560.23
38.92136,538.41,560.66
38.94157,536.70,561.82
38.96085,536.86,563.16
38.98011,536.94,561.21
39.00118,535.12,564.48
39.01986,534.06,561.04
39.04088,536.32,564.65
39.06005,538.44,564.20
39.08087,539.46,563.16
39.10046,539.67,565.80
39.12071,538.97,564.05
39.14068,540.88,564.95
39.15991,540.27,562.48
39.18055,538.95,562.17
39.20090,537.92,564.10
39.22077,539.28,564.68
39.24145,538.09,564.58
39.25987,538.77,563.52
39.28049,538.24,559.70
39.30036,536.89,559.41
39.31950,535.07,561.58
39.34105,536.75,559.33
39.36134,535.25,559.33
39.38068,535.63,562.57
39.39963,538.31,564.42
39.42258,537.97,563.41
39.44146,535.42,565.13
39.46235,536.65,566.64
39.48175,536.76,565.20
39.50190,536.66,563.15
39.52174,536.16,564.08
39.54190,536.45,559.76
39.56204,535.13,563.96
39.58251,533.42,560.23
39.60255,534.26,561.75
39.62151,533.48,561.25
39.64231,534.82,563.66
39.66108,535.48,561.80
39.68082,534.79,561.06
39.70119,538.84,561.57
39.72165,536.16,559.94
39.74225,532.91,561.13
39.76115,533.80,561.57
39.78209,535.44,563.02
39.80097,539.48,564.97
39.82150,538.78,563.47
39.84246,539.29,562.69
39.86185,539.02,563.27
39.88250,535.75,562.99
39.90231,538.02,561.81
39.92209,536.09,565.02
39.94162,537.91,566.23
39.96109,535.55,562.04
39.98203,539.72,562.40
40.00156,540.21,565.35
40.02061,541.11,565.43
40.04110,543.60,563.44
40.06180,543.51,561.11
40.08108,543.26,563.90
40.10265,539.15,561.96
40.12180,538.04,561.98
40.14244,540.09,564.07
40.16175,540.29,564.45
40.18157,537.43,564.35
40.20122,538.67,565.21
40.22223,536.34,565.61
40.24111,537.45,564.18
40.26152,536.13,567.19
40.28178,532.84,563.79
40.30114,533.16,564.78
40.32168,533.96,562.47
40.34102,535.19,564.31
40.36070,534.01,562.94
40.38250,533.19,563.51
40.40152,534.70,562.48
40.42134,535.25,563.38
40.44247,538.43,562.66
40.46269,537.58,560.42
40.48201,535.20,560.29
40.50161,537.38,562.38
40.52258,536.81,560.58
40.54066,536.18,564.39
40.56213,535.75,565.60
40.58242,535.32,560.60
40.60258,533.99,563.76
40.62070,533.63,560.92
40.64249,532.51,562.77
40.66223,537.02,563.48
40.68084,533.73,561.00
40.70193,534.26,564.61
40.72193,535.54,564.07
40.74236,539.30,566.49
40.76206,538.20,567.98
40.78076,540.64,568.53
40.80135,540.81,567.16
40.82208,540.65,566.52
40.84189,540.17,565.78
40.86169,540.89,568.42
40.88225,541.03,568.11
40.90227,540.35,568.41
40.92264,537.69,567.42
40.94255,535.40,565.39
40.96135,535.96,568.86
40.98143,539.26,564.94
41.00064,540.26,564.22
41.02129,539.08,562.58
41.04124,537.63,562.52
41.06243,536.59,564.98
41.08193,539.25,565.40
41.10193,536.56,562.88
41.12232,539.41,563.73
41.14159,538.57,565.48
41.16056,538.46,561.32
41.18243,540.23,561.93
41.20238,540.40,563.14
41.22051,540.97,563.21
41.24187,540.12,561.70
41.26078,538.75,561.80
41.28135,538.57,560.70
41.30156,538.46,560.18
41.32231,538.51,571.60
41.34169,542.86,595.27
41.36090,544.38,627.82
41.38240,543.84,658.04
41.40174,545.13,678.77
41.42123,548.25,682.54
41.44106,547.88,689.76
41.46242,549.49,688.88
41.48257,548.13,682.39
41.50127,546.17,673.43
41.52196,543.37,661.80
41.54127,539.21,653.13
41.56147,540.60,643.18
41.58238,539.41,632.77
41.60226,540.00,627.65
41.62256,535.15,617.26
41.64085,538.17,609.60
41.66232,537.72,606.53
41.68200,536.93,599.09
41.70183,540.50,594.58
41.72220,538.61,596.28
41.74167,538.20,593.60
41.76152,535.65,589.75
41.78215,537.72,585.30
41.80155,534.18,579.46
41.82244,537.28,575.90
41.84132,535.73,575.77
41.86243,535.94,573.00
41.88181,535.08,575.32
41.90322,534.42,574.70
41.92441,535.39,570.41
41.94442,533.59,568.72
41.96439,536.25,567.81
41.98374,538.85,569.02
42.00470,534.67,566.50
42.02449,539.08,567.82
42.04330,535.98,568.53
42.06525,534.70,565.92
42.08559,532.59,566.59
42.10508,530.77,565.78
42.12551,531.01,559.17
42.14408,532.34,559.34
42.16381,532.78,562.74
42.18384,531.22,559.32
42.20411,528.86,565.10
42.22425,530.84,572.53
42.24453,529.76,568.03
42.26464,527.98,554.04
42.28391,527.88,522.67
42.30351,525.47,492.45
42.32540,523.42,467.63
42.34462,525.39,456.21
42.36542,520.59,448.61
42.38451,524.91,447.16
42.40550,523.70,449.95
42.42552,521.94,451.91
42.44494,520.74,459.63
42.46482,519.12,466.48
42.48548,518.37,476.94
42.50515,519.96,484.62
42.52481,520.92,491.11
42.54568,519.64,498.02
42.56508,521.99,507.53
42.58541,522.03,511.16
42.60474,525.47,521.79
42.62566,523.70,526.73
42.64525,524.58,528.21
42.66503,525.75,534.71
42.68606,524.90,537.18
42.70618,526.54,543.09
42.72590,525.37,543.80
42.74710,525.11,547.90
42.76708,524.20,546.05
42.78710,523.72,545.64
42.80674,520.85,551.34
42.82658,519.83,548.00
42.84786,520.17,550.95
42.86826,520.07,549.54
42.88685,517.60,550.29
42.90725,518.86,549.14
42.92828,516.21,551.84
42.94713,516.03,553.68
42.96845,517.41,551.78
42.98739,515.01,554.65
43.00833,516.36,551.81
43.02785,517.52,555.20
43.04779,513.63,554.04
43.06760,514.08,554.40
43.08892,517.58,555.32
43.10742,514.59,552.84
43.12821,514.05,553.14
43.14845,513.56,554.03
43.16860,515.27,554.66
43.18865,515.27,553.33
43.20801,514.70,554.86
43.22914,517.51,555.82
43.25040,516.60,555.03
43.26952,514.72,550.77
43.28981,516.27,553.48
43.30916,518.39,552.45
43.33006,515.28,554.11
43.34869,516.90,553.61
43.36959,515.27,554.59
43.39035,514.87,550.97
43.41015,511.65,548.34
43.43043,514.68,551.56
43.44910,516.97,551.54
43.46910,517.34,550.87
43.48928,516.84,548.40
43.50850,515.32,550.95
43.52920,514.09,549.64
43.54888,516.82,553.49
43.56925,515.96,552.75
43.58878,514.81,554.23
43.60891,518.33,552.28
43.62880,518.26,552.90
43.64989,518.98,555.33
43.66850,518.65,556.29
43.69056,517.32,554.09
43.70953,517.13,554.56
43.72901,513.96,552.50
43.74873,514.17,552.82
43.77010,513.96,553.37
43.79032,516.76,554.69
43.80948,517.07,552.83
43.82984,516.59,549.37
43.85055,514.14,552.51
43.87017,513.89,553.19
43.88898,518.32,551.39
43.91034,518.29,551.14
43.92915,516.61,548.99
43.94972,514.28,551.49
43.96933,515.76,555.20
43.98979,518.09,552.61
44.00951,515.18,553.26
44.03055,517.68,554.26
44.05078,513.55,554.97
44.07091,515.81,555.77
44.09199,516.92,552.30
44.11146,516.45,550.61
44.13110,518.13,552.83
44.15200,515.69,550.56
44.17203,519.33,552.02
44.19298,522.28,552.33
44.21481,522.88,554.26
44.23414,525.16,553.18
44.25440,529.10,552.39
44.27644,528.93,553.55
44.29729,531.67,551.67
44.31723,534.46,553.95
44.33615,533.54,553.62
44.35725,535.22,555.44
44.37590,534.19,555.66
44.39688,538.25,558.44
44.41554,535.49,558.15
44.43716,538.59,557.70
44.45595,535.24,559.80
44.47571,535.88,561.16
44.49854,535.14,562.69
44.51776,534.15,559.70
44.53858,537.25,564.54
44.55843,537.24,563.29
44.57841,536.25,559.80
44.59912,536.67,563.01
44.61803,537.14,559.52
44.63935,539.37,558.33
44.65855,538.39,558.75
44.67781,538.47,561.52
44.69867,536.48,561.17
44.71943,536.53,561.77
44.73901,537.80,562.47
44.75940,535.86,564.06
44.77946,537.39,562.27
44.79941,536.50,565.52
44.81888,536.12,563.82
44.83822,539.32,564.84
44.85845,538.55,564.82
44.87885,538.90,562.44
44.89835,538.96,565.02
44.91865,539.50,561.66
44.93938,538.43,561.32
44.95872,540.91,560.62
44.97773,538.66,562.07
44.99810,542.57,561.42
45.01771,538.38,562.18
45.03891,537.81,562.34
45.05863,537.02,562.21
45.07840,537.02,561.90
45.09882,536.38,562.17
45.11911,537.05,563.51
45.13814,536.98,561.96
45.15777,539.33,564.57
45.17749,541.91,563.77
45.19897,541.26,563.90
45.21812,541.16,566.05
45.23854,537.26,562.45
45.25809,535.97,563.14
45.27869,535.25,565.78
45.29905,539.26,564.25
45.31885,538.22,566.07
45.33872,537.74,565.79
45.35860,539.20,568.02
45.37759,537.40,567.76
45.39737,539.56,566.50
45.41739,542.34,568.36
45.43746,540.52,565.58
45.45888,539.31,567.73
45.47880,536.50,565.42
45.49913,535.68,564.30
45.51924,535.97,562.02
45.53751,536.92,562.98
45.55841,537.77,569.62
45.57775,537.46,584.05
45.59761,534.42,608.64
45.61835,534.17,628.58
45.63949,533.12,645.51
45.65919,532.37,659.59
45.67780,532.21,662.19
45.69838,533.66,668.02
45.71766,533.70,662.85
45.73909,531.89,659.73
45.75809,535.29,652.86
45.77884,533.92,647.93
45.79739,535.36,643.94
45.81850,541.47,635.47
45.83818,541.26,626.76
45.85731,540.28,622.13
45.87755,544.33,617.39
45.89779,543.21,609.84
45.91774,545.02,605.75
45.93906,545.47,601.26
45.95834,545.55,596.31
45.97859,542.91,594.70
45.99928,541.65,589.98
46.01783,546.41,584.90
46.03808,542.58,582.60
46.05926,543.31,580.74
46.07909,539.85,581.77
46.09861,541.16,579.87
46.11838,543.55,578.60
46.13771,539.16,577.94
46.15772,540.89,577.62
46.17887,538.11,573.69
46.19866,539.12,573.17
46.21819,538.03,571.45
46.23838,541.56,572.88
46.25911,542.90,571.64
46.27848,540.75,570.01
46.29896,542.38,567.97
46.31905,539.62,569.26
46.34023,539.64,569.04
46.35992,540.27,567.45
46.38149,536.95,566.66
46.40089,536.19,567.92
46.42202,536.66,565.94
46.44197,536.04,567.69
46.46190,532.56,566.50
46.48290,530.76,567.73
46.50357,528.64,565.10
46.52353,526.91,555.62
46.54427,526.99,536.87
46.56500,520.31,511.89
46.58494,518.38,484.31
46.60575,518.92,465.67
46.62558,515.96,453.08
46.64782,516.14,447.79
46.66825,515.44,446.69
46.68754,515.23,449.60
46.70696,512.58,451.45
46.72651,514.56,458.37
46.74812,513.41,468.57
46.76779,513.48,475.63
46.78733,511.83,481.19
46.80653,511.64,491.52
46.82699,510.99,498.82
46.84779,511.29,504.04
46.86838,513.44,513.43
46.88649,512.46,516.98
46.90825,511.15,522.45
46.92716,510.19,528.11
46.94724,511.81,532.17
46.96803,510.14,533.39
46.98714,511.98,536.24
47.00830,514.94,539.76
47.02652,513.51,544.41
47.04829,515.67,544.82
47.06768,515.91,545.60
47.08799,516.64,549.89
47.10812,518.13,549.90
47.12806,517.52,552.73
47.14847,519.50,553.59
47.16843,517.31,552.37
47.18751,516.11,554.14
47.20857,517.02,555.09
47.22782,517.41,554.07
47.24840,519.21,553.91
47.26757,516.86,556.94
47.28719,516.71,556.62
47.30698,517.58,557.88
47.32807,518.19,554.58
47.34668,516.43,556.64
47.36654,514.18,553.93
47.38786,513.78,555.01
47.40762,514.95,556.65
47.42825,515.01,556.48
47.44855,517.13,553.64
47.46840,516.46,552.79
47.48737,517.46,553.02
47.50700,518.21,552.65
47.52718,515.98,556.45
47.54753,518.05,553.65
47.56670,517.54,555.28
47.58713,513.52,555.63
47.60840,514.16,558.48
47.62726,517.12,558.60
47.64767,518.49,560.69
47.66687,517.71,560.49
47.68807,515.62,559.52
47.70731,512.53,560.12
47.72797,514.04,556.51
47.74779,516.53,556.44
47.76802,511.89,557.12
47.78708,513.09,555.41
47.80652,513.37,557.22
47.82776,512.86,558.37
47.84853,512.63,560.95
47.86674,512.71,567.28
47.88706,519.33,570.63
47.90817,527.17,580.45
47.92666,537.65,595.51
47.94735,552.12,614.85
47.96744,559.31,638.36
47.98775,566.22,653.81
48.00790,571.98,662.36
48.02811,568.89,656.67
48.04688,564.03,639.71
48.06762,558.51,612.33
48.08706,544.77,579.56
48.10699,533.66,551.27
48.12656,527.92,523.29
48.14708,521.51,501.51
48.16742,518.44,485.70
48.18848,515.23,478.46
48.20793,512.68,469.82
48.22859,509.40,467.77
48.24762,511.33,473.05
48.26878,507.94,475.73
48.28906,507.88,479.12
48.30877,509.98,486.55
48.32872,507.12,493.88
48.34811,510.05,496.89
48.36875,507.57,502.43
48.38885,512.03,507.82
48.40897,511.13,516.53
48.42865,513.14,521.14
48.44825,510.32,524.52
48.46839,514.30,530.93
48.48743,514.70,535.24
48.50863,512.68,538.47
48.52916,514.10,542.48
48.54865,513.52,544.03
48.56814,511.54,545.94
48.58857,510.51,548.20
48.60892,513.84,547.19
48.62906,514.15,546.85
48.64832,511.99,549.03
48.66813,512.26,549.55
48.68782,511.69,550.22
48.70894,511.56,550.38
48.72801,514.26,552.21
48.74976,516.48,549.52
48.76964,515.43,554.70
48.78860,514.08,554.18
48.80974,516.21,556.74
48.82836,517.73,553.88
48.84933,516.68,558.07
48.86978,517.64,556.18
48.88981,520.13,557.52
48.91117,521.69,558.86
48.93016,522.73,560.95
48.95132,521.22,560.74
48.96976,519.52,559.62
48.99081,520.01,559.83
49.01114,522.43,557.16
49.03033,520.43,560.26
49.05017,520.84,558.35
49.07074,520.19,555.81
49.08987,522.48,556.43
49.10970,521.11,556.10
49.12989,523.65,561.02
49.15027,522.37,558.72
49.17110,524.76,559.23
49.19044,526.23,555.90
49.21032,525.91,555.15
49.23063,527.98,555.80
49.24963,527.53,555.60
49.26933,530.76,556.20
49.29138,529.97,555.76
49.30954,530.43,556.20
49.32970,531.84,557.25
49.35103,528.64,556.22
49.36952,527.81,557.85
49.39002,529.10,559.22
49.41069,523.32,558.06
49.43119,522.75,563.39
49.45063,521.49,563.72
49.47049,520.49,563.15
49.49027,517.24,562.81
49.51005,520.17,562.85
49.52958,518.68,566.70
49.55075,519.88,566.30
49.57076,518.06,564.18
49.59063,518.78,560.88
49.61038,520.56,558.79
49.63094,520.25,559.42
49.65029,516.95,555.38
49.66982,516.48,558.71
49.69035,518.86,556.26
49.70957,517.15,555.75
49.73014,515.38,553.32
49.75135,514.92,555.74
49.77032,515.24,554.61
49.79055,517.58,554.99
49.81075,516.71,556.79
49.82972,517.95,555.28
49.85054,521.49,559.42
49.86972,520.80,558.86
