Program Time [s],data 0,data 1
6.73383,504.43,576.17
6.75379,505.06,556.92
6.77379,502.34,546.40
6.79397,502.26,534.10
6.81456,506.10,528.94
6.83400,503.90,531.44
6.85394,503.32,545.23
6.87479,505.42,579.66
6.89309,509.43,621.23
6.91409,513.82,658.63
6.93456,517.14,682.08
6.95417,518.42,690.87
6.97401,519.63,687.67
6.99343,518.66,667.96
7.01406,516.95,631.89
7.03311,511.02,593.85
7.05321,510.22,555.19
7.07502,503.57,522.03
7.09564,501.80,497.48
7.11532,501.92,477.10
7.13538,499.44,465.60
7.15491,501.70,453.44
7.17522,501.13,457.66
7.19782,503.53,472.22
7.21795,505.68,503.96
7.23699,510.33,554.26
7.25707,508.20,607.37
7.27671,505.67,647.41
7.29716,495.70,676.82
7.31668,482.67,689.82
7.33695,464.77,698.11
7.35615,447.84,696.50
7.37671,438.16,687.23
7.39690,431.13,667.44
7.41656,435.74,640.53
7.43807,443.47,603.60
7.45773,460.84,566.11
7.47703,480.07,526.55
7.49811,503.78,493.86
7.51700,522.24,457.97
7.53800,535.63,433.75
7.55634,543.84,416.19
7.57632,547.52,406.27
7.59836,550.24,402.43
7.61901,549.31,403.95
7.63971,545.87,405.79
7.65946,542.42,413.76
7.68120,539.61,417.16
7.70011,535.09,427.91
7.72004,532.64,433.13
7.74017,526.37,440.68
7.75926,526.29,450.84
7.78109,524.30,457.73
7.80066,522.52,467.51
7.82101,518.61,472.04
7.84129,516.56,481.03
7.86041,515.02,484.82
7.88132,514.62,492.32
7.90200,512.40,497.93
7.92243,507.40,506.38
7.94195,508.39,509.91
7.96134,505.37,516.17
7.98248,504.48,519.42
8.00245,504.88,521.06
8.02191,502.27,526.16
8.04263,500.22,526.44
8.06169,497.58,526.73
8.08212,500.96,529.03
8.10174,497.76,528.50
8.12283,498.98,529.21
8.14177,498.85,532.38
8.16164,499.43,533.06
8.18179,496.86,537.81
8.20193,499.91,537.91
8.22191,499.61,539.76
8.24132,502.57,537.23
8.26182,503.06,538.55
8.28163,500.71,540.52
8.30234,502.61,542.91
8.32190,502.03,542.12
8.34255,498.89,542.11
8.36193,498.35,542.48
8.38132,497.82,541.41
8.40221,497.99,540.62
8.42194,495.98,541.93
8.44253,499.37,540.75
8.46301,501.21,541.73
8.48188,502.86,545.35
8.50281,502.40,546.86
8.52213,500.84,548.24
8.54234,503.28,551.15
8.56101,501.79,551.52
8.58115,502.48,553.63
8.60108,500.21,552.28
8.62211,499.86,549.96
8.64159,498.53,548.99
8.66120,498.42,547.10
8.68180,501.48,545.14
8.70156,501.40,542.20
8.72089,498.41,541.77
8.74212,501.19,544.27
8.76209,499.95,556.80
8.78157,500.60,579.89
8.80124,499.71,611.44
8.82224,500.16,629.26
8.84275,501.59,641.35
8.86291,499.50,643.30
8.88267,499.57,640.95
8.90234,499.09,638.43
8.92184,501.62,628.87
8.94283,498.29,621.20
8.96196,500.11,611.05
8.98181,499.61,600.13
9.00234,496.65,595.71
9.02130,497.04,585.37
9.04259,496.47,580.28
9.06212,495.87,576.40
9.08277,494.98,569.93
9.10264,498.34,568.77
9.12172,498.77,565.63
9.14198,500.52,560.69
9.16268,501.45,560.52
9.18230,501.93,558.45
9.20262,504.85,556.96
9.22180,500.62,552.75
9.24325,502.59,551.90
9.26271,499.73,551.60
9.28317,499.46,549.34
9.30300,499.43,549.72
9.32232,499.01,544.30
9.34393,499.71,543.20
9.36445,495.72,543.07
9.38489,497.03,541.57
9.40544,494.29,539.52
9.42477,493.98,539.58
9.44471,494.68,538.53
9.46580,495.08,539.30
9.48485,494.65,539.22
9.50528,493.08,537.49
9.52641,492.77,537.12
9.54613,494.51,537.48
9.56647,494.37,535.66
9.58675,492.58,534.76
9.60637,491.60,533.79
9.62730,493.23,535.28
9.64797,493.07,533.27
9.66681,492.61,535.76
9.68808,491.07,535.61
9.70685,493.40,536.40
9.72707,493.70,536.53
9.74702,491.75,536.31
9.76634,493.67,538.55
9.78637,490.38,527.19
9.80679,488.51,501.33
9.82693,487.64,473.60
9.84699,487.06,450.45
9.86792,486.25,442.62
9.88727,486.54,436.09
9.90847,487.04,436.35
9.92859,486.03,436.93
9.95026,490.34,445.78
9.97088,488.46,452.41
9.99014,491.96,460.46
10.01018,494.14,467.86
10.03030,494.19,474.63
10.05017,494.68,480.78
10.06953,495.60,488.85
10.09154,498.78,494.65
10.11017,499.27,501.05
10.13093,501.16,505.92
10.14995,501.66,512.23
10.17139,503.47,516.36
10.19024,502.85,518.05
10.20988,504.34,519.46
10.23155,505.26,518.72
10.25021,507.18,524.25
10.27119,503.92,528.06
10.29131,506.71,525.40
10.31209,504.72,529.06
10.33114,506.98,534.02
10.35057,506.42,532.14
10.37075,507.86,532.70
10.39211,508.18,536.86
10.41278,507.67,537.25
10.43165,509.57,538.32
10.45178,509.24,539.84
10.47141,508.09,539.64
10.49210,506.79,541.92
10.51225,511.00,541.40
10.53231,507.30,542.55
10.55152,509.88,540.63
10.57249,507.82,542.89
10.59147,506.64,539.64
10.61249,506.97,540.65
10.63173,508.80,544.40
10.65158,509.91,545.06
10.67101,508.42,543.90
10.69142,509.71,544.35
10.71147,506.85,542.76
10.73210,507.14,542.67
10.75199,508.20,538.17
10.77268,509.31,538.33
10.79241,509.78,537.92
10.81110,507.74,540.99
10.83290,511.14,539.93
10.85227,509.13,541.48
10.87118,509.72,541.35
10.89245,508.92,541.41
10.91194,510.36,540.44
10.93205,508.74,540.01
10.95282,508.93,537.73
10.97124,507.50,538.03
10.99288,509.29,536.28
11.01293,510.32,538.91
11.03133,509.78,540.52
11.05207,509.88,538.73
11.07157,509.93,539.36
11.09399,510.78,541.29
11.11260,511.02,539.37
11.13417,510.06,540.08
11.15484,510.27,541.16
11.17417,508.89,542.13
11.19610,509.64,542.58
11.21571,506.15,540.62
11.23509,509.63,541.89
11.25473,509.12,543.93
11.27403,506.39,542.61
11.29537,509.58,540.85
11.31490,509.18,543.01
11.33508,506.44,542.13
11.35605,505.05,542.86
11.37430,507.77,543.03
11.39441,506.06,545.80
11.41472,506.06,543.38
11.43455,506.39,545.65
11.45406,505.93,545.20
11.47591,505.66,544.03
11.49490,505.75,542.32
11.51411,507.47,541.07
11.53410,508.22,540.48
11.55427,509.27,540.69
11.57411,508.39,540.44
11.59426,506.46,540.59
11.61405,509.04,540.94
11.63476,505.44,540.22
11.65417,509.24,543.13
11.67525,507.18,540.75
11.69383,509.03,544.02
11.71482,508.10,544.36
11.73462,505.76,546.72
11.75555,508.22,547.05
11.77517,506.30,544.83
11.79457,508.55,543.88
11.81488,506.57,543.41
11.83515,504.75,541.72
11.85586,507.71,542.20
11.87493,509.23,545.15
11.89427,509.04,546.77
11.91515,507.66,542.05
11.93457,506.27,543.91
11.95407,508.58,544.27
11.97422,506.73,540.07
11.99562,507.93,554.19
12.01430,513.61,576.67
12.03456,514.32,607.49
12.05457,513.66,633.72
12.07484,516.75,655.82
12.10524,518.39,667.38
12.11447,518.47,671.86
12.13609,518.28,673.45
12.15552,517.24,662.65
12.17600,514.50,655.17
12.19693,513.81,644.53
12.21583,513.78,633.33
12.23650,517.99,627.29
12.25592,514.21,612.40
12.27541,516.98,604.74
12.29591,514.87,596.31
12.31593,515.18,586.55
12.33615,513.70,583.72
12.35567,512.11,579.54
12.37650,511.78,570.62
12.39644,511.85,566.00
12.41679,512.70,563.84
12.43743,510.31,558.66
12.45798,507.80,555.52
12.47703,506.53,554.78
12.49715,505.51,549.29
12.51711,506.08,549.80
12.53815,507.97,545.42
12.55737,508.47,546.90
12.57863,506.46,544.79
12.59717,507.28,546.75
12.61847,504.51,546.39
12.63910,502.77,547.94
12.65860,503.24,546.30
12.67897,503.77,548.68
12.69794,504.23,543.27
12.71908,501.20,546.50
12.73999,501.80,544.59
12.76001,502.23,542.67
12.78005,499.82,543.63
12.80073,497.12,542.51
12.82079,500.28,542.97
12.84000,496.92,541.78
12.85888,494.25,542.62
12.88033,494.36,545.75
12.89954,492.57,532.06
12.92056,488.00,508.08
12.93988,483.25,479.66
12.96091,482.00,453.43
12.97929,481.60,432.07
13.00003,481.44,422.89
13.02061,477.86,419.91
13.04027,481.03,418.30
13.06074,482.03,422.80
13.07961,482.88,430.20
13.10084,485.90,438.19
13.12087,487.17,446.70
13.14059,487.00,452.89
13.15983,488.68,461.52
13.17956,488.89,470.84
13.20030,489.88,479.14
13.21966,492.27,485.58
13.23924,492.44,492.09
13.25959,495.13,500.19
13.27921,497.04,507.51
13.30062,496.51,509.78
13.31950,497.73,513.32
13.34031,496.88,520.74
13.36053,497.47,521.43
13.38037,497.01,522.76
13.39900,496.05,527.62
13.41933,496.20,525.26
13.43959,497.35,527.56
13.45958,496.14,532.98
13.48005,496.59,532.75
13.50061,496.11,534.04
13.51918,497.68,535.27
13.53967,495.33,536.32
13.56046,496.21,535.59
13.58029,496.90,532.86
13.59997,494.57,536.43
13.62074,496.19,535.55
13.63971,492.56,535.98
13.66076,492.30,534.69
13.68043,492.50,535.06
13.70017,491.41,538.56
13.72012,491.50,538.66
13.73988,495.57,536.52
13.76023,493.25,538.19
13.77901,497.69,537.61
13.80058,496.03,534.91
13.81910,495.84,535.32
13.83920,497.60,536.30
13.86061,496.88,537.11
13.88087,497.14,539.03
13.89980,498.42,543.22
13.91996,494.14,542.48
13.93999,497.30,547.38
13.95907,496.29,545.95
13.97903,495.26,543.06
13.99953,497.47,542.79
14.02009,499.01,541.66
14.03909,498.88,541.66
14.06039,499.03,541.44
14.08090,498.30,540.06
14.10052,497.94,536.01
14.12012,498.50,536.45
14.13992,496.79,537.74
14.15907,496.29,536.87
14.17920,495.68,534.95
14.19900,493.53,533.69
14.21969,495.03,534.97
14.23954,496.29,534.31
14.25905,495.28,532.63
14.28046,493.22,533.62
14.30099,496.05,533.26
14.32027,495.26,534.67
14.33938,494.01,534.99
14.35977,496.30,532.14
14.37951,492.37,534.49
14.40007,491.60,534.81
14.41921,494.57,534.74
14.44044,490.52,535.74
14.45942,491.82,537.32
14.48014,491.11,537.46
14.49963,492.22,537.84
14.51926,491.87,537.22
14.53972,489.01,538.10
14.55927,490.49,537.54
14.57911,490.52,536.03
14.59922,491.68,537.70
14.62065,489.87,535.70
14.63971,487.15,537.42
14.66157,491.14,535.85
14.68006,491.02,537.46
14.70063,490.88,534.75
14.72120,492.77,535.70
14.74117,491.98,535.76
14.76180,493.15,536.63
14.78132,493.72,535.51
14.80013,492.34,535.20
14.82057,493.29,531.85
14.84145,493.58,532.05
14.86109,492.68,532.88
14.88195,493.57,532.52
14.90005,491.60,531.48
14.92074,489.44,531.71
14.94085,489.52,533.97
14.96009,491.76,534.27
14.98210,488.43,534.85
15.00182,490.11,533.80
15.02093,490.95,535.96
15.04162,490.00,533.50
15.06098,489.37,532.03
15.08109,489.76,532.03
15.10001,491.10,532.95
15.12106,488.84,534.37
15.13981,489.98,533.11
15.16080,490.19,534.10
15.18120,493.24,534.91
15.20030,489.64,535.21
15.22108,491.16,533.40
15.24194,491.17,534.93
15.26111,490.23,532.60
15.28020,489.76,531.86
15.30190,488.33,534.14
15.32036,491.35,532.72
15.34173,492.02,534.31
15.35992,490.93,532.60
15.38029,490.78,534.19
15.40132,491.46,532.51
15.42185,490.92,534.27
15.44157,488.54,533.45
15.46114,490.89,533.21
15.48021,489.16,532.53
15.50055,489.32,531.79
15.52052,488.42,532.72
15.54025,492.06,532.82
15.56067,491.92,530.59
15.57997,492.07,533.57
15.60037,492.19,534.05
15.62039,491.18,533.37
15.64031,493.37,534.36
15.66079,492.27,533.53
15.68125,490.31,535.56
15.70173,489.87,536.01
15.72066,490.87,537.08
15.74115,492.32,533.83
15.75997,491.45,535.83
15.78074,494.14,533.80
15.80041,493.70,533.93
15.82099,492.46,533.80
15.84028,490.87,536.36
15.86102,491.02,536.29
15.88044,494.59,535.51
15.90146,491.09,532.19
15.92127,490.44,535.52
15.94136,494.52,535.39
15.96166,493.64,535.14
15.98041,495.00,532.93
16.00084,494.01,535.00
16.02089,494.81,535.25
16.04113,494.71,534.23
16.06192,493.28,533.12
16.08060,491.54,533.63
16.10115,489.51,534.15
16.12052,493.32,533.44
16.14181,489.37,530.28
16.16118,491.65,529.15
16.18269,490.01,540.62
16.20235,490.18,562.02
16.22095,490.38,595.19
16.24265,493.30,625.89
16.26255,494.22,644.46
16.28120,491.61,651.22
16.30163,493.80,651.25
16.32073,492.67,647.17
16.34254,496.52,641.63
16.36114,497.86,632.44
16.38162,501.29,621.72
16.40266,500.48,617.33
16.42241,501.23,604.79
16.44109,500.01,597.70
16.46203,499.75,588.31
16.48338,497.59,583.86
16.50385,498.81,577.38
16.52383,499.63,568.68
16.54211,500.88,564.44
16.56212,500.58,562.90
16.58192,496.62,561.25
16.60364,497.98,556.53
16.62217,498.89,555.88
16.64256,500.00,550.12
16.66210,498.58,550.44
16.68208,502.87,544.42
16.70259,499.32,545.71
16.72272,498.67,544.67
16.74261,498.22,543.93
16.76320,499.38,542.74
16.78187,499.94,544.57
16.80191,496.35,543.11
16.82331,497.49,542.75
16.84251,498.41,540.46
16.86360,497.47,541.65
16.88273,496.38,541.75
16.90294,498.58,539.77
16.92290,495.97,537.31
16.94394,496.94,538.15
16.96231,498.36,536.74
16.98279,498.62,536.54
17.00193,496.93,537.39
17.02267,499.61,538.09
17.04343,498.22,537.60
17.06245,499.13,537.44
17.08269,497.31,539.29
17.10223,497.59,539.19
17.12305,499.32,542.76
17.14240,496.46,530.45
17.16379,493.43,508.76
17.18250,493.08,478.08
17.20348,488.44,448.17
17.22332,490.54,426.77
17.24220,489.84,418.28
17.26203,488.57,417.53
17.28238,487.63,419.73
17.30329,489.01,423.80
17.32294,492.06,429.07
17.34259,491.06,440.11
17.36275,494.73,446.78
17.38276,493.83,455.50
17.40280,490.61,466.12
17.42288,494.27,473.97
17.44359,493.91,480.75
17.46395,498.43,491.89
17.48302,496.95,495.06
17.50406,499.73,502.62
17.52462,502.67,506.40
17.54442,500.93,510.75
17.56418,502.82,517.58
17.58328,501.61,521.82
17.60423,501.05,523.09
17.62424,498.78,526.09
17.64451,499.47,526.21
17.66302,500.76,528.84
17.68404,501.67,530.55
17.70317,502.09,531.18
17.72333,501.29,530.47
17.74383,502.14,531.44
17.76371,503.73,533.25
17.78410,504.70,536.11
17.80461,502.84,536.79
17.82282,502.35,536.09
17.84312,502.80,537.74
17.86338,502.53,536.90
17.88283,503.46,537.15
17.90422,502.42,535.63
17.92311,504.14,534.80
17.94298,500.56,535.26
17.96319,501.39,536.81
17.98411,503.04,535.72
18.00345,503.24,537.78
18.02371,501.93,538.34
18.04326,500.46,538.10
18.06296,500.64,536.12
18.08537,501.26,538.51
18.10507,503.53,536.09
18.12428,503.66,540.39
18.14496,502.31,539.69
18.16544,503.00,538.44
18.18566,505.38,539.97
18.20546,505.15,540.69
18.22608,508.35,540.63
18.24561,506.91,540.61
18.26635,506.43,537.40
18.28544,508.40,539.73
18.30556,509.79,539.12
18.32786,509.71,536.88
18.34608,508.35,537.92
18.36627,509.22,539.82
18.38617,507.58,538.60
18.40727,511.99,538.30
18.42645,510.00,537.42
18.44582,512.55,539.04
18.46754,510.25,537.90
18.48768,510.84,540.06
18.50675,513.50,537.94
18.52582,512.60,541.39
18.54595,511.68,539.65
18.56600,512.45,540.70
18.58637,515.17,540.75
18.60687,511.81,541.32
18.62789,513.95,539.04
18.64715,515.68,538.28
18.66721,514.72,537.27
18.68660,513.15,538.67
18.70660,515.47,541.31
18.72614,512.34,540.84
18.74695,513.18,539.49
18.76591,508.97,539.14
18.78613,512.17,542.49
18.80748,511.37,542.84
18.82634,510.82,540.32
18.84659,510.03,540.88
18.86706,510.62,542.00
18.88750,510.43,540.75
18.90661,512.22,542.49
18.92620,510.91,541.77
18.94781,510.25,540.31
18.96718,509.62,539.07
18.98648,510.53,540.72
19.00753,512.67,540.10
19.02709,513.17,538.27
19.04646,513.40,536.66
19.06593,512.80,535.46
19.08769,511.06,537.15
19.10637,510.86,533.94
19.12643,512.87,535.78
19.14739,510.52,534.05
19.16728,509.63,533.63
19.18744,512.75,535.98
19.20627,513.07,534.95
19.22645,509.55,536.85
19.24621,509.71,534.85
19.26701,509.20,535.13
19.28710,510.24,537.08
19.30680,508.61,538.71
19.32714,509.21,538.25
19.34690,510.40,538.71
19.36628,510.21,542.82
19.38768,510.63,555.31
19.40719,516.45,582.09
19.42770,516.27,622.35
19.44659,519.54,671.21
19.46733,522.20,702.05
19.48780,523.77,718.15
19.50700,526.82,717.29
19.52718,525.19,696.86
19.54802,521.49,681.03
19.56710,520.54,662.06
19.58756,519.05,642.35
19.60755,517.42,631.42
19.62851,515.76,612.91
19.64775,515.32,602.37
19.67025,514.79,592.23
19.68984,511.42,584.82
19.70926,510.76,578.71
19.73063,513.56,572.36
19.75074,512.73,566.85
19.76958,510.76,567.24
19.79007,510.02,566.32
19.81006,512.65,563.31
19.82912,513.01,561.93
19.85043,513.98,559.44
19.87079,513.48,556.45
19.88965,514.52,557.61
19.91045,513.71,555.85
19.92943,511.60,555.39
19.94994,514.44,552.14
19.96887,511.17,551.91
19.98882,511.56,552.34
20.00908,512.24,548.26
20.02912,512.75,550.72
20.04905,508.48,550.83
20.06919,510.02,554.56
20.08911,509.35,561.37
20.10912,507.47,561.74
20.13054,504.00,550.10
20.14980,500.38,524.81
20.17086,499.10,499.24
20.19054,497.58,469.51
20.20942,496.32,446.65
20.22974,496.94,428.32
20.24897,497.45,416.97
20.27121,500.37,413.69
20.29186,497.94,411.45
20.31146,500.18,413.52
20.33251,499.32,416.61
20.35195,496.37,425.46
20.37213,498.58,429.33
20.39093,499.64,440.32
20.41097,502.45,448.67
20.43090,502.87,457.47
20.45149,503.45,466.74
20.47195,508.70,479.52
20.49101,510.71,498.77
20.51235,514.28,533.99
20.53268,521.05,583.99
20.55342,522.53,639.21
20.57343,525.44,693.37
20.59429,522.52,733.16
20.61408,519.90,759.33
20.63386,511.32,762.57
20.65382,507.53,749.34
20.67304,498.44,713.26
20.69356,495.45,669.92
20.71417,495.72,618.64
20.73500,495.70,571.24
20.75489,495.81,528.62
20.77493,494.87,495.22
20.79569,493.00,471.48
20.81438,491.38,449.03
20.83457,492.44,441.17
20.85527,492.45,431.79
20.87573,491.14,430.26
20.89485,489.97,430.66
20.91550,487.79,432.73
20.93459,491.18,440.58
20.95395,490.03,446.94
20.97412,488.43,452.39
20.99512,489.22,459.73
21.01421,487.20,466.81
21.03388,489.25,476.42
21.05481,488.44,482.56
21.07533,489.02,489.59
21.09439,490.81,494.89
21.11489,489.32,498.73
21.13429,487.83,505.84
21.15523,487.59,510.38
21.17383,489.25,513.09
21.19459,488.65,516.21
21.21539,486.01,519.18
21.23568,485.74,521.26
21.25492,485.86,525.15
21.27501,489.28,526.63
21.29573,488.53,530.59
21.31566,487.60,528.55
21.33630,487.09,531.06
21.35495,487.37,530.42
21.37612,490.11,530.57
21.39590,488.19,531.77
21.41513,490.83,530.08
21.43560,488.25,529.73
21.45611,490.77,528.73
21.47615,487.47,529.93
21.49736,490.20,528.40
21.51583,490.28,532.10
21.53782,492.79,530.42
21.55816,493.46,532.01
21.57816,491.45,531.76
21.59853,490.55,530.22
21.61943,491.22,533.63
21.63911,492.50,532.08
21.65872,492.82,535.27
21.67917,491.98,533.21
21.70030,492.40,537.67
21.71911,494.53,534.49
21.74040,495.19,535.26
21.76044,492.71,537.21
21.77957,493.44,536.60
21.79913,494.88,536.38
21.81921,493.78,536.58
21.84041,493.92,539.17
21.85891,493.85,536.72
21.87983,495.02,536.94
21.89935,494.34,536.83
21.92098,496.46,536.12
21.94153,497.36,536.98
21.96005,498.61,537.55
21.98113,499.81,539.42
22.00045,500.10,538.40
22.02023,499.95,537.77
22.03987,498.41,539.24
22.06014,499.04,537.35
22.07990,498.51,535.49
22.10178,500.89,534.21
22.12074,498.36,534.70
22.14063,500.98,533.83
22.16145,500.47,536.96
22.18154,500.76,534.79
22.20095,497.26,533.98
22.22093,496.92,535.94
22.24088,497.13,534.98
22.26170,497.72,533.32
22.28113,500.60,533.42
22.30203,499.98,532.38
22.32103,499.75,532.80
22.34257,502.13,535.24
22.36304,503.69,532.13
22.38259,505.20,535.84
22.40193,504.88,534.04
22.42203,503.47,535.67
22.44272,505.37,535.18
22.46322,505.60,538.17
22.48342,504.21,534.60
22.50356,505.67,534.47
22.52307,503.68,536.39
22.54230,504.31,537.68
22.56180,505.56,537.50
22.58297,506.38,536.55
22.60209,505.99,538.33
22.62177,504.00,540.10
22.64241,505.30,540.35
22.66203,503.97,538.76
22.68205,505.31,537.14
22.70309,507.22,539.71
22.72304,507.56,539.19
22.74264,507.75,538.37
22.76209,505.51,537.84
22.78225,507.26,538.28
22.80298,508.34,536.13
22.82309,510.00,538.21
22.84351,511.47,538.26
22.86274,510.70,539.70
22.88201,509.27,538.57
22.90362,505.25,539.03
22.92244,506.16,539.79
22.94210,508.67,539.44
22.96286,508.10,538.15
22.98278,508.30,537.19
23.00306,506.16,537.22
23.02364,509.70,538.07
23.04266,509.18,537.50
23.06194,511.93,538.36
23.08196,508.33,539.28
23.10315,511.82,535.86
23.12216,511.48,537.41
23.14296,509.15,534.45
23.16468,510.76,534.34
23.18400,509.11,536.14
23.20454,511.28,534.86
23.22463,511.08,535.83
23.24362,509.67,537.62
23.26466,512.17,537.88
23.28479,513.99,537.39
23.30417,512.45,537.74
23.32497,509.97,538.66
23.34506,509.11,540.57
23.36549,509.38,537.63
23.38402,508.98,536.33
23.40563,511.18,540.99
23.42564,508.44,542.08
23.44380,511.08,554.60
23.46395,511.52,573.98
23.48458,514.19,604.77
23.50384,516.24,630.56
23.52529,517.78,647.17
23.54392,520.91,656.21
23.56454,522.51,660.39
23.58403,520.84,660.28
23.60445,523.58,653.68
23.62529,521.58,645.07
23.64502,520.17,631.44
23.66380,518.17,622.19
23.68528,520.98,616.22
23.70493,517.58,606.51
23.72409,515.97,598.07
23.74374,516.37,591.23
23.76425,518.70,583.99
23.78462,518.11,577.03
23.80535,515.65,573.17
23.82518,516.39,570.18
23.84459,513.88,567.74
23.86428,517.37,563.43
23.88533,514.26,562.71
23.90498,512.22,558.07
23.92407,512.54,559.36
23.94488,512.10,555.73
23.96407,514.32,554.58
23.98561,514.82,552.71
24.00486,514.22,552.93
24.02534,515.50,552.74
24.04496,511.64,551.36
24.06562,514.25,548.03
24.08520,514.75,548.03
24.10402,514.25,546.47
24.12455,512.86,546.52
24.14464,515.56,544.06
24.16521,512.36,544.07
24.18486,515.46,547.19
24.20523,510.50,545.19
24.22452,509.93,544.07
24.24569,513.73,543.64
24.26384,513.96,543.39
24.28457,511.14,545.57
24.30377,510.90,544.21
24.32517,513.60,543.18
24.34430,513.56,543.98
24.36485,511.37,540.04
24.38525,513.73,541.24
24.40526,509.95,539.74
24.42383,511.13,542.36
24.44436,512.94,541.79
24.46448,510.83,542.23
24.48490,509.83,544.23
24.50545,512.54,543.23
24.52489,510.64,543.69
24.54404,508.69,544.69
24.56470,510.33,547.06
24.58451,508.95,551.70
24.60533,508.32,550.23
24.62558,508.76,545.44
24.64498,507.12,519.34
24.66549,505.56,487.88
24.68602,501.61,458.16
24.70658,497.37,440.85
24.72474,496.70,430.25
24.74676,497.28,427.44
24.76709,496.85,427.68
24.78692,496.51,434.62
24.80658,497.55,442.81
24.82733,497.86,452.54
24.84815,498.26,461.12
24.86817,499.60,472.62
24.88705,499.94,476.60
24.90761,501.05,488.19
24.92829,506.30,493.80
24.94735,504.93,499.04
24.96776,505.23,505.94
24.98809,508.03,507.14
25.00756,507.41,515.51
25.02793,507.90,519.95
25.04784,505.37,524.48
25.06817,509.85,523.49
25.08771,507.63,528.91
25.10694,507.72,532.45
25.12728,505.13,534.65
25.14745,507.23,534.66
25.16750,507.79,539.32
25.18681,507.98,538.36
25.20768,509.23,541.83
25.22840,509.13,541.19
25.24839,504.66,541.36
25.26793,505.65,542.87
25.28965,505.04,541.86
25.30930,507.48,542.28
25.32880,506.04,544.89
25.34932,504.27,541.79
25.36813,503.83,541.05
25.38802,505.63,543.07
25.40814,505.25,541.77
25.42890,506.95,544.82
25.44894,503.43,543.93
25.46803,503.64,544.52
25.48908,501.90,540.51
25.50782,503.98,541.30
25.52837,503.01,545.76
25.54901,501.16,543.19
25.56872,500.52,542.90
25.58796,503.60,544.98
25.60933,501.99,540.86
25.62943,502.71,540.77
25.64946,501.44,543.20
25.66885,502.71,540.08
25.68875,504.37,538.63
25.70826,502.21,541.42
25.72816,505.03,540.54
25.74846,503.63,542.41
25.76894,501.43,539.89
25.78894,503.26,542.32
25.80952,502.18,538.13
25.82866,502.65,538.47
25.84895,500.99,541.44
25.86889,501.56,542.68
25.88861,503.39,542.66
25.90934,500.86,539.06
25.92903,501.27,540.87
25.94875,498.95,538.02
25.96917,497.53,541.39
25.98870,498.24,541.75
26.01033,499.15,540.59
26.02993,496.36,541.09
26.04908,498.40,542.01
26.06969,495.08,545.60
26.08922,496.94,544.45
26.11010,496.53,543.36
26.12940,495.23,543.64
26.14892,496.73,542.52
26.17012,496.09,544.85
26.18952,498.00,543.64
26.20989,498.60,543.25
26.23084,499.15,545.05
26.24978,497.56,543.48
26.26890,497.25,545.10
26.28931,498.33,543.49
26.30867,499.84,541.27
26.32972,496.82,543.82
26.35041,500.36,541.47
26.37066,497.48,541.99
26.38865,499.23,544.75
26.40909,497.55,544.18
26.42976,497.08,541.17
26.45017,494.66,540.32
26.46968,494.75,543.22
26.48937,497.84,540.14
26.50963,496.17,542.43
26.52918,495.19,541.30
26.54944,494.89,541.29
26.56866,493.75,542.68
26.59057,494.79,542.74
26.61054,496.16,544.27
26.62888,495.71,543.71
26.64974,495.83,542.96
26.66888,496.70,540.77
26.68950,496.58,543.26
26.70994,497.81,542.61
26.72939,496.06,537.49
26.74949,496.86,538.46
26.76956,496.47,537.15
26.78974,494.55,538.75
26.80968,492.42,538.79
26.82976,490.75,539.29
26.85018,493.94,538.43
26.87022,492.51,538.29
26.88914,491.75,537.51
26.91021,493.29,537.74
26.93005,492.43,537.37
26.94912,493.71,535.93
26.96887,494.70,537.58
26.98980,493.31,537.42
27.00984,494.55,536.31
27.03071,493.02,538.13
27.04966,494.28,536.82
27.07103,491.66,535.83
27.09094,491.65,538.51
27.11113,493.14,538.49
27.13108,492.86,539.06
27.15036,490.56,536.93
27.17140,490.91,538.72
27.19017,492.87,538.40
27.21076,490.33,537.94
27.23120,490.33,539.24
27.25125,491.97,537.71
27.26979,489.15,540.26
27.29081,490.99,539.30
27.31063,489.89,540.18
27.33032,491.02,539.98
27.34999,489.03,540.62
27.36972,491.32,541.35
27.39014,488.42,538.54
27.41054,490.29,537.84
27.43141,490.46,537.35
27.45129,492.33,539.62
27.47078,491.77,538.81
27.49030,489.84,537.63
27.51133,492.09,538.65
27.53129,491.72,538.87
27.55071,491.06,536.30
27.57239,490.92,535.99
27.59205,489.31,536.43
27.61124,487.54,534.87
27.63169,488.80,534.68
27.65114,489.68,537.36
27.67079,491.58,536.00
27.69081,491.37,537.82
27.71269,492.02,537.02
27.73221,490.87,533.77
27.75199,489.52,533.88
27.77221,492.11,536.08
27.79258,492.93,534.54
27.81197,490.05,534.59
27.83208,490.51,535.86
27.85352,493.75,536.60
27.87237,492.36,537.64
27.89230,491.27,537.05
27.91343,492.97,535.03
27.93171,489.69,536.17
27.95207,490.82,535.75
27.97335,490.93,536.09
27.99177,493.06,532.33
28.01245,492.60,532.52
28.03289,491.29,531.64
28.05184,492.09,532.88
28.07208,492.39,534.38
28.09309,492.08,533.99
28.11342,490.11,534.90
28.13261,492.89,532.67
28.15227,491.01,534.55
28.17328,491.21,534.20
28.19278,492.14,533.20
28.21203,491.53,539.93
28.23199,492.32,551.53
28.25197,494.14,568.46
28.27275,490.93,590.87
28.29330,491.47,607.24
28.31326,493.68,629.53
28.33336,497.08,639.70
28.35222,498.17,643.08
28.37160,496.50,644.24
28.39333,497.37,643.60
28.41187,499.71,636.50
28.43166,498.77,628.06
28.45366,499.38,618.38
28.47322,499.61,612.61
28.49227,502.22,602.04
28.51210,500.31,591.75
28.53206,503.21,582.35
28.55364,503.45,580.81
28.57242,503.07,575.24
28.59237,503.42,569.00
28.61277,498.73,567.22
28.63278,500.78,561.63
28.65302,496.91,559.05
28.67221,496.70,551.70
28.69262,496.46,547.26
28.71294,497.57,543.48
28.73241,497.00,544.70
28.75355,494.87,543.23
28.77318,495.47,544.49
28.79180,493.68,542.82
28.81284,493.13,539.98
28.83354,495.96,539.72
28.85225,496.47,540.99
28.87272,496.41,539.75
28.89227,495.38,541.91
28.91277,493.85,544.74
28.93269,496.10,540.56
28.95215,494.42,543.03
28.97269,496.09,537.77
28.99214,490.89,539.61
29.01160,492.36,539.01
29.03303,490.71,537.30
29.05205,492.13,539.34
29.07302,492.12,541.16
29.09223,494.07,537.90
29.11221,492.12,537.61
29.13328,490.84,539.80
29.15278,492.60,552.36
29.17186,497.50,572.88
29.19326,501.40,590.43
29.21336,498.59,598.85
29.23242,498.94,590.30
29.25258,494.14,557.58
29.27296,493.37,521.06
29.29329,492.11,483.44
29.31323,487.04,457.30
29.33241,487.01,439.27
29.35303,483.13,430.52
29.37231,484.01,428.41
29.39316,483.56,428.19
29.41308,483.00,430.27
29.43235,488.22,434.22
29.45207,488.46,432.89
29.47274,489.67,437.43
29.49273,487.89,441.41
29.51185,489.35,446.87
29.53316,491.28,452.24
29.55263,489.13,454.92
29.57262,491.83,464.94
29.59258,492.05,472.87
29.61333,492.27,479.77
29.63334,490.01,488.87
29.65314,492.92,494.44
29.67327,493.73,500.09
29.69246,490.35,503.59
29.71237,490.66,510.44
29.73348,489.57,512.90
29.75312,490.75,515.09
29.77411,494.37,520.30
29.79364,495.88,523.02
29.81353,498.57,522.67
29.83312,498.83,526.52
29.85382,495.60,528.81
29.87331,496.84,528.19
29.89386,498.58,531.13
29.91353,494.76,533.11
29.93291,497.15,532.60
29.95330,495.05,535.25
29.97400,497.78,531.83
29.99302,495.52,533.51
30.01413,497.13,531.24
30.03389,499.67,532.01
30.05424,498.50,532.84
30.07404,499.93,531.41
30.09422,500.92,531.39
30.11249,502.00,531.15
30.13364,499.40,530.24
30.15431,501.21,532.75
30.17419,499.25,533.80
30.19285,500.02,531.96
30.21280,496.74,533.07
30.23406,496.57,532.65
30.25256,497.74,528.66
30.27416,500.33,531.07
30.29288,498.66,528.82
30.31332,499.39,531.11
30.33332,499.30,529.74
30.35444,502.16,532.73
30.37359,500.62,534.29
30.39372,500.36,531.42
30.41394,501.49,533.40
30.43251,501.57,537.18
30.45353,500.65,535.14
30.47350,497.41,535.71
30.49419,499.23,534.86
30.51416,498.23,536.54
30.53284,500.59,534.25
30.55400,501.63,535.11
30.57436,501.16,536.52
30.59629,502.50,535.86
30.61604,503.14,536.48
30.63533,500.32,535.92
30.65582,504.31,538.56
30.67447,505.20,537.39
30.69440,503.69,541.99
30.71456,505.88,540.52
30.73597,505.14,539.63
30.75591,505.19,536.09
30.77566,506.00,538.73
30.79534,506.77,535.81
30.81615,506.31,538.07
30.83488,504.97,535.36
30.85614,505.66,535.08
30.87563,507.29,538.16
30.89518,508.91,536.47
30.91588,505.80,539.64
30.93495,507.90,538.38
30.95466,506.68,538.77
30.97590,508.03,536.77
30.99467,507.39,537.16
31.01463,507.15,538.48
31.03508,505.48,538.00
31.05647,509.58,535.43
31.07627,509.37,536.55
31.09475,505.58,539.04
31.11640,509.61,537.89
31.13546,509.85,539.35
31.15463,508.44,539.26
31.17593,506.69,536.51
31.19622,507.92,539.54
31.21488,507.06,537.80
31.23480,509.14,537.29
31.25456,508.31,540.20
31.27476,508.58,536.46
31.29646,509.68,539.04
31.31537,504.98,537.03
31.33455,506.47,536.08
31.35628,507.01,536.27
31.37507,509.13,540.04
31.39547,510.16,541.48
31.41636,508.92,539.35
31.43603,508.38,541.32
31.45581,510.13,539.53
31.47600,510.17,540.66
31.49528,508.45,542.75
31.51639,509.30,539.60
31.53587,506.87,538.88
31.55578,506.33,542.58
31.57589,506.30,542.79
31.59557,507.77,542.22
31.61737,507.15,541.58
31.63715,507.79,540.06
31.65689,510.08,538.37
31.67621,507.85,539.64
31.69598,511.84,539.26
31.71613,511.86,540.77
31.73573,511.45,538.23
31.75648,511.72,540.84
31.77586,512.73,539.59
31.79605,513.19,542.17
31.81713,510.66,542.95
31.83671,509.15,541.57
31.85613,510.57,541.05
31.87704,510.53,542.47
31.89612,508.43,542.43
31.91735,510.00,541.57
31.93687,510.46,543.81
31.95700,509.64,543.41
31.97737,511.15,542.00
31.99612,512.84,540.15
32.01692,512.64,542.44
32.03629,513.56,543.95
32.05605,513.25,540.97
32.07572,515.11,543.82
32.09597,511.42,543.45
32.11660,510.83,541.58
32.13742,510.82,544.25
32.15742,510.64,540.68
32.17669,513.53,542.34
32.19595,509.79,543.30
32.21665,508.76,540.62
32.23584,511.06,542.34
32.25636,511.36,538.85
32.27637,511.36,540.66
32.29660,510.79,540.38
32.31555,511.70,537.02
32.33674,513.22,539.80
32.35602,511.37,538.52
32.37687,512.47,538.28
32.39713,515.82,541.97
32.41711,512.56,539.01
32.43710,513.85,538.77
32.45631,516.09,541.03
32.47671,513.63,540.96
32.49731,513.75,538.79
32.51584,513.48,539.76
32.53736,513.23,545.13
32.55600,511.67,558.53
32.57679,512.58,581.42
32.59712,515.10,603.18
32.61640,514.72,623.43
32.63584,517.88,635.97
32.65677,517.31,645.25
32.67702,517.26,644.81
32.69593,515.30,642.23
32.71606,515.04,637.68
32.73584,515.18,626.18
32.75550,515.92,615.49
32.77639,516.57,608.02
32.79628,518.35,599.61
32.81705,520.87,598.27
32.83631,521.21,589.95
32.85576,518.31,586.09
32.87578,517.70,580.76
32.89635,517.98,576.69
32.91555,516.26,572.06
32.93695,517.40,569.05
32.95587,519.04,567.66
32.97636,515.05,565.81
32.99669,516.81,562.73
33.01625,513.07,559.32
33.03693,515.67,561.53
33.05685,515.56,558.84
33.07685,512.29,557.11
33.09594,514.50,556.28
33.11690,513.01,554.52
33.13684,512.48,556.00
33.15725,510.31,553.34
33.17717,509.80,550.58
33.19723,509.64,551.87
33.21597,511.44,549.82
33.23549,512.06,551.31
33.25701,509.33,548.13
33.27536,511.32,549.81
33.29660,512.48,551.57
33.31577,513.23,548.60
33.33553,512.87,546.75
33.35617,511.79,544.55
33.37610,512.12,546.85
33.39585,512.02,546.56
33.41746,508.51,543.60
33.43606,510.75,544.00
33.45536,510.49,545.99
33.47736,510.52,544.16
33.49581,510.62,542.21
33.51741,511.10,545.06
33.53629,510.30,547.00
33.55715,510.58,545.97
33.57629,507.53,529.46
33.59566,506.86,508.03
33.61736,507.41,479.14
33.63636,505.06,456.66
33.65588,507.72,438.57
33.67719,503.59,429.28
33.69745,502.21,430.32
33.71577,502.34,431.16
33.73609,506.67,435.69
33.75621,504.34,445.85
33.77560,506.06,454.63
33.79660,506.38,463.26
33.81630,504.30,472.87
33.83739,503.99,480.92
33.85553,505.69,487.09
33.87552,506.85,494.15
33.89573,509.36,502.26
33.91555,508.70,506.79
33.93627,508.92,512.06
33.95596,508.75,518.93
33.97592,508.63,520.92
33.99704,506.78,525.40
34.01616,505.90,527.83
34.03573,507.72,528.90
34.05669,507.73,531.76
34.07620,507.88,533.54
34.09624,508.29,534.90
34.11543,507.05,534.75
34.13674,506.51,535.33
34.15640,508.39,536.82
34.17632,508.47,538.72
34.19734,506.06,537.94
34.21595,509.97,541.17
34.23613,509.81,538.20
34.25715,509.10,542.74
34.27666,509.99,540.79
34.29587,508.70,539.96
34.31625,507.94,543.59
34.33613,512.37,542.49
34.35651,509.43,545.19
34.37625,511.57,543.82
34.39548,509.83,542.81
34.41654,508.87,541.78
34.43654,511.73,541.91
34.45586,510.62,542.37
34.47550,513.14,539.74
34.49681,512.81,542.51
34.51610,512.91,542.80
34.53668,510.94,543.05
34.55674,512.75,540.19
34.57541,511.62,541.34
34.59697,511.94,542.25
34.61696,511.07,542.27
34.63651,510.42,541.33
34.65698,508.49,544.87
34.67646,510.81,543.58
34.69647,509.60,542.71
34.71715,509.10,541.78
34.73733,509.61,542.32
34.75663,510.91,541.67
34.77709,511.22,542.76
34.79734,511.39,543.00
34.81545,509.42,543.44
34.83595,509.29,540.47
34.85690,511.86,543.59
34.87723,509.30,543.33
34.89692,508.26,543.29
34.91717,507.21,542.24
34.93666,507.27,545.81
34.95731,509.43,546.07
34.97581,509.59,542.54
34.99747,507.79,544.75
35.01577,509.41,546.04
35.03730,509.86,543.92
35.05629,510.22,542.04
35.07686,508.50,545.02
35.09679,508.63,544.22
35.11660,511.52,544.57
35.13661,509.14,544.44
35.15680,511.72,543.57
35.17581,510.81,544.31
35.19734,509.13,541.21
35.21592,510.04,541.55
35.23807,511.26,539.48
35.25679,509.96,541.94
35.27671,510.50,542.55
35.29674,511.33,542.05
35.31749,507.90,543.33
35.33794,507.04,539.73
35.35809,509.87,543.14
35.37719,508.89,540.06
35.39817,508.83,543.03
35.41817,505.61,540.56
35.43716,507.74,541.42
35.45652,511.40,542.20
35.47674,508.99,539.38
35.49760,509.83,540.69
35.51713,511.71,540.40
35.53704,507.95,541.27
35.55773,510.73,539.84
35.57792,510.90,542.49
35.59775,509.56,542.02
35.61839,510.33,543.01
35.63737,511.71,543.73
35.65752,509.06,542.86
35.67812,505.94,539.68
35.69837,508.68,544.40
35.71876,509.06,540.91
35.73805,509.73,541.73
35.75925,508.56,543.19
35.77925,508.55,540.91
35.79903,507.25,542.49
35.81977,505.31,539.06
35.83891,505.68,541.48
35.85932,506.66,539.26
35.88016,503.16,539.66
35.89997,502.85,540.96
35.92009,506.46,541.39
35.94016,503.96,539.27
35.95860,504.96,538.00
35.98002,504.18,540.51
35.99941,501.67,538.23
36.02041,503.10,538.27
36.04096,503.00,537.53
36.06020,499.94,540.22
36.07973,501.92,538.19
36.10081,499.72,536.77
36.11982,502.27,540.85
36.14060,498.54,538.64
36.15989,499.86,540.81
36.17994,499.43,538.89
36.20076,499.54,541.25
36.22086,501.18,539.19
36.23985,499.03,539.88
36.26064,501.00,538.62
36.28086,500.18,539.69
36.30113,498.65,536.95
36.31996,499.80,539.50
36.34001,501.57,537.09
36.36004,501.23,537.96
36.37988,501.50,538.45
36.40120,501.51,535.57
36.42088,498.53,538.29
36.44028,499.56,537.30
36.46088,496.85,535.27
36.48082,497.64,535.37
36.50085,500.02,535.12
36.52048,497.70,536.94
36.54145,497.40,536.24
36.56065,495.05,536.47
36.58042,494.82,532.60
36.59971,498.47,533.47
36.62089,499.51,546.13
36.64024,496.75,564.32
36.66093,499.95,589.52
36.68029,500.27,607.20
36.69982,500.81,623.41
36.71975,498.86,629.27
36.74128,498.04,635.39
36.76114,497.81,631.57
36.77985,499.12,628.88
36.80107,502.07,626.27
36.82129,499.19,621.72
36.83975,501.48,615.56
36.86158,501.98,609.21
36.88066,502.01,606.59
36.89988,502.36,604.03
36.92040,500.84,593.71
36.94013,500.38,590.19
36.95997,500.17,583.06
36.98073,499.43,579.03
36.99991,498.26,578.71
37.02000,499.98,571.12
37.04031,500.77,566.63
37.06020,500.97,560.65
37.08051,497.90,556.90
37.10062,498.19,553.94
37.11968,499.44,552.42
37.13975,498.83,552.09
37.16040,497.31,546.13
37.18069,498.35,546.59
37.20019,499.78,547.61
37.22131,498.28,542.12
37.24024,500.27,541.21
37.26087,499.97,543.82
37.28093,499.18,541.24
37.30004,500.14,543.24
37.31942,496.48,542.94
37.33997,496.85,542.10
37.36104,497.41,542.17
37.38085,495.56,541.81
37.40009,495.97,540.72
37.42105,494.54,535.93
37.44078,494.88,537.27
37.46047,496.42,537.17
37.48001,495.29,536.43
37.49950,496.31,539.11
37.52089,495.48,536.10
37.54094,498.01,540.37
37.56013,499.07,540.30
37.57956,498.45,548.00
37.60013,496.91,551.47
37.62026,495.77,532.66
37.64031,489.71,504.61
37.66038,487.88,474.69
37.68058,486.55,453.37
37.70114,485.05,438.64
37.72133,484.26,431.56
37.74019,484.26,427.19
37.75950,485.57,431.92
37.77944,484.81,433.45
37.80034,483.70,440.92
37.82048,486.69,449.45
37.84056,486.13,455.58
37.86103,484.79,461.72
37.88072,485.79,468.34
37.90092,487.82,473.29
37.92093,488.13,480.61
37.93953,491.74,485.54
37.96116,492.11,493.12
37.97969,492.75,497.19
37.99947,494.39,504.05
38.01976,491.52,507.29
38.04082,491.62,508.15
38.05953,490.27,517.43
38.08000,494.20,517.10
38.10138,493.75,522.76
38.12027,490.53,524.79
38.13959,490.75,526.33
38.15995,491.52,526.81
38.17996,495.34,528.10
38.20092,491.42,528.93
38.21966,494.02,531.93
38.24026,491.24,531.55
38.26025,494.86,533.42
38.27948,493.25,531.60
38.29971,493.48,531.85
38.32036,492.28,530.77
38.33977,495.10,532.67
38.35951,494.42,532.99
38.38097,495.45,534.58
38.39955,494.75,535.68
38.42125,492.70,534.90
38.44086,491.69,536.40
38.45947,491.47,534.51
38.48113,492.02,538.54
38.49984,492.54,537.81
38.52017,493.60,537.04
38.54093,492.59,537.86
38.56135,492.30,539.73
38.58034,492.54,537.77
38.60027,493.66,540.15
38.61953,490.80,539.51
38.64073,493.77,541.26
38.66095,494.14,536.28
38.68054,491.69,536.95
38.70135,491.88,537.90
38.72032,488.62,535.35
38.74108,490.06,536.13
38.76117,488.38,533.20
38.77988,489.06,537.15
38.80118,488.02,537.62
38.82060,486.38,538.19
38.83950,490.85,536.92
38.86051,487.65,537.00
38.88006,490.24,537.90
38.90052,489.74,538.60
38.91954,487.73,537.45
38.93975,490.44,537.60
38.96121,491.08,538.88
38.98073,491.55,539.64
38.99951,488.90,537.30
39.02038,492.12,536.85
39.03945,490.29,539.45
39.05990,491.36,536.87
39.08025,493.88,538.60
39.10103,495.01,537.91
39.12077,492.72,535.50
39.14068,492.45,536.47
39.16030,491.54,537.69
39.18075,491.78,537.16
39.20011,491.74,539.58
39.22094,490.81,537.85
39.24144,492.28,540.31
39.25973,492.63,538.52
39.28015,491.13,539.76
39.30025,493.65,537.58
39.32000,491.39,540.70
39.34149,491.99,539.98
39.36062,493.17,538.66
39.38005,492.05,541.90
39.40098,492.31,540.19
39.41948,491.28,538.53
39.44059,490.22,534.55
39.46109,493.77,537.17
39.47953,493.45,537.29
39.49984,492.46,537.64
39.51994,492.52,537.31
39.54095,492.98,539.78
39.55930,490.80,537.81
39.58083,492.51,539.54
39.60032,491.65,537.97
39.61961,492.53,537.39
39.64028,491.01,538.90
39.66120,490.63,538.82
39.68111,490.94,538.21
39.70130,488.74,537.68
39.72044,490.10,538.51
39.74119,491.82,535.81
39.76102,491.84,536.77
39.78100,488.99,537.85
39.80087,489.58,538.21
39.82079,491.29,538.08
39.84069,491.10,537.45
39.86090,488.68,533.35
39.87982,490.92,534.54
39.90045,489.87,532.93
39.91979,487.76,533.82
39.94013,487.45,536.23
39.95999,491.07,537.93
39.98080,490.42,535.66
40.00111,490.35,534.82
40.02011,489.61,537.30
40.04112,490.19,535.47
40.06046,493.47,536.83
40.07993,490.56,536.95
40.09947,491.50,535.09
40.12107,493.23,537.14
40.14014,494.26,538.79
40.15968,490.26,536.99
40.17921,490.35,536.71
40.20003,493.33,536.54
40.22106,489.83,536.15
40.24042,491.56,536.89
40.26027,489.91,538.01
40.28074,491.05,537.16
40.29975,489.78,534.28
40.31984,488.30,535.21
40.34035,488.52,536.15
40.36034,487.69,536.57
40.38080,491.84,535.22
40.40031,490.51,535.56
40.42136,491.04,536.63
40.44094,489.99,536.38
40.45977,489.29,535.95
40.48087,491.96,535.95
40.49994,492.95,535.34
40.52093,490.72,533.74
40.54096,489.36,533.69
40.55959,492.58,536.36
40.58090,489.84,535.55
40.60041,491.81,534.53
40.62099,493.24,535.81
40.63944,492.89,532.57
40.66089,491.83,532.21
40.67995,494.52,535.22
40.70126,493.90,534.39
40.72022,493.39,534.58
40.74092,493.84,534.47
40.76052,493.58,537.70
40.78228,496.68,536.78
40.80039,495.69,536.07
40.82060,493.04,537.54
40.84058,495.91,538.26
40.86111,493.06,536.81
40.88014,495.73,536.28
40.90225,496.81,536.43
40.92215,495.12,533.28
40.94137,493.81,534.77
40.96122,495.38,534.25
40.98054,491.47,535.58
41.00132,493.86,536.45
41.02151,492.30,535.18
41.04169,492.22,534.85
41.06027,494.28,535.75
41.08227,494.38,537.32
41.10048,494.47,535.51
41.12153,493.93,534.08
41.14183,495.48,536.01
41.16210,493.41,533.43
41.18097,493.32,535.65
41.20109,495.33,534.13
41.22175,491.86,535.85
41.24143,492.04,535.53
41.26115,493.61,535.76
41.28221,493.62,532.21
41.30201,493.83,533.23
41.32154,492.93,534.56
41.34027,490.00,554.19
41.36135,492.40,574.28
41.38057,492.04,601.75
41.40220,491.56,621.17
41.42088,493.40,633.75
41.44037,492.98,633.02
41.46106,493.28,632.19
41.48200,493.29,626.92
41.50053,493.99,625.35
41.52202,491.79,615.50
41.54096,493.89,607.95
41.56111,497.57,601.53
41.58044,498.94,592.43
41.60133,499.44,588.23
41.62131,500.92,582.04
41.64184,499.71,577.92
41.66227,498.72,574.94
41.68052,496.97,573.84
41.70146,499.89,569.82
41.72216,496.54,562.46
41.74153,497.32,562.30
41.76047,494.05,560.79
41.78124,496.18,561.23
41.80206,495.76,560.85
41.82172,493.53,565.83
41.84107,495.06,564.05
41.86218,495.04,565.77
41.88215,495.79,562.53
41.90227,494.71,560.27
41.92221,494.58,558.19
41.94256,495.65,555.99
41.96248,495.85,557.10
41.98156,497.06,551.16
42.00212,494.84,550.67
42.02161,496.75,552.71
42.04248,497.56,547.91
42.06158,497.88,546.35
42.08324,494.44,546.82
42.10294,495.49,545.45
42.12236,494.68,544.39
42.14182,496.96,540.57
42.16232,498.49,542.39
42.18268,497.18,541.05
42.20188,498.55,541.32
42.22154,498.37,547.45
42.24149,495.63,557.98
42.26114,497.59,563.20
42.28276,494.07,551.22
42.30203,491.56,520.78
42.32325,490.03,487.08
42.34318,488.50,453.34
42.36158,490.22,431.65
42.38178,487.48,422.35
42.40286,491.00,417.78
42.42221,488.86,416.22
42.44223,489.39,420.73
42.46187,493.02,423.12
42.48151,491.51,434.40
42.50310,491.91,441.40
42.52167,494.99,448.63
42.54202,491.24,459.15
42.56162,493.46,469.08
42.58219,493.51,477.45
42.60303,495.24,483.40
42.62214,495.03,493.33
42.64150,495.01,498.86
42.66181,494.67,502.26
42.68249,495.71,505.38
42.70282,494.66,510.40
42.72263,497.08,514.17
42.74137,496.64,515.63
42.76214,498.72,520.46
42.78127,500.39,521.18
42.80155,498.71,525.83
42.82258,499.38,526.10
42.84185,501.30,527.09
42.86367,500.75,528.37
42.88399,501.44,529.37
42.90294,500.22,530.30
42.92380,503.10,531.16
42.94368,501.79,533.08
42.96391,501.52,534.59
42.98407,500.01,535.88
43.00382,503.35,534.19
43.02372,499.42,533.78
43.04413,501.83,534.67
43.06516,502.54,536.39
43.08624,505.63,536.25
43.10569,502.46,535.18
43.12526,505.33,536.69
43.14600,503.81,534.80
43.16454,505.38,537.68
43.18566,503.67,535.70
43.20444,504.33,536.60
43.22577,504.79,538.35
43.24454,503.49,537.97
43.26500,506.16,537.21
43.28437,507.77,537.93
43.30435,509.55,536.54
43.32595,507.08,538.93
43.34551,509.70,540.16
43.36460,510.45,540.26
43.38592,508.60,541.54
43.40624,507.42,538.09
43.42591,510.12,538.70
43.44448,509.76,539.54
43.46500,509.68,535.87
43.48534,510.05,538.16
43.50568,506.79,538.39
43.52574,508.95,539.16
43.54535,506.98,538.87
43.56567,508.86,540.71
43.58593,506.86,538.23
43.60470,506.15,538.62
43.62599,507.55,540.17
43.64440,506.81,537.57
43.66597,506.38,540.37
43.68492,507.97,541.11
43.70541,508.90,540.03
43.72617,508.26,539.31
43.74569,510.67,538.43
43.76592,509.08,538.89
43.78507,508.89,537.58
43.80492,508.00,539.82
43.82494,509.55,537.93
43.84580,508.44,539.43
43.86564,509.36,540.50
43.88557,509.80,540.68
43.90593,509.86,541.26
43.92444,509.19,538.96
43.94523,507.55,542.21
43.96541,506.38,541.55
43.98580,508.52,539.77
44.00573,506.48,539.91
44.02561,507.75,541.90
44.04620,507.53,543.45
44.06458,508.60,540.17
44.08554,508.47,526.41
44.10505,513.38,516.63
44.12481,510.92,504.39
44.14492,514.75,495.82
44.16525,516.63,492.94
44.18467,517.11,492.31
44.20514,516.19,493.28
44.22560,515.64,497.86
44.24527,518.20,498.58
44.26605,517.32,502.88
44.28507,514.05,506.90
44.30590,512.56,510.33
44.32467,513.05,514.69
44.34482,516.98,518.98
44.36485,525.73,521.16
44.38507,528.66,523.49
44.40529,531.78,527.98
44.42412,533.41,531.34
44.44479,529.73,533.63
44.46617,529.19,536.22
44.48439,528.84,539.05
44.50624,530.52,539.94
44.52548,528.37,543.18
44.54583,526.76,546.85
44.56442,521.72,547.18
44.58444,521.58,550.73
44.60571,524.38,553.63
44.62477,520.61,560.02
44.64443,525.15,572.35
44.66414,523.37,588.38
44.68435,525.46,611.91
44.70568,528.50,635.49
44.72564,530.50,656.45
44.74584,528.80,669.61
44.76490,524.96,679.60
44.78500,523.30,688.78
44.80509,523.91,691.55
44.82431,518.96,691.42
44.84529,514.71,686.80
44.86429,508.16,675.84
44.88617,505.40,660.77
44.90464,502.25,635.60
44.92537,497.97,606.03
44.94539,495.67,572.47
44.96466,491.99,540.99
44.98574,486.05,513.95
45.00504,481.18,497.82
45.02412,480.40,491.23
45.04461,481.48,503.19
45.06450,484.11,531.62
45.08432,489.55,556.48
45.10522,487.86,566.15
45.12478,485.93,556.68
45.14548,476.32,536.13
45.16427,463.02,509.33
45.18553,459.15,481.23
45.20485,456.74,461.01
45.22489,455.08,438.32
45.24619,457.10,426.36
45.26449,462.33,421.45
45.28619,467.21,422.18
45.30582,470.53,423.74
45.32502,477.05,429.31
45.34721,480.40,430.38
45.36537,484.98,441.87
45.38577,488.19,445.04
45.40522,492.44,451.21
45.42641,496.59,462.37
45.44662,502.07,475.26
45.46541,504.62,483.85
45.48688,509.16,496.15
45.50577,508.64,501.07
45.52560,507.99,511.44
