Program Time [s],data 0,data 1
5.46068,448.75,533.58
5.47944,445.10,515.21
5.50077,442.30,497.45
5.52074,439.68,480.87
5.53909,439.08,464.08
5.55913,440.47,450.96
5.58013,440.37,444.37
5.59979,438.52,436.25
5.61924,439.10,429.54
5.64083,436.57,430.27
5.66058,436.87,431.15
5.68060,437.44,430.24
5.70150,438.41,433.15
5.72111,435.66,433.28
5.74210,438.81,438.45
5.76195,440.83,439.85
5.78278,439.55,443.75
5.80244,439.61,447.41
5.82109,440.33,450.51
5.84138,441.32,451.40
5.86219,442.13,451.26
5.88087,442.38,453.31
5.90120,443.72,456.64
5.92287,445.31,458.38
5.94145,445.16,461.24
5.96310,442.60,466.93
5.98196,443.21,468.06
6.00240,445.41,469.21
6.02273,445.67,471.25
6.04272,444.78,473.26
6.06249,445.02,472.04
6.08201,442.96,473.14
6.10175,446.44,472.43
6.12190,445.17,474.11
6.14248,445.58,469.92
6.16384,446.30,473.19
6.18246,448.08,470.64
6.20293,445.29,471.50
6.22322,448.40,470.85
6.24313,448.13,471.40
6.26251,446.17,466.93
6.28361,445.96,475.31
6.30200,449.18,486.62
6.32243,451.34,509.71
6.34260,451.52,530.40
6.36245,451.24,551.51
6.38303,452.22,559.51
6.40212,452.96,572.08
6.42177,450.68,570.37
6.44398,451.59,564.42
6.46385,448.98,568.41
6.48226,451.28,564.59
6.50312,449.61,564.04
6.52345,450.18,546.67
6.54321,451.08,543.27
6.56315,453.07,538.81
6.58295,453.74,532.68
6.60237,453.80,520.65
6.62293,452.21,513.17
6.64201,453.43,509.43
6.66217,450.14,505.95
6.68267,452.41,500.88
6.70371,449.32,498.17
6.72205,447.75,493.74
6.74386,446.62,486.92
6.76338,445.86,484.51
6.78376,444.78,479.32
6.80187,444.65,479.34
6.82281,446.46,477.81
6.84198,446.75,476.31
6.86259,448.14,478.94
6.88182,446.87,477.75
6.90359,449.48,479.96
6.92350,447.78,478.96
6.94298,449.24,476.92
6.96324,447.62,475.29
6.98336,447.87,475.50
7.00359,447.35,474.05
7.02346,446.37,476.92
7.04289,447.10,473.83
7.06302,449.27,473.85
7.08486,448.63,471.31
7.10308,446.97,469.60
7.12446,449.67,468.11
7.14403,446.01,465.71
7.16585,447.35,468.74
7.18420,446.15,466.39
7.20513,447.58,469.03
7.22432,447.70,466.54
7.24570,446.53,466.04
7.26424,445.67,466.56
7.28474,448.46,465.93
7.30455,446.12,469.03
7.32592,447.34,467.59
7.34566,446.99,466.56
7.36470,445.01,468.57
7.38567,445.95,469.24
7.40450,447.51,469.54
7.42572,447.15,469.48
7.44531,445.32,468.86
7.46538,445.89,469.50
7.48579,445.12,454.45
7.50515,447.13,436.28
7.52442,446.13,411.75
7.54447,442.37,389.65
7.56485,441.51,376.47
7.58514,443.46,370.95
7.60419,440.95,371.90
7.62469,440.42,378.49
7.64399,440.54,380.10
7.66401,443.84,387.29
7.68509,440.66,394.80
7.70448,444.27,400.63
7.72453,443.67,406.32
7.74461,442.85,413.94
7.76432,445.24,419.31
7.78529,442.67,423.99
7.80516,443.89,429.12
7.82440,445.13,435.92
7.84567,443.99,440.79
7.86512,442.82,445.76
7.88401,445.92,447.52
7.90639,442.74,450.57
7.92657,445.99,452.41
7.94783,441.65,454.06
7.96664,442.69,455.28
7.98731,440.97,455.86
8.00752,439.57,457.90
8.02757,442.11,461.91
8.04643,441.90,460.75
8.06632,439.08,462.77
8.08786,438.12,465.15
8.10698,439.58,463.25
8.12742,442.11,464.95
8.14760,439.96,466.96
8.16663,442.73,466.13
8.18602,439.18,467.09
8.20645,441.45,469.83
8.22614,439.46,469.21
8.24686,440.37,470.75
8.26616,439.91,471.29
8.28638,442.38,471.54
8.30775,442.85,469.04
8.32653,440.06,470.45
8.34716,444.05,473.45
8.36628,440.85,473.45
8.38596,439.45,471.01
8.40684,440.32,468.59
8.42643,441.30,467.61
8.44775,443.55,469.85
8.46686,442.15,471.32
8.48627,441.03,469.45
8.50602,443.71,466.23
8.52674,443.77,468.33
8.54634,440.77,468.00
8.56751,443.82,468.38
8.58741,443.79,469.00
8.60709,443.50,471.04
8.62758,440.95,468.66
8.64677,441.30,470.39
8.66645,441.49,470.86
8.68762,441.89,470.31
8.70669,441.09,470.60
8.72716,437.94,471.94
8.74759,439.48,469.65
8.76661,440.87,470.03
8.78698,440.95,470.63
8.80696,443.04,468.16
8.82701,439.76,468.42
8.84781,443.79,468.93
8.86706,440.97,469.95
8.88605,440.98,471.17
8.90709,441.97,471.01
8.92730,441.99,469.60
8.94618,441.46,469.10
8.96669,443.43,470.16
8.98700,444.29,470.69
9.00594,440.74,470.92
9.02711,440.14,471.52
9.04624,438.94,472.55
9.06779,440.74,468.34
9.08678,438.99,469.61
9.10674,438.67,469.50
9.12775,438.35,470.04
9.14705,438.49,471.24
9.16660,439.06,469.93
9.18786,437.42,468.83
9.20616,439.92,470.73
9.22656,438.94,469.62
9.24708,439.80,469.42
9.26668,440.57,471.02
9.28583,439.85,470.65
9.30624,439.76,469.97
9.32570,440.45,470.39
9.34644,440.83,470.19
9.36763,441.56,471.03
9.38587,441.63,471.99
9.40741,440.69,472.82
9.42761,439.53,471.99
9.44761,441.35,469.70
9.46699,443.65,469.31
9.48636,442.00,469.89
9.50705,442.03,472.08
9.52661,440.24,469.04
9.54743,442.84,470.68
9.56605,441.24,467.35
9.58738,439.15,467.74
9.60754,441.21,468.77
9.62677,441.95,467.82
9.64685,440.12,470.66
9.66641,443.23,465.60
9.68674,441.81,466.03
9.70680,438.82,466.78
9.72715,442.23,465.16
9.74680,441.24,467.02
9.76608,439.96,466.55
9.78725,441.93,466.45
9.80584,438.45,468.46
9.82714,441.56,466.77
9.84738,439.77,469.28
9.86716,441.37,472.44
9.88723,442.06,472.57
9.90638,438.79,470.47
9.92736,438.19,470.77
9.94738,440.49,469.45
9.96744,441.40,470.53
9.98648,440.37,470.72
10.00754,439.77,471.32
10.02707,438.22,472.88
10.04596,440.33,471.65
10.06732,438.17,469.82
10.08763,441.74,471.82
10.10653,441.82,471.93
10.12581,441.43,471.70
10.14767,441.91,473.77
10.16749,440.73,469.55
10.18755,440.42,469.19
10.20721,436.58,469.18
10.22622,437.45,471.43
10.24658,439.38,472.68
10.26582,439.63,472.67
10.28765,437.48,471.53
10.30756,439.46,471.84
10.32824,437.26,472.24
10.34838,438.88,471.65
10.36849,436.48,470.48
10.38817,437.95,470.44
10.40729,435.91,470.96
10.42707,435.18,470.18
10.44807,434.88,466.68
10.46756,435.01,469.17
10.48784,432.68,465.70
10.50841,431.48,464.92
10.52785,431.32,462.44
10.54819,433.68,464.05
10.56803,429.59,463.72
10.58773,430.02,462.27
10.60860,433.02,463.35
10.62872,431.98,471.94
10.64942,432.55,480.78
10.66917,431.91,493.94
10.68953,435.20,506.54
10.70989,431.07,521.30
10.72873,431.64,539.86
10.74950,435.30,552.00
10.76824,437.97,566.48
10.78926,436.49,572.92
10.80866,440.18,574.15
10.82929,437.57,571.69
10.84813,436.69,564.92
10.86911,437.43,554.13
10.88923,438.23,546.88
10.90787,437.57,537.23
10.92792,438.47,525.40
10.94881,438.46,517.16
10.96822,437.67,509.90
10.99029,433.55,501.78
11.00937,433.56,498.04
11.02895,432.42,495.67
11.05068,433.19,489.51
11.06969,433.84,489.44
11.08884,432.63,483.72
11.11066,432.53,480.14
11.13115,431.60,478.59
11.15126,431.86,480.24
11.17212,429.33,477.48
11.19157,431.75,477.58
11.21190,430.74,474.33
11.23234,431.65,478.09
11.25086,431.56,474.75
11.27183,432.74,473.79
11.29276,432.86,473.61
11.31132,429.95,470.91
11.33264,432.30,475.22
11.35123,433.07,472.15
11.37247,432.34,470.72
11.39096,432.75,471.80
11.41163,429.22,470.82
11.43138,430.49,467.10
11.45204,432.79,469.48
11.47200,432.40,468.16
11.49118,429.12,468.68
11.51191,429.26,469.02
11.53282,430.11,466.85
11.55214,430.61,465.55
11.57251,430.58,466.98
11.59191,433.93,466.98
11.61262,431.58,468.60
11.63222,431.73,468.32
11.65219,435.66,475.02
11.67191,434.89,474.68
11.69241,436.86,467.09
11.71233,435.34,448.09
11.73308,433.77,420.89
11.75308,430.64,394.99
11.77288,431.60,374.93
11.79248,428.28,362.47
11.81314,425.09,355.98
11.83329,424.11,356.58
11.85334,426.83,360.40
11.87181,427.28,366.76
11.89208,424.61,375.47
11.91211,423.75,383.30
11.93311,424.26,389.86
11.95231,428.05,400.18
11.97272,428.14,405.78
11.99290,429.37,414.07
12.01250,429.41,420.92
12.03300,431.30,426.29
12.05203,428.38,428.68
12.07382,432.73,435.15
12.09401,433.96,437.16
12.11301,434.44,440.51
12.13384,436.15,443.61
12.15403,433.94,445.01
12.17338,435.87,450.52
12.19385,437.08,450.90
12.21316,435.55,449.79
12.23390,438.17,451.73
12.25291,438.33,455.14
12.27271,438.41,456.18
12.29384,438.05,455.91
12.31310,434.98,456.49
12.33422,436.25,458.46
12.35299,437.73,456.63
12.37308,436.77,460.43
12.39321,436.80,457.91
12.41282,436.51,461.11
12.43353,436.33,458.03
12.45384,435.57,460.07
12.47392,435.04,460.31
12.49462,438.13,460.03
12.51409,437.62,458.37
12.53434,436.53,459.52
12.55386,438.22,460.30
12.57350,436.77,460.70
12.59305,435.25,459.14
12.61476,438.01,463.38
12.63343,437.27,462.40
12.65270,439.19,461.74
12.67381,436.78,463.38
12.69328,436.76,464.63
12.71449,439.73,464.17
12.73395,437.97,464.23
12.75313,437.19,463.83
12.77378,437.98,463.55
12.79331,436.73,461.20
12.81411,440.55,463.12
12.83475,440.17,460.98
12.85450,438.91,461.99
12.87439,441.92,461.68
12.89478,439.91,465.18
12.91434,438.71,466.42
12.93406,441.84,462.77
12.95467,440.15,464.21
12.97271,438.64,463.45
12.99470,437.93,464.61
13.01417,438.54,464.19
13.03360,440.20,466.26
13.05396,437.14,464.82
13.07429,437.75,464.52
13.09377,439.15,467.78
13.11301,439.02,467.29
13.13452,441.44,468.60
13.15399,440.28,466.52
13.17466,439.26,465.44
13.19367,441.30,467.79
13.21326,439.67,466.41
13.23304,440.47,466.92
13.25403,438.79,466.76
13.27347,437.91,464.16
13.29334,438.62,464.66
13.31253,438.73,465.48
13.33424,442.16,464.55
13.35368,439.49,462.84
13.37410,442.91,465.08
13.39443,442.05,463.72
13.41295,441.00,466.33
13.43338,438.73,465.16
13.45296,440.56,468.11
13.47426,439.28,467.30
13.49358,437.40,468.11
13.51369,440.28,464.91
13.53415,442.13,465.09
13.55440,440.43,467.86
13.57349,442.77,467.74
13.59263,443.47,467.70
13.61296,444.03,467.29
13.63272,444.41,466.71
13.65418,441.28,467.10
13.67379,441.18,468.05
13.69297,438.60,469.70
13.71317,441.88,468.57
13.73326,439.58,467.72
13.75349,442.07,467.25
13.77314,442.08,465.79
13.79417,441.54,468.71
13.81283,441.69,467.85
13.83444,441.35,469.48
13.85283,441.21,466.26
13.87305,442.17,465.59
13.89469,440.73,467.60
13.91407,442.07,465.80
13.93371,440.18,466.12
13.95465,441.02,463.08
13.97336,441.29,466.17
13.99414,440.08,465.28
14.01404,440.31,466.58
14.03371,438.44,465.44
14.05439,439.63,466.77
14.07358,441.56,467.40
14.09265,442.41,468.38
14.11432,440.62,465.66
14.13340,443.23,466.04
14.15330,440.87,462.85
14.17479,442.04,463.13
14.19402,440.17,465.86
14.21314,442.97,463.11
14.23294,440.51,463.96
14.25402,440.78,462.16
14.27318,440.89,465.34
14.29459,441.49,469.66
14.31298,441.17,466.39
14.33413,440.87,469.62
14.35362,441.36,471.78
14.37474,443.96,470.23
14.39398,440.80,470.39
14.41469,440.18,472.87
14.43320,443.39,470.58
14.45306,441.34,470.46
14.47400,444.11,472.22
14.49457,440.91,471.07
14.51441,443.62,469.56
14.53404,443.20,472.26
14.55333,443.23,470.25
14.57356,445.26,468.18
14.59311,445.29,468.86
14.61469,443.63,468.22
14.63467,443.85,469.62
14.65382,444.12,469.48
14.67471,442.06,469.42
14.69293,444.51,466.93
14.71429,443.01,468.66
14.73302,444.85,467.42
14.75463,446.55,468.21
14.77272,444.86,468.79
14.79312,443.06,470.35
14.81302,442.94,468.71
14.83288,440.63,469.24
14.85401,441.05,469.02
14.87384,440.10,466.54
14.89365,440.48,467.30
14.91369,442.49,464.50
14.93408,440.34,466.20
14.95367,445.08,468.03
14.97457,443.23,465.06
14.99343,442.04,467.82
15.01452,442.90,463.30
15.03413,444.65,465.21
15.05373,443.60,466.49
15.07429,447.11,463.47
15.09380,446.25,465.16
15.11307,445.29,465.00
15.13311,444.21,464.53
15.15345,446.15,466.01
15.17306,447.23,467.12
15.19353,444.19,467.13
15.21307,444.17,465.54
15.23402,447.80,467.88
15.25416,445.58,466.91
15.27340,447.96,470.54
15.29348,443.79,469.51
15.31342,445.23,467.89
15.33350,446.21,467.19
15.35389,443.57,470.52
15.37444,443.91,467.71
15.39457,443.30,467.84
15.41372,444.77,479.15
15.43456,444.16,501.98
15.45459,448.03,531.17
15.47314,448.88,553.87
15.49348,451.56,571.10
15.51431,453.08,580.26
15.53327,452.21,579.78
15.55374,453.09,572.86
15.57390,453.84,561.30
15.59396,451.80,550.72
15.61445,451.41,537.33
15.63273,447.79,528.36
15.65349,447.91,516.84
15.67366,447.86,506.55
15.69418,447.44,503.81
15.71412,445.57,498.27
15.73351,445.85,494.18
15.75269,445.65,487.35
15.77305,445.95,483.04
15.79453,444.62,483.05
15.81325,447.59,478.80
15.83437,444.29,478.22
15.85417,443.50,478.21
15.87459,446.25,478.77
15.89314,444.67,475.62
15.91407,443.63,475.53
15.93387,445.81,478.44
15.95438,444.45,474.49
15.97411,447.95,472.09
15.99273,444.38,473.66
16.01378,444.19,476.13
16.03358,443.98,475.27
16.05430,444.01,472.18
16.07458,444.82,472.18
16.09310,444.10,473.54
16.11337,442.41,471.60
16.13408,445.31,471.55
16.15445,444.27,474.61
16.17291,442.31,472.50
16.19384,442.94,471.84
16.21341,442.64,471.07
16.23455,443.51,472.00
16.25291,443.67,471.74
16.27384,443.58,469.82
16.29440,441.43,469.69
16.31367,442.17,471.80
16.33435,444.40,470.84
16.35350,445.55,461.12
16.37305,446.43,447.89
16.39301,444.65,429.31
16.41442,444.81,408.91
16.43490,441.83,393.71
16.45634,439.41,386.32
16.47626,437.66,386.38
16.49522,439.72,386.49
16.51594,438.11,387.44
16.53506,438.49,394.48
16.55645,437.71,396.58
16.57602,441.34,404.82
16.59552,441.54,411.33
16.61509,442.92,418.96
16.63647,442.11,422.70
16.65599,443.01,425.71
16.67476,445.44,429.49
16.69501,445.35,433.42
16.71545,445.60,436.95
16.73568,445.90,440.03
16.75546,445.67,444.44
16.77644,444.59,447.94
16.79626,445.25,450.24
16.81657,446.44,451.13
16.83550,448.39,451.14
16.85596,448.42,455.12
16.87541,449.53,454.73
16.89617,447.78,456.71
16.91460,446.77,460.46
16.93567,448.40,461.50
16.95635,447.43,460.50
16.97670,446.89,463.26
16.99514,449.47,464.13
17.01560,446.81,464.40
17.03638,447.80,465.33
17.05661,449.69,469.74
17.07652,450.05,470.37
17.09472,446.58,468.46
17.11607,446.78,468.38
17.13645,449.25,467.68
17.15584,447.62,469.56
17.17584,450.09,470.81
17.19503,446.36,472.86
17.21606,449.48,470.76
17.23621,446.68,468.36
17.25639,448.16,469.62
17.27490,448.75,472.39
17.29572,449.69,471.64
17.31585,449.04,468.56
17.33545,446.09,471.14
17.35572,447.97,468.84
17.37573,445.59,467.85
17.39604,447.48,470.93
17.41602,447.35,471.13
17.43587,447.99,469.65
17.45594,447.23,469.94
17.47575,449.29,468.39
17.49561,445.77,470.59
17.51526,446.89,467.10
17.53507,450.25,468.29
17.55596,450.82,469.21
17.57462,450.31,469.94
17.59615,450.39,468.51
17.61496,447.19,469.62
17.63493,447.10,469.20
17.65503,447.51,472.15
17.67595,448.82,470.54
17.69585,446.94,472.09
17.71664,447.15,470.67
17.73512,448.54,471.09
17.75528,445.40,470.50
17.77666,448.48,468.39
17.79471,445.42,469.41
17.81536,447.28,469.91
17.83506,448.95,469.40
17.85661,447.13,471.86
17.87509,449.11,471.02
17.89627,448.73,471.45
17.91593,447.97,471.95
17.93609,448.98,472.96
17.95464,450.52,469.90
17.97537,446.48,469.76
17.99647,448.27,472.73
18.01532,448.04,473.32
18.03677,448.04,472.98
18.05589,447.03,474.42
18.07524,449.67,471.33
18.09635,446.98,472.46
18.11622,449.60,474.12
18.13655,450.83,471.99
18.15555,454.13,474.59
18.17485,452.95,474.26
18.19649,454.18,471.68
18.21525,452.85,473.37
18.23631,451.54,470.73
18.25688,450.29,473.49
18.27539,449.21,474.25
18.29631,448.09,471.93
18.31489,448.27,472.47
18.33506,450.00,475.17
18.35506,449.92,472.24
18.37639,447.00,472.85
18.39603,446.02,473.21
18.41651,446.32,474.28
18.43505,445.86,474.34
18.45561,448.97,472.82
18.47538,449.61,476.09
18.49650,448.28,473.52
18.51465,448.29,472.10
18.53585,447.22,472.09
18.55662,445.20,473.30
18.57636,446.12,472.98
18.59635,444.49,474.93
18.61502,446.21,472.66
18.63617,444.12,476.10
18.65667,445.46,472.71
18.67478,444.81,474.43
18.69686,446.80,475.01
18.71490,447.21,473.72
18.73589,444.44,474.21
18.75514,446.78,476.95
18.77637,447.19,476.86
18.79671,447.68,475.32
18.81592,446.71,475.92
18.83562,449.17,476.75
18.85535,449.33,477.24
18.87474,447.79,475.11
18.89567,446.89,473.77
18.91648,446.87,477.61
18.93578,449.92,474.70
18.95526,449.43,472.91
18.97514,447.00,475.86
18.99505,450.80,476.31
19.01531,447.80,472.63
19.03526,448.94,475.88
19.05466,447.72,474.31
19.07532,448.43,474.54
19.09510,448.93,474.23
19.11537,446.76,473.72
19.13561,449.28,475.83
19.15558,447.12,475.06
19.17588,448.44,476.69
19.19610,449.52,474.93
19.21604,445.27,476.34
19.23532,447.59,476.74
19.25638,446.60,476.07
19.27543,444.51,476.94
19.29558,445.95,475.03
19.31529,446.96,475.49
19.33606,444.06,472.83
19.35519,444.99,472.52
19.37522,445.70,471.21
19.39544,446.14,473.23
19.41585,446.66,473.50
19.43666,446.81,472.95
19.45558,445.61,475.61
19.47588,447.01,474.87
19.49504,444.68,472.05
19.51484,443.44,474.36
19.53499,448.12,475.66
19.55492,447.80,471.68
19.57625,448.05,475.89
19.59473,444.65,486.22
19.61603,448.46,503.14
19.63463,449.88,519.48
19.65600,447.90,536.60
19.67655,447.77,548.54
19.69609,446.65,555.99
19.71641,450.98,559.51
19.73552,451.35,558.55
19.75594,450.12,553.04
19.77599,453.59,549.84
19.79510,453.84,542.83
19.81669,451.30,535.85
19.83517,453.29,530.40
19.85524,455.83,523.74
19.87517,452.94,517.35
19.89652,454.61,514.28
19.91588,454.33,512.49
19.93629,452.80,503.74
19.95584,449.44,501.50
19.97613,449.24,501.56
19.99594,450.53,493.43
20.01489,449.94,489.73
20.03599,447.11,491.35
20.05516,446.62,490.22
20.07598,445.74,488.11
20.09586,447.80,488.84
20.11644,445.26,488.61
20.13615,446.39,486.20
20.15669,447.25,484.27
20.17610,444.77,485.71
20.19631,445.04,483.87
20.21580,446.32,482.09
20.23500,445.25,484.19
20.25639,448.77,481.76
20.27519,449.53,484.55
20.29604,449.46,479.55
20.31565,447.66,478.95
20.33577,448.26,477.66
20.35635,448.19,477.95
20.37537,447.10,478.12
20.39503,448.44,476.48
20.41575,446.87,477.45
20.43577,446.82,474.97
20.45516,446.61,478.25
20.47622,445.56,474.80
20.49484,448.72,474.54
20.51605,449.14,474.93
20.53565,447.59,472.98
20.55628,445.90,476.82
20.57641,448.85,478.22
20.59567,447.39,478.35
20.61499,444.59,478.11
20.63572,444.77,479.15
20.65736,445.32,480.13
20.67773,442.94,468.50
20.69710,440.75,446.62
20.71659,438.52,424.40
20.73745,439.51,401.69
20.75592,434.90,385.78
20.77695,436.34,380.96
20.79826,432.53,375.89
20.81859,433.81,379.16
20.83709,436.02,384.06
20.85712,433.79,390.50
20.87829,434.50,396.10
20.89722,434.11,401.57
20.91798,435.79,406.52
20.93736,434.10,417.19
20.95794,437.35,421.84
20.97859,434.76,423.08
20.99756,435.67,432.72
21.01716,438.08,435.18
21.03734,438.09,439.81
21.05715,438.08,443.21
21.07786,436.77,448.09
21.09935,437.44,449.16
21.12023,437.89,450.37
21.14074,436.77,455.80
21.15981,433.46,457.38
21.18027,435.15,455.59
21.19902,435.47,458.27
21.21899,433.41,460.94
21.23904,435.50,461.19
21.25871,435.33,461.81
21.27897,434.01,463.51
21.29874,432.36,463.88
21.31897,431.12,462.60
21.33919,432.91,463.94
21.36028,430.45,464.10
21.37910,432.16,465.48
21.39923,430.96,466.69
21.42017,431.00,466.74
21.44014,429.14,466.35
21.46117,430.80,468.48
21.47966,430.05,465.56
21.50052,431.02,465.00
21.52052,429.19,466.95
21.54116,428.68,464.88
21.56064,429.00,465.48
21.57996,430.05,463.22
21.60082,431.02,464.89
21.62019,428.86,463.57
21.64133,431.07,462.41
21.66152,432.06,464.35
21.68011,431.68,465.19
21.70016,431.75,462.58
21.72008,430.66,464.57
21.74032,431.98,464.54
21.76025,431.97,466.78
21.78032,429.67,465.56
21.79956,430.76,467.42
21.82048,429.62,465.42
21.84054,430.98,467.40
21.86107,430.48,467.71
21.88030,431.65,466.56
21.90001,429.57,468.59
21.91997,429.66,468.74
21.94004,430.80,465.98
21.96119,428.27,467.33
21.97964,428.45,467.71
22.00075,432.02,469.82
22.02103,431.83,469.01
22.04114,429.19,466.09
22.06107,432.01,467.79
22.08098,432.24,464.32
22.10002,431.12,464.00
22.12173,432.27,465.86
22.14083,431.38,465.82
22.16029,430.73,466.57
22.18110,431.76,466.48
22.19990,429.09,467.76
22.22134,432.22,462.46
22.24158,429.69,465.55
22.26031,431.72,462.06
22.28078,430.98,463.37
22.30135,429.90,462.80
22.32039,431.22,463.68
22.33992,430.83,466.89
22.36003,430.98,467.91
22.38155,430.11,464.65
22.40118,432.07,468.00
22.42039,432.69,466.17
22.44037,432.53,464.36
22.46148,429.12,468.18
22.48114,428.45,466.23
22.50064,429.63,466.47
22.52017,427.82,464.54
22.54075,429.87,466.93
22.56101,427.28,466.20
22.58155,428.36,464.59
22.60051,428.10,466.15
22.62142,427.43,466.83
22.64156,427.76,465.69
22.66191,429.36,463.79
22.68144,430.91,463.47
22.70193,430.79,463.77
22.72180,430.83,463.47
22.74225,429.19,463.85
22.76133,430.75,464.97
22.78250,430.64,464.66
22.80214,431.14,464.10
22.82231,431.19,463.78
22.84248,427.73,464.84
22.86253,429.49,463.12
22.88079,430.16,464.44
22.90100,428.79,463.31
22.92152,429.31,461.76
22.94090,429.83,460.82
22.96138,428.70,464.83
22.98215,426.84,463.91
23.00120,428.82,462.92
23.02067,428.72,464.10
23.04095,427.90,463.91
23.06234,431.31,463.38
23.08193,430.28,462.21
23.10139,429.57,464.39
23.12144,430.75,463.47
23.14182,430.90,463.93
23.16247,427.56,461.59
23.18217,431.02,462.10
23.20078,430.06,463.79
23.22144,430.14,464.84
23.24159,430.62,462.14
23.26123,427.38,465.84
23.28120,431.02,465.89
23.30098,431.72,460.96
23.32094,432.32,464.01
23.34162,431.64,464.41
23.36099,429.09,464.05
23.38196,429.37,463.69
23.40162,428.84,462.33
23.42086,431.43,461.98
23.44216,429.82,464.48
23.46132,429.47,464.37
23.48242,428.58,461.25
23.50089,428.33,460.19
23.52092,427.95,463.09
23.54100,430.86,461.80
23.56134,431.15,464.30
23.58221,430.08,462.62
23.60108,429.73,462.71
23.62094,428.55,463.83
23.64095,429.24,463.49
23.66204,430.63,462.46
23.68110,428.09,462.62
23.70168,431.89,461.20
23.72212,429.42,462.57
23.74233,428.32,464.02
23.76141,428.25,462.31
23.78212,429.44,463.40
23.80081,431.16,462.11
23.82084,429.64,463.13
23.84139,429.79,461.96
23.86099,429.37,466.18
23.88075,430.39,466.34
23.90179,432.89,464.21
23.92253,433.42,465.39
23.94148,433.91,462.94
23.96084,431.03,463.92
23.98182,432.56,464.65
24.00207,432.06,470.48
24.02210,434.48,484.30
24.04078,435.82,503.75
24.06202,437.06,525.67
24.08221,436.47,541.91
24.10181,434.71,551.65
24.12082,437.36,558.22
24.14221,435.19,559.68
24.16246,436.36,553.17
24.18151,438.06,551.58
24.20206,437.82,544.80
24.22244,434.88,535.84
24.24149,434.30,529.73
24.26073,436.82,521.01
24.28224,435.15,513.73
24.30069,435.51,507.68
24.32255,437.63,498.85
24.34235,433.20,491.05
24.36228,436.46,487.43
24.38129,435.95,486.59
24.40173,434.26,482.53
24.42153,435.63,479.75
24.44084,436.99,479.81
24.46198,435.80,479.81
24.48109,433.69,475.76
24.50119,432.70,476.32
24.52255,430.51,473.03
24.54123,432.19,475.18
24.56271,430.45,472.31
24.58169,433.32,473.08
24.60252,431.65,473.99
24.62271,432.89,470.21
24.64214,431.55,473.62
24.66218,431.37,469.73
24.68254,434.62,470.75
24.70283,434.46,470.22
24.72185,433.95,466.94
24.74290,435.15,470.69
24.76212,438.51,467.02
24.78325,436.73,465.99
24.80359,439.39,468.22
24.82229,438.71,467.60
24.84224,439.00,468.22
24.86216,438.60,468.26
24.88236,436.65,466.46
24.90168,438.71,467.63
24.92190,436.53,467.66
24.94248,437.72,468.86
24.96296,437.90,466.68
24.98340,437.81,469.66
25.00241,434.90,467.36
25.02216,434.45,469.92
25.04133,437.65,468.68
25.06165,434.12,464.50
25.08272,433.12,453.26
25.10280,431.06,437.75
25.12325,430.61,414.93
25.14184,430.93,397.38
25.16286,429.90,382.18
25.18249,428.73,368.29
25.20181,430.08,362.67
25.22230,431.65,362.22
25.24193,432.00,367.33
25.26242,430.17,369.10
25.28275,432.20,378.95
25.30190,429.38,381.76
25.32155,432.26,391.35
25.34345,432.43,396.04
25.36200,434.27,404.33
25.38222,433.14,414.22
25.40189,435.27,421.02
25.42250,434.97,428.76
25.44298,439.75,435.27
25.46163,438.14,438.10
25.48213,437.61,441.58
25.50195,438.94,449.09
25.52196,438.59,450.19
25.54328,438.20,453.09
25.56286,436.57,454.86
25.58348,436.09,457.65
25.60236,434.92,456.08
25.62247,438.80,456.51
25.64328,436.44,458.46
25.66179,436.72,460.38
25.68229,436.74,459.25
25.70266,437.67,461.47
25.72305,437.88,461.33
25.74177,437.15,460.12
25.76288,438.08,462.52
25.78192,435.41,462.59
25.80386,439.88,462.96
25.82298,439.41,463.58
25.84273,441.33,464.19
25.86248,440.91,466.91
25.88365,442.62,466.74
25.90353,441.40,465.76
25.92357,443.45,469.15
25.94268,441.47,469.67
25.96391,441.73,469.30
25.98405,441.37,469.99
26.00324,442.79,470.63
26.02290,442.97,469.38
26.04264,441.97,468.84
26.06383,440.17,469.02
26.08280,443.36,468.24
26.10302,444.41,468.73
26.12268,443.11,469.55
26.14295,443.69,469.37
26.16312,442.34,469.10
26.18293,442.21,467.83
26.20414,444.70,468.99
26.22266,441.87,466.43
26.24361,445.10,467.99
26.26355,442.74,467.49
26.28412,441.78,468.28
26.30288,442.14,468.41
26.32265,442.45,464.63
26.34424,444.74,466.71
26.36253,445.10,468.80
26.38425,445.66,469.53
26.40375,447.44,470.23
26.42272,447.32,468.54
26.44252,448.28,467.07
26.46337,447.50,466.92
26.48402,446.52,465.83
26.50456,446.48,466.88
26.52472,444.30,467.22
26.54509,446.39,466.01
26.56455,445.72,468.81
26.58353,444.25,467.74
26.60365,444.40,470.12
26.62476,445.98,471.75
26.64389,448.30,471.96
26.66479,445.37,469.71
26.68379,445.88,472.07
26.70549,446.97,473.65
26.72468,444.85,469.75
26.74396,443.88,471.85
26.76469,447.82,468.64
26.78528,446.85,470.08
26.80556,446.64,470.55
26.82527,447.52,472.86
26.84624,446.39,471.09
26.86490,447.67,471.38
26.88509,449.08,470.78
26.90623,450.47,474.66
26.92496,448.96,472.90
26.94589,446.38,472.51
26.96473,448.76,474.66
26.98607,447.08,471.82
27.00609,448.03,471.67
27.02507,447.97,471.16
27.04545,449.63,473.49
27.06650,449.66,474.44
27.08595,448.70,474.47
27.10551,447.32,475.57
27.12480,446.60,476.54
27.14590,447.72,475.74
27.16593,445.53,473.89
27.18460,447.13,471.30
27.20471,446.93,473.84
27.22634,446.54,472.72
27.24482,445.27,472.10
27.26647,445.82,468.25
27.28462,444.52,470.44
27.30548,447.57,467.92
27.32507,447.60,470.16
27.34591,446.42,468.31
27.36506,447.24,469.00
27.38477,449.68,470.45
27.40566,446.32,469.39
27.42556,447.36,471.24
27.44550,449.96,471.46
27.46450,446.08,471.58
27.48450,446.26,470.63
27.50584,447.20,470.72
27.52435,448.28,471.15
27.54630,447.58,470.37
27.56460,447.38,468.33
27.58557,444.58,469.06
27.60555,445.28,467.23
27.62536,443.02,470.17
27.64499,444.70,468.05
27.66532,446.32,466.27
27.68613,448.40,468.19
27.70548,448.63,468.73
27.72561,445.81,468.90
27.74518,445.49,470.48
27.76467,446.23,471.24
27.78658,448.83,471.81
27.80507,446.24,471.11
27.82590,448.20,470.65
27.84599,448.65,471.44
27.86507,449.13,470.57
27.88653,449.71,469.92
27.90619,449.24,472.48
27.92603,450.57,472.77
27.94577,451.42,471.17
27.96506,447.67,470.53
27.98474,449.17,471.07
28.00457,449.70,468.25
28.02602,446.85,467.59
28.04485,447.18,469.71
28.06528,447.86,468.86
28.08631,448.20,471.03
28.10550,448.83,471.25
28.12600,449.20,468.10
28.14442,448.24,469.90
28.16536,448.11,467.48
28.18564,448.36,468.77
28.20574,448.28,467.79
28.22600,447.12,469.85
28.24528,446.59,467.78
28.26581,446.35,469.81
28.28611,448.27,469.32
28.30582,446.12,468.20
28.32601,445.73,470.81
28.34563,444.84,471.53
28.36582,446.14,471.75
28.38450,447.03,475.56
28.40544,443.16,473.52
28.42618,445.57,477.99
28.44535,447.01,490.80
28.46677,445.93,504.04
28.48660,443.46,519.19
28.50680,443.63,527.67
28.52592,441.58,537.59
28.54724,443.23,543.60
28.56607,440.43,545.95
28.58721,441.99,549.09
28.60571,442.92,548.06
28.62738,444.96,546.65
28.64697,444.55,545.03
28.66672,446.19,541.86
28.68597,448.77,540.69
28.70652,449.38,538.61
28.72579,453.83,532.74
28.74592,453.87,527.64
28.76547,457.92,523.46
28.78625,456.55,520.83
28.80761,457.83,514.83
28.82747,456.09,509.03
28.84806,455.57,506.84
28.86655,454.44,501.41
28.88703,453.79,497.03
28.90832,455.13,494.62
28.92760,454.54,490.94
28.94693,451.79,484.92
28.96713,450.40,486.59
28.98653,453.09,482.42
29.00706,450.56,483.58
29.02827,447.97,480.14
29.04741,447.28,480.84
29.06641,445.50,478.39
29.08706,445.80,479.29
29.10759,447.59,477.30
29.12719,447.46,476.57
29.14678,447.12,475.99
29.16765,444.02,477.94
29.18689,444.70,476.23
29.20691,443.35,476.06
29.22645,442.99,476.41
29.24827,445.93,473.81
29.26795,445.16,475.70
29.28648,441.74,474.76
29.30797,441.70,476.57
29.32765,445.68,473.28
29.34807,444.17,471.78
29.36796,445.78,462.74
29.38785,441.69,449.05
29.40728,441.17,430.85
29.42697,440.30,410.52
29.44640,436.09,392.80
29.46741,436.14,379.49
29.48683,434.90,372.01
29.50772,436.20,373.39
29.52758,435.95,375.41
29.54654,436.66,378.33
29.56689,434.27,385.27
29.58673,435.73,391.98
29.60774,434.98,401.26
29.62734,436.69,407.82
29.64773,434.96,414.80
29.66806,438.15,422.80
29.68775,436.39,426.84
29.70757,436.76,435.17
29.72867,438.45,441.87
29.74906,439.56,443.70
29.76746,437.50,446.44
29.78836,441.18,451.43
29.80928,441.19,454.46
29.82786,439.61,453.91
29.84907,439.76,458.52
29.86796,437.85,457.65
29.88865,436.90,457.25
29.90873,438.10,459.88
29.92847,438.82,460.78
29.94925,438.20,459.67
29.96869,438.61,460.45
29.98752,438.12,460.02
30.00921,438.79,461.76
30.02891,436.86,464.56
30.04924,437.71,463.04
30.06805,438.22,467.28
30.08789,436.50,464.50
30.10816,436.10,466.74
30.12840,437.42,466.55
30.14742,435.55,465.41
30.16796,433.16,465.56
30.18831,436.67,469.17
30.20915,435.08,467.65
30.22937,437.45,470.81
30.24888,439.16,471.28
30.26847,437.61,471.04
30.28944,437.67,470.56
30.30899,438.12,469.97
30.32768,439.16,466.97
30.34799,436.51,467.61
30.36838,436.82,469.28
30.38758,434.61,470.77
30.40778,434.15,471.22
30.42796,433.44,471.13
30.44816,435.03,471.66
30.46838,433.53,469.72
30.48826,435.81,469.12
30.50810,434.63,469.74
30.52776,437.31,470.70
30.54826,434.96,472.59
30.56757,433.89,470.07
30.58942,433.25,467.57
30.60806,433.87,469.31
30.62753,436.38,470.75
30.64808,434.37,467.87
30.66791,436.88,471.08
30.68774,434.34,469.88
30.70797,435.08,470.19
30.72762,434.56,471.40
30.74895,435.69,468.56
30.76815,433.24,470.44
30.78921,434.87,467.58
30.80779,435.91,467.02
30.82938,432.75,470.74
30.84838,433.65,470.99
30.86816,433.44,470.47
30.88856,433.39,466.75
30.90753,434.38,469.72
30.92831,431.76,468.71
30.94882,432.03,468.57
30.96835,434.47,468.40
30.98842,432.60,465.61
31.00816,433.55,468.06
31.02810,431.39,467.43
31.04799,430.47,467.20
31.06823,431.30,468.82
31.08863,430.47,467.19
31.10902,433.98,468.65
31.12932,432.21,465.23
31.14782,432.57,466.90
31.16932,434.17,469.24
31.18845,431.43,466.56
31.20846,435.16,470.82
31.22812,434.29,470.74
31.24876,431.35,470.00
31.26878,431.37,470.48
31.28755,432.66,470.86
31.30855,431.68,467.92
31.32860,430.76,471.11
31.34912,432.90,469.85
31.36823,432.90,468.87
31.38922,433.76,469.48
31.40922,433.26,468.77
31.42742,433.10,470.12
31.44777,432.11,466.15
31.46842,433.78,466.06
31.48762,432.62,467.91
31.50746,432.61,466.04
31.52928,434.80,467.79
31.54903,431.88,466.53
31.56807,432.73,468.99
31.58835,435.80,468.75
31.60884,431.51,468.64
31.62789,433.71,467.66
31.64851,432.38,467.01
31.66896,433.47,466.25
31.68805,436.83,469.96
31.70841,434.24,467.73
31.72893,432.80,467.32
31.74851,434.28,469.82
31.76917,434.74,468.01
31.78910,431.46,466.41
31.80928,433.97,467.82
31.82780,431.83,469.78
31.84776,434.68,468.86
31.86870,434.72,468.69
31.88739,434.48,467.19
31.90851,433.10,470.20
31.92818,434.65,469.52
31.94857,432.97,470.49
31.96839,432.54,468.66
31.98891,430.85,466.23
32.00926,432.54,468.43
32.02937,432.87,466.98
32.05018,430.28,468.01
32.06901,430.91,468.17
32.08913,431.54,466.38
32.10858,430.82,468.67
32.12854,429.11,468.11
32.14947,431.69,469.50
32.16868,432.18,468.03
32.18928,429.34,467.63
32.20909,429.62,468.97
32.22892,433.15,468.53
32.24951,432.62,470.23
32.26915,429.07,466.46
32.28950,428.92,467.23
32.30905,427.57,467.49
32.32848,428.21,466.44
32.35030,427.85,467.14
32.36863,426.88,465.08
32.39027,428.28,465.98
32.40948,427.34,464.81
32.43001,430.38,461.99
32.44963,431.30,462.18
32.46891,428.76,464.36
32.48898,429.02,467.73
32.50886,428.45,476.55
32.52965,428.84,489.92
32.54848,426.14,505.32
32.57110,427.03,515.70
32.59131,428.08,527.18
32.61056,427.97,533.70
32.63034,432.48,536.56
32.64911,431.15,536.00
32.67138,432.99,536.46
32.69099,435.35,534.17
32.71001,436.74,533.02
32.72984,435.59,530.28
32.75069,435.99,524.26
32.76990,436.40,523.14
32.79106,437.27,515.55
32.80931,436.94,513.35
32.83160,434.20,507.68
32.85027,435.66,504.53
32.87057,433.62,496.62
32.89123,435.93,493.53
32.91175,436.73,489.49
32.93145,435.88,484.93
32.95053,432.74,482.31
32.97201,437.46,481.51
32.99222,434.74,479.79
33.01078,433.72,477.73
33.03029,431.18,476.33
33.05173,432.36,476.07
33.07063,429.89,473.64
33.09056,432.41,470.16
33.11155,428.70,470.03
33.13219,431.96,467.42
33.15041,433.03,471.77
33.17226,431.47,469.41
33.19208,433.10,468.23
33.21157,431.14,468.31
33.23126,431.91,464.33
33.25098,430.55,465.27
33.27068,431.40,465.28
33.29011,433.28,465.23
33.31050,433.53,462.58
33.33124,432.19,463.38
33.35082,429.61,465.25
33.37031,428.40,465.39
33.39031,430.94,466.99
33.41222,431.60,465.86
33.43105,429.57,468.16
33.45194,430.62,472.49
33.47110,433.13,473.31
33.49096,430.26,458.12
33.51130,429.43,432.29
33.53060,430.50,406.92
33.55142,426.31,386.17
33.57147,425.54,373.17
33.59064,425.65,371.93
33.61070,426.07,367.51
33.63217,426.01,369.00
33.65230,424.14,374.18
33.67199,426.09,379.87
33.69217,424.38,390.18
33.71039,424.26,396.83
33.73081,422.98,400.52
33.75199,426.30,407.83
33.77178,426.02,417.18
33.79034,425.39,422.88
33.81062,427.10,429.09
33.83171,427.47,433.47
33.85124,429.05,435.22
33.87204,427.93,442.73
33.89214,429.79,444.30
33.91081,431.22,445.73
33.93119,432.38,447.94
33.95170,430.63,452.46
33.97085,429.55,452.05
33.99188,431.32,456.85
34.01060,432.64,457.65
34.03094,431.19,460.54
34.05023,432.46,459.68
34.07226,432.32,460.10
34.09034,431.59,461.16
34.11227,431.83,464.53
34.13191,430.72,461.39
34.15211,432.64,465.49
34.17110,432.50,463.68
34.19174,431.70,466.54
34.21253,433.09,467.08
34.23294,436.33,465.40
34.25184,434.11,464.84
34.27154,436.41,465.35
34.29346,436.12,467.78
34.31283,434.94,467.26
34.33383,437.38,467.91
34.35411,439.41,468.96
34.37376,438.63,469.01
34.39312,440.29,468.14
34.41244,437.43,468.38
34.43310,437.81,468.26
34.45328,437.92,466.18
34.47388,438.22,466.97
34.49237,437.65,465.22
34.51231,440.39,462.77
34.53403,440.06,467.66
34.55326,442.33,465.27
34.57289,444.04,467.34
34.59348,443.29,467.65
34.61242,441.58,466.14
34.63338,441.67,468.80
34.65221,441.84,467.82
34.67363,440.17,467.49
34.69313,442.61,466.92
34.71238,440.42,467.71
34.73315,441.33,466.37
34.75377,440.47,466.18
34.77345,441.56,466.67
34.79345,439.93,469.01
34.81427,439.00,467.53
34.83394,441.08,469.90
34.85260,439.56,469.24
34.87264,439.01,470.12
34.89241,439.57,468.79
34.91246,439.92,469.46
34.93316,441.32,469.72
34.95298,439.74,471.96
34.97333,440.42,468.14
34.99301,440.97,467.44
35.01393,441.78,470.05
35.03400,443.80,468.45
35.05413,441.24,465.84
35.07340,441.21,469.31
35.09333,440.93,469.25
35.11318,441.38,469.43
35.13317,440.66,470.23
35.15220,442.77,470.64
35.17356,440.66,467.67
35.19379,441.28,468.34
35.21320,441.94,467.18
35.23255,442.28,471.37
35.25404,440.64,468.07
35.27283,440.24,468.59
35.29374,441.49,470.13
35.31367,440.27,468.53
35.33352,443.35,469.53
35.35281,442.18,467.96
35.37362,443.44,471.05
35.39305,443.70,472.17
35.41382,442.38,471.61
35.43237,445.40,470.79
35.45340,443.98,468.26
35.47253,441.09,470.36
35.49381,444.55,472.51
35.51301,440.46,473.14
35.53253,443.98,472.29
35.55228,440.22,469.45
35.57415,441.73,470.37
35.59426,442.21,470.15
35.61421,443.21,467.58
35.63315,441.23,469.21
35.65375,440.55,473.71
35.67252,442.14,475.17
35.69405,442.63,472.09
35.71231,442.00,472.97
35.73389,440.91,473.94
35.75391,444.33,470.20
35.77268,441.91,472.05
35.79257,443.59,469.30
35.81240,445.17,472.12
35.83414,441.18,471.53
35.85259,444.82,471.25
35.87258,442.92,472.43
35.89236,443.83,472.21
35.91396,445.00,472.36
35.93296,443.52,468.15
35.95318,446.21,468.75
35.97346,445.25,470.58
35.99425,445.85,466.39
36.01245,445.35,467.88
36.03243,446.44,466.98
36.05227,446.66,469.48
36.07335,445.65,466.92
36.09333,443.81,470.11
36.11376,444.39,468.24
36.13236,446.84,469.13
36.15352,446.26,471.26
36.17317,445.46,468.96
36.19262,445.20,470.97
36.21270,447.12,468.65
36.23294,446.41,471.17
36.25361,448.27,469.27
36.27206,445.95,471.72
36.29371,447.51,471.74
36.31358,446.34,469.85
36.33415,449.28,472.16
36.35254,446.86,468.33
36.37433,448.00,468.25
36.39270,445.37,470.77
36.41383,447.83,470.96
36.43405,447.71,469.35
36.45239,448.31,469.88
36.47355,444.20,467.54
36.49429,444.07,470.17
36.51283,449.38,464.77
36.53386,449.55,469.46
36.55321,447.07,476.22
36.57382,447.93,494.04
36.59308,449.40,519.19
36.61418,451.84,535.70
36.63382,451.32,551.91
36.65305,451.38,558.65
36.67299,453.41,556.89
36.69434,453.95,557.66
36.71330,454.76,554.58
36.73349,455.18,547.18
36.75500,455.55,542.87
36.77468,455.26,537.87
36.79499,457.40,532.55
36.81443,454.35,525.00
36.83412,453.40,520.67
36.85567,454.42,513.28
36.87521,451.84,511.36
36.89564,450.74,505.27
36.91494,450.51,498.16
36.93461,447.73,495.92
36.95720,449.76,493.24
36.97652,449.89,487.70
36.99668,449.20,487.66
37.01658,450.40,485.76
37.03563,448.19,482.65
37.05700,450.36,484.78
37.07692,449.75,481.84
37.09643,448.71,484.12
37.11622,449.64,479.21
37.13673,448.96,481.61
37.15689,449.90,478.89
37.17717,448.82,479.49
37.19704,450.21,481.45
37.21604,448.58,478.79
37.23548,450.14,476.57
37.25615,446.46,476.49
37.27694,446.60,475.52
37.29670,449.31,473.82
37.31550,446.50,475.54
37.33705,447.03,476.35
37.35572,446.33,476.42
37.37510,447.79,476.43
37.39524,448.17,476.09
37.41549,447.23,469.68
37.43586,448.03,456.79
37.45655,449.65,433.18
37.47544,445.75,410.16
37.49525,443.12,389.55
37.51568,442.67,377.37
37.53527,441.30,376.36
37.55569,442.95,373.78
37.57557,443.66,377.46
37.59699,441.26,383.22
37.61683,441.02,392.57
37.63554,441.93,397.71
37.65605,441.38,404.32
37.67716,445.39,408.84
37.69621,442.96,415.80
37.71600,443.06,423.12
37.73587,443.62,430.69
37.75532,442.45,435.54
37.77540,442.72,439.35
37.79701,442.88,445.27
37.81635,445.44,450.25
37.83766,446.52,453.85
37.85836,446.89,454.22
37.87751,445.43,456.51
37.89636,446.09,460.67
37.91754,446.99,459.72
37.93820,443.10,465.68
37.95824,444.57,465.66
37.97929,443.41,464.96
37.99759,440.99,467.14
38.01773,443.00,466.65
38.03910,441.27,467.96
38.05776,439.43,468.25
38.07805,440.03,469.47
38.09855,437.41,471.17
38.11824,437.32,468.69
38.13828,439.67,469.41
38.15760,436.19,472.94
38.17777,437.09,472.19
38.19874,439.46,472.92
38.21785,436.92,471.65
38.23862,439.07,470.09
38.25885,440.47,471.27
38.27902,440.15,472.14
38.29863,440.57,471.79
38.31862,437.68,473.61
38.33799,437.95,471.93
38.35800,438.69,471.53
38.37749,438.90,469.53
38.39916,437.63,473.87
38.41819,439.50,470.57
38.43750,440.34,474.91
38.45834,440.84,469.57
38.47812,439.98,472.21
38.49882,442.77,470.12
38.51793,439.95,470.70
38.53770,441.89,471.52
38.55790,443.99,471.58
38.57852,441.44,471.64
38.59855,443.28,470.54
38.61844,439.81,471.22
38.63774,438.83,469.71
38.65844,438.63,470.75
38.67767,440.64,469.68
38.69861,437.06,467.81
38.71721,438.10,471.58
38.73909,438.05,466.78
38.75854,438.12,468.70
38.77937,439.56,467.42
38.79955,439.46,467.65
38.81999,436.76,468.56
38.83970,439.66,467.76
38.85873,440.07,470.12
38.87964,437.87,469.58
38.89878,434.36,470.85
38.91864,434.72,470.27
38.93813,437.87,469.44
38.95970,437.76,472.05
38.97885,436.14,471.14
38.99956,435.41,471.30
39.01915,434.11,469.77
39.03940,432.75,472.78
39.05991,435.71,471.94
39.07992,433.97,472.15
39.09924,433.83,471.95
39.12011,432.94,469.11
39.13917,435.59,470.32
39.15813,436.72,470.12
39.17979,434.46,471.73
39.19999,433.40,468.48
39.21978,433.93,472.42
39.24007,435.77,471.57
39.25858,435.45,470.89
39.27933,433.99,472.13
39.30018,434.00,471.68
39.31880,434.66,471.51
39.33875,433.66,468.18
39.35975,434.06,466.30
39.37957,435.13,470.27
39.39933,434.48,468.82
39.41883,435.22,469.23
39.43967,433.90,468.04
39.45917,432.95,464.65
39.47886,431.66,465.95
39.49833,431.47,465.07
39.51943,431.52,468.67
39.53999,431.10,466.40
39.55966,430.74,467.91
39.57822,431.87,470.68
39.60006,431.15,469.08
39.61972,432.13,468.85
39.63866,435.09,467.79
39.65966,431.57,469.78
39.67859,432.85,468.09
39.70002,432.88,471.83
39.72001,431.77,468.88
39.73943,432.99,468.94
39.75870,432.97,470.80
39.77876,434.36,468.81
39.79920,431.85,468.64
39.81966,431.70,468.59
39.83851,433.36,470.00
39.85983,430.83,467.14
39.87995,432.10,467.90
39.89812,435.50,468.96
39.91956,435.09,465.56
39.93930,432.94,465.38
39.96007,433.67,467.96
39.97866,431.86,467.96
39.99931,435.75,468.02
40.02028,435.87,467.03
40.03947,434.15,468.84
40.05913,434.00,470.84
40.07911,434.88,468.20
40.09973,435.89,469.69
40.11842,436.02,471.71
40.13920,432.77,470.88
40.15996,433.84,470.46
40.17823,432.89,469.41
40.19962,433.82,469.95
40.21867,431.47,469.29
40.23994,431.73,468.01
40.25924,433.15,470.38
40.27979,433.30,470.71
40.29882,430.77,467.34
40.31959,430.81,468.92
40.33800,432.99,468.06
40.35953,430.79,465.83
40.37883,429.49,468.18
40.39837,430.24,467.17
40.41925,429.70,469.12
40.43848,429.27,470.26
40.45868,426.96,471.21
40.47947,429.90,469.64
40.50008,429.65,469.20
40.51974,430.05,468.65
40.54001,428.49,472.02
40.55871,427.50,471.63
40.57830,426.63,473.17
40.59840,430.49,468.99
40.61909,428.19,470.30
40.63916,429.77,470.69
40.65821,430.52,470.20
40.68002,429.88,470.34
40.70014,429.31,469.03
40.71861,428.13,469.93
40.74004,428.68,469.50
40.75938,428.06,469.56
40.77826,430.74,466.65
40.79971,430.62,471.44
40.81896,429.85,480.90
40.83843,428.76,499.32
40.85829,430.11,523.92
40.87881,432.83,547.89
40.90005,435.27,565.60
40.91821,434.41,567.83
40.93966,435.73,565.58
40.95865,434.32,559.07
40.97820,434.95,548.87
40.99840,434.47,538.89
41.01875,433.19,531.92
41.03856,433.75,522.82
41.05810,433.69,516.24
41.07946,432.47,508.35
41.09912,433.60,500.97
41.11896,431.55,495.29
41.13978,431.41,490.17
41.15994,432.77,486.76
41.17849,431.00,485.29
41.19908,432.39,482.56
41.21957,429.96,477.69
41.23881,428.28,475.88
41.25969,430.14,475.33
41.27886,430.10,476.15
41.29846,430.01,474.03
41.31987,430.43,473.91
41.33840,429.37,471.47
41.35867,432.38,473.21
41.37896,430.34,474.36
41.39872,432.76,472.06
41.41851,430.94,473.20
41.43869,430.24,469.11
41.45932,432.47,468.93
41.47952,430.97,470.74
41.49901,431.70,468.57
41.51864,428.51,470.90
41.53852,427.96,468.42
41.55909,430.88,472.82
41.57943,431.32,469.29
41.59908,431.34,471.15
41.61891,429.58,472.88
41.63957,432.27,472.99
41.65824,432.81,472.28
41.67883,433.49,471.83
41.69910,430.88,468.87
41.71873,431.41,471.30
41.73981,432.82,469.09
41.75815,432.70,471.04
41.78035,431.37,475.49
41.79986,430.63,465.68
41.82070,429.00,448.03
41.84129,430.85,423.42
41.86082,425.36,396.44
41.88110,425.18,378.68
41.90099,422.41,369.53
41.92218,423.22,367.00
41.94185,423.00,367.42
41.96128,421.11,373.39
41.98052,422.87,377.08
42.00126,422.77,384.33
42.02055,423.35,391.81
42.04081,424.40,398.97
42.06105,422.70,406.39
42.08029,424.53,410.91
42.10048,425.81,417.37
42.12281,428.69,420.63
42.14162,428.89,427.11
42.16142,431.49,430.70
42.18132,429.48,437.87
42.20174,430.08,438.89
42.22183,428.77,443.32
42.24189,432.42,446.45
42.26228,431.36,450.66
42.28336,433.20,449.66
42.30248,434.75,452.17
42.32401,436.50,455.22
42.34352,434.06,455.44
42.36211,435.25,456.56
42.38346,436.08,458.13
42.40218,437.37,462.45
42.42232,436.30,461.69
42.44307,434.25,461.96
42.46279,436.14,465.43
42.48228,434.37,465.70
42.50394,435.51,466.24
42.52457,438.43,466.47
42.54333,436.21,468.48
42.56342,437.89,469.47
42.58406,437.29,466.96
42.60347,440.87,467.14
42.62502,440.50,468.72
42.64341,439.79,469.36
42.66346,438.74,466.69
42.68375,440.88,466.66
42.70477,440.34,465.86
42.72327,441.00,465.41
42.74367,441.81,462.79
42.76499,441.50,464.85
42.78495,438.75,462.04
42.80472,438.42,464.27
42.82317,440.14,464.85
42.84328,439.12,466.36
42.86484,440.04,465.50
42.88425,438.40,464.94
42.90362,439.45,468.12
42.92358,437.07,467.46
42.94403,437.23,466.38
42.96387,440.22,467.48
42.98386,441.47,467.81
43.00294,439.76,468.05
43.02469,438.92,467.07
43.04458,440.44,470.11
43.06482,439.66,468.86
43.08415,440.43,470.06
43.10350,439.78,468.07
43.12381,440.36,467.54
43.14468,440.47,468.80
43.16481,440.03,468.24
43.18383,439.10,469.52
43.20419,441.26,466.82
43.22357,439.49,466.51
43.24404,443.20,466.76
43.26470,441.24,469.15
43.28495,444.07,467.51
43.30439,444.69,468.95
43.32331,443.70,471.33
43.34417,442.66,470.12
43.36344,443.07,471.98
43.38481,440.22,467.46
43.40433,440.05,471.22
43.42482,443.28,467.99
43.44459,440.79,471.11
43.46374,442.35,470.06
43.48498,441.91,472.71
43.50366,443.85,471.49
43.52480,442.61,471.52
43.54470,441.34,472.88
43.56482,442.20,471.76
43.58360,441.38,471.61
43.60457,441.86,472.86
43.62299,441.33,470.51
43.64441,444.51,470.97
43.66478,443.73,468.80
43.68424,441.93,468.17
43.70469,443.90,470.63
43.72445,443.80,469.37
43.74447,443.47,468.44
43.76442,440.17,468.92
43.78495,442.08,474.33
43.80503,444.58,482.65
43.82362,449.83,498.70
43.84460,458.61,517.85
43.86387,463.39,544.33
43.88426,468.11,564.94
43.90386,473.08,581.41
43.92418,472.73,592.62
43.94429,473.10,591.20
43.96491,472.99,580.57
43.98412,471.17,556.74
44.00443,468.71,525.70
44.02423,468.30,491.14
44.04385,463.98,454.92
44.06391,466.37,424.88
44.08381,461.94,395.19
44.10339,460.87,380.21
44.12481,453.70,368.07
44.14495,452.63,364.43
44.16457,451.45,364.33
44.18526,449.67,366.93
44.20537,452.93,376.58
44.22593,450.85,387.12
44.24589,452.62,391.76
44.26485,452.67,402.14
44.28489,451.06,410.71
44.30556,452.85,416.98
44.32472,452.42,425.52
44.34459,449.67,429.74
44.36575,448.36,438.43
44.38484,450.68,442.19
44.40549,445.98,449.75
44.42544,448.71,455.84
44.44503,448.72,456.08
44.46574,446.74,463.46
44.48507,447.45,464.93
44.50416,444.07,467.61
44.52604,428.85,476.09
44.54555,412.46,486.89
44.56443,402.58,489.39
44.58421,394.58,487.64
44.60604,394.56,489.99
44.62656,396.05,489.68
44.64558,398.13,486.07
44.66605,404.43,486.43
44.68661,409.62,486.96
44.70708,413.18,486.31
44.72603,416.21,483.43
44.74602,422.02,485.42
44.76586,424.16,481.09
44.78609,430.05,483.95
44.80508,430.42,479.87
44.82576,436.26,482.21
44.84584,439.21,477.42
44.86705,439.14,478.06
44.88667,440.47,475.23
44.90585,439.57,472.62
44.92635,445.03,471.66
44.94687,438.78,470.17
44.96513,431.53,460.80
44.98649,431.18,459.24
45.00676,429.86,458.65
45.02572,430.59,456.75
45.04673,429.34,458.97
45.06564,432.22,462.78
45.08672,435.09,462.07
45.10593,435.82,462.01
45.12592,436.64,464.83
45.14634,440.31,466.13
45.16625,441.20,468.99
45.18583,440.27,468.52
45.20677,440.93,466.69
45.22590,440.73,468.55
45.24580,443.51,466.97
45.26671,442.70,466.57
45.28631,441.90,465.38
45.30696,442.97,463.86
45.32665,446.96,462.91
45.34593,447.64,465.06
45.36676,447.47,465.84
45.38682,447.17,464.82
45.40608,446.27,471.16
45.42764,453.65,485.85
45.44707,469.59,514.90
45.46775,491.25,553.06
45.48639,516.04,585.84
45.50624,538.27,605.71
45.52628,552.87,611.13
45.54648,559.37,607.29
45.56736,566.81,592.01
45.58720,565.20,574.10
45.60696,564.97,552.73
45.62605,563.62,531.29
45.64615,559.13,509.39
45.66753,555.00,490.99
45.68679,542.72,477.43
45.70703,532.78,464.46
45.72768,517.39,458.84
45.74681,502.32,450.77
45.76745,489.56,448.60
45.78731,478.72,449.49
45.80659,464.66,446.87
45.82770,456.68,447.58
45.84704,450.91,444.69
45.86619,444.03,444.03
45.88605,438.78,445.53
45.90739,440.92,445.39
45.92749,443.17,447.76
45.94711,442.56,450.21
