Program Time [s],data 0,data 1
3.26339,488.12,561.50
3.28197,489.01,557.89
3.30202,489.44,558.38
3.32323,490.66,556.28
3.34343,492.29,558.88
3.36210,490.75,554.65
3.38367,491.90,560.02
3.40267,492.85,558.86
3.42298,490.17,559.29
3.44370,489.47,561.87
3.46315,490.53,562.01
3.48205,489.45,559.93
3.50220,490.88,558.52
3.52245,490.53,560.91
3.54236,492.19,557.62
3.56216,492.93,557.96
3.58361,493.33,559.02
3.60283,492.47,559.66
3.62218,493.77,557.75
3.64335,495.52,558.58
3.66240,494.87,559.72
3.68203,492.30,561.50
3.70200,491.86,559.17
3.72270,491.26,560.41
3.74247,492.92,560.98
3.76326,490.19,559.82
3.78335,492.03,561.01
3.80193,490.64,561.35
3.82314,493.37,559.15
3.84207,491.27,560.52
3.86296,489.32,559.80
3.88192,490.82,560.12
3.90306,491.98,560.48
3.92175,491.48,561.45
3.94177,491.09,560.70
3.96353,491.79,559.59
3.98175,491.18,559.01
4.00314,489.56,559.03
4.02164,490.72,560.78
4.04369,488.53,558.98
4.06293,490.49,559.35
4.08227,488.75,559.31
4.10191,491.94,559.19
4.12178,492.86,561.59
4.14311,491.46,559.58
4.16274,491.46,560.06
4.18313,492.64,559.46
4.20375,491.15,561.31
4.22341,489.98,559.56
4.24338,489.14,560.19
4.26232,489.08,558.17
4.28351,491.04,556.54
4.30283,489.72,555.04
4.32207,490.78,557.98
4.34214,490.39,558.63
4.36375,487.15,558.18
4.38340,489.04,556.16
4.40222,489.63,556.05
4.42210,490.50,555.94
4.44198,489.74,559.26
4.46213,487.25,556.71
4.48368,488.52,555.77
4.50178,487.36,558.28
4.52329,489.54,557.70
4.54326,490.76,559.97
4.56248,488.60,558.63
4.58267,488.72,561.08
4.60253,487.78,558.55
4.62323,489.68,559.35
4.64286,488.89,558.07
4.66260,488.08,557.00
4.68318,487.98,558.78
4.70299,487.88,558.21
4.72277,488.45,559.68
4.74336,489.28,560.40
4.76225,488.53,559.72
4.78219,489.92,557.09
4.80185,493.79,559.94
4.82337,505.03,564.30
4.84218,525.10,578.96
4.86288,553.23,590.94
4.88295,578.93,602.35
4.90327,604.50,609.73
4.92326,620.63,607.99
4.94352,635.18,607.14
4.96334,640.75,601.98
4.98371,640.43,594.30
5.00360,638.08,583.77
5.02319,631.32,576.31
5.04290,626.53,572.13
5.06216,614.16,566.92
5.08181,607.34,560.35
5.10212,596.12,561.04
5.12243,583.31,558.65
5.14177,575.87,556.93
5.16363,564.21,558.44
5.18358,555.82,556.24
5.20320,548.55,555.53
5.22266,541.66,556.21
5.24207,533.03,559.52
5.26269,528.33,559.75
5.28340,522.56,559.58
5.30202,517.73,559.10
5.32327,514.20,563.67
5.34327,511.92,563.03
5.36225,508.12,561.54
5.38196,504.46,560.52
5.40240,502.63,560.43
5.42349,502.10,560.64
5.44179,503.04,560.97
5.46288,500.68,561.40
5.48266,498.08,564.37
5.50250,499.15,562.89
5.52277,496.15,561.23
5.54212,498.96,562.43
5.56261,494.56,558.79
5.58220,493.51,560.67
5.60369,493.58,560.65
5.62373,491.75,559.30
5.64211,492.86,560.84
5.66203,494.75,560.00
5.68238,494.16,560.34
5.70269,493.35,562.73
5.72353,491.75,561.88
5.74284,491.60,558.98
5.76240,492.01,556.39
5.78288,488.52,560.05
5.80303,489.53,557.85
5.82288,490.33,557.01
5.84350,491.19,556.68
5.86323,489.77,556.63
5.88323,488.33,557.44
5.90184,485.98,562.16
5.92370,476.42,563.30
5.94310,466.91,575.76
5.96200,456.20,591.16
5.98326,437.29,607.67
6.00307,421.36,611.58
6.02179,396.78,607.17
6.04245,375.32,590.69
6.06221,352.15,568.66
6.08293,335.68,545.68
6.10282,322.46,523.75
6.12303,315.00,508.88
6.14302,318.83,498.69
6.16237,327.67,495.59
6.18365,336.66,492.19
6.20214,351.65,490.51
6.22243,365.75,495.19
6.24374,375.88,500.27
6.26324,388.63,503.15
6.28215,400.93,510.19
6.30228,414.36,517.27
6.32198,423.43,520.35
6.34371,434.24,528.94
6.36301,437.56,529.81
6.38288,445.94,531.60
6.40238,450.66,535.36
6.42358,457.24,539.29
6.44364,461.05,541.46
6.46282,467.56,541.99
6.48361,470.44,539.49
6.50285,473.47,541.65
6.52339,474.99,543.45
6.54316,479.67,544.24
6.56279,482.13,546.50
6.58220,482.66,546.10
6.60290,481.69,549.19
6.62218,482.62,550.34
6.64239,486.04,549.55
6.66283,484.38,549.29
6.68330,486.52,550.56
6.70342,484.76,551.60
6.72349,486.27,548.28
6.74377,487.24,552.08
6.76260,487.47,550.22
6.78240,486.06,549.96
6.80175,489.57,551.96
6.82184,487.13,551.51
6.84245,489.02,550.18
6.86281,487.84,552.23
6.88344,488.75,553.73
6.90365,490.10,554.25
6.92275,486.70,554.42
6.94239,489.05,552.89
6.96241,488.79,552.47
6.98214,489.78,551.06
7.00188,490.87,553.66
7.02208,491.89,553.25
7.04231,491.59,552.88
7.06270,492.76,554.16
7.08319,489.92,551.98
7.10367,490.36,551.10
7.12333,490.99,551.21
7.14409,493.05,554.32
7.16479,491.08,553.48
7.18532,495.01,551.44
7.20394,494.89,552.84
7.22470,494.18,551.98
7.24481,493.37,556.36
7.26513,492.59,555.83
7.28519,494.74,557.50
7.30576,491.57,554.76
7.32407,493.21,557.58
7.34526,492.51,554.67
7.36680,494.88,554.04
7.38568,493.03,553.77
7.40555,491.35,554.39
7.42630,491.11,549.46
7.44565,491.45,552.28
7.46565,491.80,547.82
7.48529,494.56,549.79
7.50549,495.16,547.03
7.52668,492.39,547.85
7.54468,495.22,547.54
7.56660,493.79,546.40
7.58661,495.99,547.59
7.60713,496.76,546.10
7.62743,498.04,545.19
7.64650,496.69,549.58
7.66584,497.17,547.28
7.68660,497.17,546.88
7.70584,497.18,545.47
7.72768,495.89,549.54
7.74731,495.25,550.46
7.76647,496.06,550.23
7.78619,493.09,552.71
7.80708,496.71,550.59
7.82590,493.54,552.42
7.84749,493.71,547.38
7.86704,492.58,549.79
7.88715,492.01,546.56
7.90631,492.41,549.79
7.92727,493.97,547.99
7.94740,492.60,547.07
7.96598,492.21,544.74
7.98706,492.83,548.01
8.00662,490.60,547.89
8.02667,490.24,549.89
8.04765,490.80,549.35
8.06729,492.00,550.54
8.08653,493.87,552.37
8.10685,491.52,550.02
8.12653,490.48,550.17
8.14613,491.65,549.63
8.16652,493.55,551.48
8.18708,496.22,549.65
8.20715,494.97,550.03
8.22666,497.45,548.78
8.24564,496.08,551.72
8.26771,494.57,552.03
8.28621,492.64,551.49
8.30767,493.81,551.55
8.32666,493.39,549.82
8.34699,495.53,550.93
8.36620,493.86,550.09
8.38768,492.21,551.67
8.40730,490.72,550.56
8.42745,491.06,553.53
8.44696,491.88,550.92
8.46729,492.45,553.81
8.48588,494.87,551.76
8.50719,494.61,554.61
8.52622,492.54,553.20
8.54668,493.46,554.24
8.56704,493.87,553.75
8.58651,493.54,551.14
8.60757,490.89,553.48
8.62742,493.59,553.38
8.64663,494.64,554.78
8.66625,493.51,554.77
8.68748,493.22,554.11
8.70709,495.53,554.83
8.72658,495.29,554.38
8.74639,496.85,554.81
8.76676,496.00,555.13
8.78600,493.53,554.77
8.80731,493.84,553.00
8.82667,493.25,551.53
8.84729,493.47,553.15
8.86663,495.46,551.44
8.88584,494.51,551.58
8.90674,492.59,554.46
8.92690,506.50,558.72
8.94720,524.65,564.67
8.96606,553.16,577.51
8.98664,583.81,589.68
9.00695,611.36,596.99
9.02700,634.02,599.59
9.04726,647.91,601.50
9.06610,659.29,595.96
9.08588,663.49,589.84
9.10627,661.07,583.22
9.12668,655.80,577.91
9.14750,648.65,568.20
9.16675,639.95,563.57
9.18587,629.88,560.87
9.20734,616.49,553.92
9.22753,604.09,553.18
9.24708,593.62,551.97
9.26676,582.74,550.52
9.28698,572.35,550.65
9.30665,566.59,548.79
9.32768,557.06,550.99
9.34581,546.69,549.61
9.36588,540.74,552.59
9.38621,535.91,549.56
9.40655,528.34,552.27
9.42566,527.75,551.84
9.44662,521.59,553.93
9.46765,516.82,551.47
9.48694,514.90,551.66
9.50606,511.41,551.18
9.52599,507.80,552.96
9.54712,506.19,556.01
9.56726,507.76,552.67
9.58601,506.10,553.14
9.60691,504.45,553.21
9.62623,504.72,556.28
9.64616,501.65,555.41
9.66750,501.98,553.73
9.68672,499.22,554.63
9.70735,498.39,555.23
9.72713,498.86,555.06
9.74695,497.64,553.00
9.76622,494.61,553.35
9.78736,486.10,552.86
9.80598,467.39,555.60
9.82657,441.33,549.99
9.84591,410.55,546.68
9.86602,381.35,537.59
9.88774,353.08,529.00
9.90676,326.43,519.19
9.92758,314.98,508.94
9.94762,310.68,503.66
9.96865,313.39,506.97
9.98742,320.90,504.42
10.00763,336.05,508.03
10.02656,348.52,510.96
10.04749,362.43,516.44
10.06845,375.53,520.84
10.08807,386.95,524.49
10.10792,402.34,530.50
10.12689,413.10,531.93
10.14839,423.38,536.98
10.16767,433.35,540.96
10.18666,443.35,541.29
10.20738,450.09,547.11
10.22726,456.90,547.29
10.24805,459.00,548.09
10.26709,467.16,550.63
10.28705,471.24,553.48
10.30860,473.52,554.80
10.32868,477.43,554.76
10.34795,480.40,556.10
10.36774,481.57,555.21
10.38753,485.02,558.42
10.40757,484.90,558.35
10.42839,486.62,557.07
10.44824,489.27,557.86
10.46703,490.83,556.16
10.48694,487.79,556.39
10.50799,491.68,558.38
10.52772,490.69,557.44
10.54798,491.56,560.18
10.56804,489.97,559.00
10.58808,491.26,556.75
10.60794,493.62,557.32
10.62691,493.54,558.74
10.64690,494.00,556.53
10.66704,494.05,559.71
10.68807,495.16,556.61
10.70867,494.90,556.41
10.72759,495.99,559.24
10.74870,495.89,558.32
10.76745,496.04,556.49
10.78747,497.26,557.73
10.80813,495.65,557.26
10.82812,495.18,556.21
10.84705,494.60,554.39
10.86829,492.34,554.70
10.88867,491.41,555.42
10.90750,494.00,556.55
10.92843,494.37,557.69
10.94822,491.56,558.95
10.96724,489.77,558.61
10.98819,492.51,557.42
11.00776,490.66,556.23
11.02794,492.24,554.83
11.04671,493.08,553.54
11.06717,495.71,556.45
11.08764,493.98,555.23
11.10812,493.42,554.38
11.12842,495.14,552.38
11.14765,496.46,556.47
11.16803,495.93,553.83
11.18797,494.95,555.11
11.20671,496.39,553.30
11.22823,493.24,556.54
11.24778,494.23,555.01
11.26661,495.08,553.28
11.28816,495.52,554.53
11.30742,497.14,553.07
11.32700,493.21,552.43
11.34722,494.45,552.33
11.36770,496.00,553.66
11.38778,494.22,551.62
11.40765,492.02,553.30
11.42704,492.17,548.84
11.44731,491.47,550.11
11.46822,493.21,550.10
11.48749,491.82,553.34
11.50765,493.35,551.76
11.52868,493.11,549.48
11.54800,493.26,551.42
11.56806,494.37,552.32
11.58775,492.72,551.72
11.60804,492.32,553.25
11.62825,491.79,551.16
11.64820,493.27,553.58
11.66865,490.67,551.33
11.68717,493.86,551.12
11.70740,493.93,552.15
11.72753,493.32,550.74
11.74734,490.89,551.41
11.76727,491.76,553.55
11.78969,491.63,552.79
11.80781,493.27,552.77
11.82763,490.01,550.43
11.84909,490.46,553.70
11.86927,492.16,552.53
11.88904,490.56,553.57
11.90775,491.08,550.15
11.92902,492.09,550.55
11.94938,491.06,551.24
11.96882,493.33,553.72
11.98864,489.46,553.43
12.00812,491.50,553.75
12.02856,490.32,550.76
12.04885,490.15,550.55
12.06958,491.24,551.79
12.08816,490.75,551.69
12.10891,491.95,550.41
12.12927,490.35,551.30
12.14909,492.05,549.61
12.16788,491.18,549.68
12.18775,493.24,549.29
12.20944,491.98,548.91
12.22888,490.56,550.31
12.24867,491.61,550.29
12.26945,493.05,552.09
12.28968,489.45,551.57
12.30877,488.76,551.92
12.33017,491.01,553.58
12.34896,490.61,553.24
12.36908,492.94,553.24
12.39009,492.77,552.75
12.40989,489.13,554.11
12.42859,490.17,553.69
12.45013,490.52,553.25
12.46894,489.75,550.58
12.48937,489.38,552.55
12.50923,490.87,553.37
12.52867,491.33,552.15
12.55021,489.90,552.62
12.56949,492.47,555.05
12.58957,492.37,555.21
12.60886,490.87,552.81
12.62891,491.78,554.84
12.64992,491.30,555.18
12.66915,490.29,551.98
12.68874,489.09,553.63
12.71059,491.14,554.07
12.73028,489.86,555.81
12.75130,489.50,554.93
12.77063,493.08,553.60
12.78973,493.59,556.66
12.81063,494.42,556.63
12.83066,491.46,555.61
12.85187,492.70,557.64
12.87148,493.58,557.29
12.89108,493.03,556.10
12.91183,493.05,553.94
12.93232,490.19,554.75
12.95173,490.07,553.49
12.97094,490.18,556.07
12.99118,492.72,555.30
13.01092,489.64,553.47
13.03145,491.40,553.07
13.05230,488.11,553.01
13.07122,488.58,554.38
13.09131,491.67,555.27
13.11253,490.85,552.88
13.13132,490.39,553.70
13.15173,488.47,552.30
13.17129,490.00,551.85
13.19209,490.34,554.78
13.21214,487.04,555.53
13.23245,487.48,553.81
13.25186,487.41,555.67
13.27265,488.71,554.23
13.29271,489.94,556.23
13.31227,488.69,553.91
13.33280,484.23,555.26
13.35342,492.11,558.19
13.37240,505.65,564.82
13.39194,529.63,578.24
13.41259,556.39,592.08
13.43334,592.68,605.35
13.45289,620.88,613.17
13.47336,640.04,616.69
13.49249,655.68,612.90
13.51223,662.11,609.15
13.53279,663.16,602.06
13.55248,658.68,593.53
13.57189,650.70,586.28
13.59328,641.43,577.66
13.61297,631.46,571.07
13.63343,617.55,567.55
13.65349,604.16,564.51
13.67275,592.36,562.31
13.69180,578.64,562.27
13.71231,566.09,556.59
13.73269,555.52,559.12
13.75354,547.12,559.56
13.77326,543.69,555.09
13.79190,535.85,555.30
13.81320,527.36,558.00
13.83330,524.33,557.67
13.85341,516.44,557.38
13.87344,511.44,556.51
13.89368,511.37,554.38
13.91276,506.79,555.26
13.93271,504.29,555.96
13.95321,500.95,556.83
13.97225,500.51,553.47
13.99353,495.45,556.79
14.01258,496.23,553.60
14.03272,492.78,555.53
14.05344,491.12,556.14
14.07264,492.56,556.87
14.09429,492.61,556.84
14.11359,487.95,556.94
14.13262,488.58,557.28
14.15344,487.34,558.65
14.17349,487.39,561.22
14.19411,477.31,563.12
14.21445,463.28,566.21
14.23297,441.88,565.69
14.25444,414.92,558.47
14.27299,386.77,549.43
14.29451,363.14,536.02
14.31366,339.05,521.80
14.33314,320.41,508.94
14.35459,309.53,500.52
14.37285,303.25,496.28
14.39354,307.43,495.85
14.41391,315.00,496.45
14.43297,329.00,496.86
14.45379,341.82,499.50
14.47451,356.25,501.82
14.49326,368.47,510.30
14.51280,380.98,514.43
14.53414,396.58,517.05
14.55323,404.01,520.77
14.57464,413.51,526.22
14.59398,423.92,532.07
14.61304,431.39,533.09
14.63388,442.34,539.13
14.65407,447.34,540.29
14.67293,454.00,543.50
14.69286,455.82,546.64
14.71333,460.64,544.24
14.73280,463.16,546.99
14.75446,466.69,549.95
14.77455,470.14,550.56
14.79471,471.57,549.40
14.81306,475.17,548.22
14.83296,476.72,550.06
14.85291,476.44,550.54
14.87351,479.28,554.37
14.89339,481.70,553.19
14.91345,483.13,554.49
14.93367,482.45,553.91
14.95306,484.31,557.02
14.97243,483.53,554.39
14.99425,484.17,557.69
15.01290,484.16,554.84
15.03413,485.06,554.50
15.05405,482.38,556.15
15.07427,483.86,554.70
15.09373,485.54,553.48
15.11516,485.65,550.70
15.13508,484.94,555.74
15.15430,486.99,554.24
15.17537,487.27,554.29
15.19542,482.74,556.09
15.21373,482.66,557.09
15.23435,483.04,559.26
15.25464,484.18,560.24
15.27547,482.23,561.07
15.29404,482.98,561.41
15.31524,481.67,561.37
15.33432,480.76,558.39
15.35368,484.81,559.23
15.37353,483.94,558.98
15.39542,484.15,559.86
15.41523,482.59,558.44
15.43466,482.50,557.71
15.45502,483.50,560.26
15.47531,481.23,563.75
15.49533,481.65,563.22
15.51519,481.41,561.37
15.53498,480.15,560.53
15.55380,481.54,560.46
15.57525,481.02,560.98
15.59404,483.78,561.96
15.61517,481.68,561.52
15.63540,482.29,561.97
15.65518,483.90,561.68
15.67390,485.07,559.10
15.69499,482.88,560.73
15.71536,482.27,558.76
15.73508,480.88,557.88
15.75388,483.23,557.81
15.77541,484.88,558.71
15.79474,483.43,558.09
15.81441,486.28,560.03
15.83515,482.19,559.34
15.85558,481.88,558.12
15.87479,484.54,557.34
15.89458,482.83,558.25
15.91389,481.91,560.85
15.93386,482.45,562.27
15.95485,484.08,560.58
15.97435,486.17,559.46
15.99441,485.73,559.79
16.01446,483.67,560.59
16.03536,481.99,559.94
16.05446,484.64,560.15
16.07517,484.13,559.51
16.09462,486.71,560.14
16.11429,486.21,559.32
16.13530,485.48,559.10
16.15489,484.90,559.20
16.17391,483.80,560.85
16.19486,485.58,561.36
16.21428,484.18,559.53
16.23448,484.75,561.01
16.25428,482.67,559.89
16.27450,482.09,559.06
16.29368,485.03,560.38
16.31456,486.89,557.96
16.33462,483.69,559.69
16.35515,483.96,557.76
16.37479,482.13,560.62
16.39550,483.28,559.39
16.41389,482.60,559.35
16.43447,485.18,558.94
16.45533,485.69,558.87
16.47411,482.33,558.16
16.49475,485.05,556.31
16.51400,485.43,555.51
16.53496,485.21,557.63
16.55427,484.55,557.81
16.57519,486.04,556.03
16.59520,483.91,556.86
16.61457,483.83,557.36
16.63525,484.80,558.08
16.65533,485.78,557.64
16.67401,486.20,559.63
16.69381,482.82,557.59
16.71366,486.57,558.39
16.73371,486.48,556.60
16.75440,487.11,559.66
16.77499,487.90,559.22
16.79540,488.85,558.43
16.81539,487.58,557.66
16.83470,488.08,560.36
16.85385,486.69,558.45
16.87514,488.06,556.87
16.89358,486.90,560.20
16.91444,487.46,558.87
16.93512,486.04,561.35
16.95539,483.16,557.94
16.97501,483.85,560.59
16.99383,485.74,557.36
17.01474,487.63,560.08
17.03429,484.62,559.12
17.05366,486.90,556.89
17.07495,486.99,558.85
17.09478,484.63,558.83
17.11552,487.31,560.24
17.13474,487.06,556.41
17.15537,488.31,557.11
17.17534,485.92,558.31
17.19501,488.03,556.96
17.21522,485.78,556.83
17.23467,486.75,557.21
17.25465,488.21,556.03
17.27524,486.04,555.41
17.29393,489.88,559.22
17.31378,488.54,557.42
17.33462,486.72,560.06
17.35468,486.05,560.76
17.37443,488.99,558.27
17.39385,485.74,558.97
17.41544,488.70,557.47
17.43524,486.73,560.40
17.45426,487.75,560.25
17.47528,487.89,561.03
17.49478,487.12,559.40
17.51522,485.36,557.65
17.53390,485.90,560.42
17.55502,485.63,559.84
17.57483,486.39,560.93
17.59448,488.15,561.31
17.61471,488.60,561.28
17.63415,488.85,562.42
17.65495,487.53,563.06
17.67525,485.82,561.78
17.69387,488.66,561.40
17.71551,486.01,560.08
17.73531,488.35,559.16
17.75548,487.50,557.26
17.77483,489.76,561.25
17.79453,485.80,560.71
17.81386,484.85,561.66
17.83407,485.45,559.39
17.85391,495.97,561.83
17.87453,515.21,570.02
17.89405,541.13,580.75
17.91509,569.48,592.44
17.93470,596.72,599.23
17.95384,619.53,604.73
17.97453,638.03,605.15
17.99392,645.09,602.64
18.01492,647.96,597.26
18.03420,646.72,592.06
18.05523,643.07,588.77
18.07434,636.32,581.12
18.09530,630.69,578.98
18.11503,618.51,572.73
18.13489,605.94,572.01
18.15558,592.18,573.22
18.17375,580.87,569.63
18.19530,569.51,566.75
18.21498,559.90,567.83
18.23451,554.26,564.73
18.25402,543.89,564.81
18.27530,538.02,563.23
18.29396,531.65,563.43
18.31468,522.92,565.85
18.33444,517.53,563.29
18.35528,512.26,562.35
18.37479,509.41,563.38
18.39435,507.12,561.14
18.41365,503.50,562.45
18.43530,504.37,560.88
18.45354,499.52,561.22
18.47496,496.06,561.60
18.49438,495.99,559.10
18.51368,494.70,561.64
18.53443,493.05,562.98
18.55432,493.83,560.67
18.57385,491.12,562.89
18.59466,491.94,564.29
18.61457,489.46,563.37
18.63396,491.35,565.15
18.65432,490.73,562.65
18.67489,490.77,561.99
18.69381,489.28,564.25
18.71478,491.69,563.82
18.73465,490.60,563.03
18.75525,487.72,562.22
18.77401,473.85,564.86
18.79429,454.31,560.73
18.81519,426.32,552.82
18.83400,395.48,543.93
18.85358,363.27,529.87
18.87381,336.61,521.89
18.89437,318.46,516.79
18.91473,309.39,511.11
18.93457,313.16,509.46
18.95387,317.11,512.95
18.97371,329.51,515.71
18.99378,339.88,520.13
19.01526,354.90,523.11
19.03383,367.53,526.42
19.05415,378.17,529.92
19.07476,392.39,534.29
19.09540,405.36,538.47
19.11383,416.52,543.84
19.13447,423.37,544.20
19.15527,434.41,546.42
19.17497,441.10,547.95
19.19532,448.58,548.72
19.21438,454.67,552.59
19.23362,460.60,555.47
19.25415,462.23,556.49
19.27490,466.61,557.08
19.29385,470.83,556.63
19.31389,473.29,561.63
19.33361,472.73,560.88
19.35437,477.54,560.79
19.37332,480.34,559.29
19.39361,482.31,559.12
19.41362,482.73,562.62
19.43387,485.00,564.53
19.45509,484.24,563.68
19.47516,486.83,562.69
19.49597,487.23,562.53
19.51635,486.48,564.22
19.53521,488.30,564.69
19.55587,487.25,561.65
19.57631,488.01,562.18
19.59568,486.45,561.16
19.61483,487.26,562.53
19.63611,486.94,561.57
19.65585,488.72,562.43
19.67583,487.59,561.42
19.69447,490.76,563.49
19.71464,488.58,564.28
19.73516,491.47,562.53
19.75623,488.44,561.56
19.77585,490.19,564.15
19.79632,488.64,563.74
19.81464,490.59,566.36
19.83709,489.43,565.97
19.85555,488.68,566.25
19.87458,490.09,562.12
19.89568,489.14,564.32
19.91574,490.89,562.24
19.93629,489.69,563.80
19.95589,492.86,563.38
19.97489,493.00,565.95
19.99535,490.20,565.00
20.01475,491.71,567.19
20.03648,490.19,565.17
20.05621,493.12,567.75
20.07639,491.13,564.46
20.09661,491.71,566.09
20.11615,492.14,564.04
20.13624,492.24,563.90
20.15722,495.20,566.68
20.17716,491.73,568.93
20.19659,492.98,565.89
20.21732,495.65,565.70
20.23584,493.29,567.77
20.25550,496.18,567.59
20.27720,493.46,568.97
20.29625,493.66,569.11
20.31738,494.17,568.36
20.33644,493.73,566.62
20.35651,491.01,566.41
20.37573,489.98,564.92
20.39562,492.04,565.58
20.41546,491.99,564.07
20.43672,490.40,564.48
20.45682,489.69,562.46
20.47703,490.31,563.83
20.49683,490.90,566.15
20.51566,490.50,562.91
20.53695,490.04,563.79
20.55612,489.42,564.34
20.57724,489.17,564.90
20.59671,493.44,564.50
20.61718,491.41,564.20
20.63590,493.62,563.19
20.65613,491.81,563.17
20.67776,492.35,564.30
20.69701,493.93,560.79
20.71664,492.60,561.88
20.73802,491.70,563.24
20.75769,490.87,564.14
20.77823,494.24,565.35
20.79829,493.91,562.89
20.81769,495.79,565.74
20.83658,496.30,561.86
20.85749,497.17,560.31
20.87669,494.13,562.79
20.89830,496.83,559.13
20.91826,493.25,561.26
20.93857,493.22,560.72
20.95915,495.44,559.73
20.97782,495.34,559.68
20.99840,491.39,560.66
21.01783,494.89,556.98
21.03766,494.12,555.35
21.05886,495.26,555.73
21.07927,491.87,553.86
21.09886,492.16,555.05
21.11861,493.41,556.84
21.13836,493.44,554.82
21.15851,491.32,553.42
21.18023,490.12,555.70
21.19991,493.77,555.58
21.21956,492.26,557.09
21.23946,493.60,556.84
21.25921,492.94,555.12
21.28018,491.62,555.77
21.29925,495.35,555.79
21.32006,493.76,556.81
21.33885,496.66,556.41
21.36037,496.52,557.13
21.37949,493.28,556.89
21.39885,496.98,553.67
21.41941,494.03,556.36
21.43959,495.86,554.98
21.45921,493.85,553.96
21.47975,495.33,555.50
21.49973,493.90,554.68
21.51845,497.96,551.95
21.54017,497.15,552.48
21.55922,497.07,552.72
21.57980,494.58,553.59
21.59904,495.90,555.69
21.62011,497.73,552.25
21.63823,498.11,553.59
21.66002,497.09,553.50
21.67995,494.32,552.74
21.69877,493.13,553.36
21.71952,495.43,553.64
21.73988,493.51,551.44
21.75834,494.58,552.37
21.77841,498.93,553.85
21.79879,513.61,560.88
21.81886,539.18,569.95
21.83835,570.08,582.83
21.85959,601.13,597.64
21.87833,626.62,606.66
21.89982,650.69,609.81
21.92014,663.99,609.51
21.94024,670.08,602.54
21.95994,670.80,594.54
21.97857,665.52,586.56
21.99872,656.54,580.98
22.01965,646.03,574.17
22.03929,632.59,566.62
22.05940,620.56,562.49
22.07912,604.84,559.87
22.09959,596.46,558.79
22.11867,582.49,557.37
22.13979,569.67,558.07
22.16010,562.98,554.00
22.17946,552.38,554.46
22.19996,544.34,556.19
22.21979,535.46,554.50
22.23972,531.32,551.73
22.25937,526.04,552.13
22.27869,519.78,551.18
22.30033,516.77,552.73
22.32035,513.67,552.02
22.33899,510.33,550.85
22.35957,508.01,553.97
22.37879,506.69,550.39
22.39896,505.09,551.31
22.41914,502.45,549.94
22.43991,504.06,551.10
22.45916,503.24,551.47
22.47907,499.76,551.90
22.49893,498.50,550.34
22.51938,499.69,547.87
22.54016,500.20,550.99
22.55910,498.80,548.15
22.57928,499.51,551.17
22.59892,496.80,549.96
22.61932,498.31,550.38
22.64019,495.76,551.16
22.65910,498.49,551.44
22.67895,489.58,548.70
22.69944,465.31,544.88
22.71850,433.21,534.20
22.73850,399.30,522.97
22.76076,368.65,510.91
22.78082,336.64,499.84
22.80116,315.69,489.19
22.82001,309.53,487.64
22.83950,311.92,487.58
22.85964,318.69,491.38
22.88114,327.30,495.42
22.89998,339.46,497.73
22.92099,353.87,502.66
22.94062,366.30,509.65
22.96024,380.18,512.50
22.98095,392.94,519.80
22.99962,406.28,525.31
23.02135,415.64,528.01
23.04026,427.76,531.13
23.06101,434.09,533.65
23.08090,443.04,539.26
23.10017,453.11,542.61
23.11927,458.10,541.46
23.14078,464.71,544.22
23.15965,467.99,544.87
23.17984,474.41,545.03
23.20120,475.79,547.99
23.22081,476.29,547.43
23.23924,478.07,547.07
23.26007,481.97,548.96
23.27965,482.67,549.32
23.30062,484.54,547.70
23.32091,484.20,552.01
23.34044,485.95,550.74
23.36196,486.44,550.19
23.38062,485.24,547.74
23.40136,485.05,548.28
23.42175,485.33,549.63
23.44093,486.85,550.03
23.46083,487.23,549.68
23.48097,489.70,550.63
23.50059,491.04,552.02
23.52221,489.12,549.99
23.54079,489.50,550.38
23.56040,492.44,551.94
23.58219,493.78,549.95
23.60174,494.62,551.26
23.62142,493.45,550.50
23.64253,493.46,553.24
23.66316,495.32,553.81
23.68261,492.78,554.86
23.70195,493.92,553.84
23.72305,492.89,554.01
23.74180,490.87,551.16
23.76286,489.48,554.60
23.78231,488.47,554.56
23.80327,490.12,551.70
23.82405,487.81,553.49
23.84322,489.68,552.39
23.86342,489.82,552.18
23.88367,489.09,553.47
23.90454,489.80,550.54
23.92410,489.98,554.98
23.94401,489.65,555.31
23.96457,492.87,554.62
23.98478,492.50,556.70
24.00337,489.09,553.86
24.02470,490.71,554.87
24.04515,487.88,554.79
24.06516,491.62,551.98
24.08456,487.91,551.36
24.10427,490.20,553.20
24.12475,489.02,552.66
24.14486,489.92,552.16
24.16625,490.59,554.68
24.18579,492.83,555.99
24.20467,491.12,556.94
24.22535,489.56,555.64
24.24443,492.39,555.10
24.26465,490.09,556.31
24.28568,488.41,555.04
24.30588,489.87,556.48
24.32489,489.29,555.76
24.34637,488.09,553.71
24.36568,485.39,552.44
24.38491,486.87,555.51
24.40612,488.94,554.00
24.42565,488.45,553.50
24.44514,490.26,554.07
24.46553,487.91,557.15
24.48583,489.73,556.40
24.50462,489.03,554.54
24.52558,489.05,556.93
24.54479,490.10,556.90
24.56588,488.93,555.68
24.58541,487.92,557.52
24.60555,490.70,556.98
24.62569,489.97,557.41
24.64571,489.24,556.91
24.66564,487.38,558.80
24.68632,488.55,558.88
24.70470,488.45,557.00
24.72649,487.49,557.10
24.74535,489.68,555.49
24.76547,491.15,557.33
24.78557,488.66,556.24
24.80603,489.81,557.45
24.82482,489.01,557.29
24.84561,490.83,557.91
24.86634,490.47,557.14
24.88456,489.56,556.88
24.90536,489.96,554.26
24.92458,487.69,553.74
24.94590,489.01,553.52
24.96489,492.02,555.21
24.98616,490.99,554.24
25.00572,490.70,555.23
25.02516,491.70,556.25
25.04576,488.71,553.73
25.06602,489.01,554.83
25.08548,488.58,555.08
25.10535,490.27,554.32
25.12477,489.40,556.37
25.14528,487.67,556.15
25.16576,488.64,553.41
25.18574,487.96,556.19
25.20472,490.28,556.32
25.22463,489.68,557.36
25.24608,488.53,552.84
25.26547,489.13,553.78
25.28477,490.27,554.46
25.30436,504.07,560.82
25.32538,525.73,571.85
25.34600,556.08,589.78
25.36620,586.97,605.22
25.38602,615.18,615.84
25.40645,640.12,618.55
25.42663,653.22,613.74
25.44657,662.86,607.85
25.46609,664.37,601.33
25.48589,660.78,591.16
25.50574,656.01,583.63
25.52633,644.39,574.81
25.54654,633.00,565.64
25.56717,619.16,561.22
25.58631,607.66,556.39
25.60595,596.27,555.03
25.62728,584.67,551.32
25.64534,569.77,549.14
25.66680,559.34,551.42
25.68698,550.75,550.90
25.70570,541.98,549.46
25.72760,537.00,552.75
25.74623,528.92,551.73
25.76683,522.67,553.19
25.78644,517.76,552.59
25.80558,515.64,553.46
25.82797,510.48,553.59
25.84711,508.89,553.51
25.86720,504.27,555.02
25.88753,504.31,558.39
25.90744,498.73,557.24
25.92654,498.73,556.34
25.94764,498.40,557.10
25.96814,493.54,556.56
25.98737,493.38,555.72
26.00838,493.59,557.72
26.02819,492.73,558.49
26.04761,489.50,557.65
26.06867,492.84,556.98
26.08899,491.28,558.58
26.10779,493.25,559.89
26.12831,490.78,561.22
26.14738,487.79,561.10
26.16727,486.14,561.87
26.18766,483.09,564.59
26.20790,480.45,565.57
26.22889,476.62,569.79
26.24789,471.91,567.01
26.26766,456.58,568.91
26.28910,442.46,567.80
26.30979,418.17,565.45
26.32887,395.89,559.96
26.34850,369.80,549.20
26.36995,351.52,538.95
26.38991,334.30,531.72
26.40909,320.15,522.88
26.42851,308.58,515.07
26.44905,311.52,508.61
26.46892,316.32,509.32
26.48839,326.92,511.85
26.51006,340.24,514.37
26.52891,355.79,517.02
26.54937,368.03,521.48
26.56977,382.02,525.58
26.58971,392.42,531.94
26.60920,405.54,532.99
26.62844,416.06,540.18
26.64937,424.86,543.08
26.66907,432.59,542.36
26.68851,440.45,547.25
26.70933,444.57,547.30
26.72851,452.58,549.72
26.74895,454.54,549.58
26.77020,460.02,554.65
26.79015,465.38,552.31
26.80970,469.87,551.69
26.82894,470.20,555.06
26.84848,475.61,555.98
26.86983,474.94,553.23
26.88845,476.42,553.42
26.90849,480.46,553.52
26.92910,483.66,556.66
26.94922,486.86,557.60
26.97026,487.23,558.22
26.98938,488.55,556.43
27.00936,489.56,558.36
27.02956,487.52,558.81
27.04987,484.91,561.31
27.06936,486.13,560.01
27.08865,487.68,559.73
27.10922,487.60,559.54
27.12973,487.28,561.89
27.14954,488.75,561.27
27.16931,489.36,562.37
27.18943,491.54,565.48
27.20848,490.77,563.87
27.22950,490.16,562.82
27.24977,492.66,565.65
27.26834,490.63,566.93
27.28873,492.37,566.85
27.30914,489.83,567.06
27.32838,490.92,569.45
27.34862,489.66,568.59
27.36939,489.14,568.32
27.38885,489.86,569.00
27.41039,491.62,568.99
27.42868,490.26,569.14
27.44975,490.02,567.78
27.46846,488.25,568.48
27.48897,488.28,568.33
27.50983,491.67,567.59
27.52961,489.70,565.56
27.54956,489.12,564.97
27.56850,489.83,566.52
27.58949,489.13,563.17
27.60981,485.95,564.29
27.63023,489.63,562.26
27.64960,489.32,563.45
27.66934,489.55,563.14
27.68953,488.26,560.85
27.71021,489.01,562.20
27.72852,490.17,561.60
27.74832,487.91,563.11
27.76996,490.85,560.29
27.78960,492.25,561.80
27.81031,492.08,560.99
27.82879,490.86,560.73
27.84999,491.54,559.52
27.86941,488.58,560.11
27.88897,491.00,559.43
27.91035,488.14,562.32
27.92889,488.06,560.95
27.94967,489.43,559.61
27.96982,490.41,562.10
27.98908,491.90,562.46
28.01010,491.83,562.01
28.03049,488.06,561.65
28.04877,490.20,562.24
28.07022,489.42,563.51
28.09022,490.73,561.19
28.10925,488.30,561.87
28.12985,489.30,562.16
28.14898,490.24,562.34
28.16835,491.49,562.50
28.18916,489.16,560.42
28.20975,492.45,561.56
28.22860,491.50,563.03
28.29038,490.16,561.54
28.28940,490.62,564.06
28.28925,492.09,564.27
28.30958,489.75,567.16
28.32936,488.60,562.76
28.34919,491.09,564.82
28.36918,489.09,565.19
28.38821,489.30,561.78
28.40962,488.72,561.88
28.42937,489.28,562.15
28.45034,487.84,559.19
28.47156,491.73,557.33
28.49164,492.74,558.15
28.51166,493.33,555.91
28.53219,494.13,557.21
28.55132,493.83,556.05
28.57167,490.72,556.64
28.59152,490.65,555.00
28.61215,490.16,555.85
28.63127,489.75,558.73
28.65062,489.42,558.98
28.67056,491.24,559.34
28.69137,491.46,556.16
28.71143,491.35,556.78
28.73121,491.83,556.66
28.75069,490.46,556.00
28.77104,490.00,557.19
28.79033,489.76,555.07
28.81141,490.38,558.58
28.83131,489.35,555.61
28.85228,491.72,557.31
28.87180,492.33,557.98
28.89214,491.49,556.64
28.91188,491.80,557.70
28.93150,493.06,554.77
28.95065,493.74,553.43
28.97175,491.31,554.34
28.99146,493.10,550.28
29.01106,491.98,551.42
29.03165,490.77,551.67
29.05018,491.65,551.42
29.07146,490.98,551.72
29.09080,489.25,551.24
29.11229,489.91,552.83
29.13175,496.37,558.61
29.15178,515.40,566.85
29.17144,541.48,581.61
29.19159,571.04,594.45
29.21049,603.59,607.52
29.23145,629.38,619.91
29.25198,649.86,623.43
29.27222,660.95,619.85
29.29024,670.65,618.72
29.31039,672.19,612.23
29.33182,666.33,604.76
29.35110,664.25,592.83
29.37112,655.44,585.74
29.39198,642.44,579.90
29.41209,629.80,574.24
29.43070,615.29,571.75
29.45151,603.97,566.00
29.47088,590.68,564.95
29.49033,578.87,564.46
29.51198,566.14,560.74
29.53132,558.34,559.16
29.55107,549.11,557.97
29.57144,540.46,555.65
29.59117,534.43,559.14
29.61229,528.12,558.27
29.63126,525.36,559.78
29.65199,522.15,558.67
29.67082,516.31,556.33
29.69177,513.08,556.46
29.71116,512.37,557.72
29.73046,507.95,558.58
29.75083,506.62,557.80
29.77158,504.78,557.40
29.79012,501.31,557.91
29.81154,502.37,557.71
29.83244,502.07,554.71
29.85210,499.61,555.98
29.87155,500.33,556.02
29.89169,497.98,552.90
29.91302,497.11,552.68
29.93163,496.37,555.20
29.95185,494.06,556.12
29.97120,494.93,554.39
29.99333,488.53,552.68
30.01299,475.85,552.86
30.03281,455.43,546.80
30.05266,429.80,539.86
30.07219,402.68,528.03
30.09147,373.97,518.27
30.11118,343.97,504.55
30.13178,324.13,496.33
30.15231,311.14,486.87
30.17207,311.08,483.72
30.19317,314.44,485.23
30.21206,323.90,488.75
30.23322,336.14,490.93
30.25400,349.22,498.54
30.27384,364.28,503.03
30.29219,377.57,508.85
30.31315,389.45,515.41
30.33421,401.07,519.14
30.35426,416.15,523.43
30.37255,424.20,528.71
30.39396,436.65,530.16
30.41262,442.87,533.94
30.43392,451.78,533.81
30.45385,455.92,536.22
30.47369,460.05,537.99
30.49257,468.47,538.56
30.51336,471.47,539.37
30.53294,475.41,541.77
30.55352,479.61,543.78
30.57330,479.47,545.38
30.59230,480.01,545.69
30.61307,483.76,543.57
30.63402,484.88,545.61
30.65270,484.50,543.78
30.67341,486.16,545.57
30.69304,487.33,545.23
30.71301,487.58,545.42
30.73266,491.32,545.65
30.75238,491.60,544.55
30.77371,490.36,544.14
30.79274,490.99,545.30
30.81223,491.67,543.12
30.83218,493.13,543.98
30.85260,493.36,543.83
30.87240,490.92,544.82
30.89387,490.84,546.34
30.91331,491.18,546.07
30.93302,491.18,546.80
30.95364,494.24,544.43
30.97315,491.71,547.47
30.99268,494.92,544.65
31.01311,494.37,547.12
31.03351,493.81,549.15
31.05407,490.92,551.22
31.07315,492.80,549.28
31.09300,495.86,549.70
31.11334,495.04,548.29
31.13239,493.37,549.08
31.15330,493.33,550.39
31.17372,494.68,548.65
31.19316,491.16,548.68
31.21384,491.32,549.13
31.23356,492.14,549.05
31.25242,492.55,550.25
31.27375,494.21,548.22
31.29348,492.70,549.53
31.31384,491.79,547.73
31.33262,492.08,550.52
31.35303,494.66,549.51
31.37389,494.40,547.65
31.39383,492.62,550.10
31.41316,493.89,550.82
31.43248,494.50,548.20
31.45300,492.90,550.93
31.47314,495.35,548.24
31.49369,496.50,548.79
31.51287,494.53,549.05
31.53397,494.86,552.58
31.55230,492.89,551.60
31.57289,497.38,549.67
31.59419,493.84,550.85
31.61400,495.72,553.63
31.63336,494.47,553.66
31.65301,497.93,554.74
31.67274,493.14,553.62
31.69325,497.03,553.81
31.71325,495.26,550.54
31.73345,491.61,554.04
31.75351,491.96,552.55
31.77252,492.16,554.55
31.79362,493.48,553.63
31.81322,491.58,553.23
31.83276,492.27,552.19
31.85375,493.76,550.13
31.87267,491.61,548.07
31.89386,492.99,548.34
31.91406,494.14,548.53
31.93409,493.74,548.61
31.95373,492.15,547.33
31.97337,492.04,547.36
31.99386,494.59,551.00
32.01296,492.99,547.66
32.03306,489.78,550.25
32.05402,492.99,549.08
32.07324,491.01,546.36
32.09280,492.77,548.91
32.11254,490.06,547.62
32.13408,490.17,548.03
32.15384,489.82,550.73
32.17311,493.12,550.47
32.19292,493.81,551.27
32.21291,491.07,547.95
32.23336,492.43,549.57
32.25374,491.43,550.40
32.27252,493.23,550.14
32.29309,494.47,549.54
32.31280,493.21,552.79
32.33332,490.87,552.30
32.35278,491.76,549.10
32.37212,493.73,552.65
32.39408,492.96,550.74
32.41303,492.72,551.40
32.43376,493.39,554.82
32.45322,494.55,552.62
32.47305,495.07,554.46
32.49264,492.32,553.32
32.51277,492.65,551.86
32.53413,495.15,550.20
32.55337,492.85,554.13
32.57219,496.88,551.96
32.59292,494.60,553.31
32.61312,497.93,551.95
32.63299,497.18,550.29
32.65395,495.28,553.56
32.67254,493.12,552.45
32.69331,502.36,556.94
32.71303,522.89,568.88
32.73240,551.07,584.68
32.75232,579.90,598.18
32.77337,604.99,611.29
32.79290,632.49,617.35
32.81341,651.00,617.94
32.83293,659.97,618.46
32.85278,667.07,609.67
32.87309,664.06,603.12
32.89230,657.62,592.57
32.91311,649.38,583.22
32.93417,641.16,573.13
32.95237,629.08,569.64
32.97359,615.17,563.58
32.99264,603.54,559.83
33.01396,591.87,555.98
33.03294,577.27,552.11
33.05264,565.47,552.62
33.07231,557.05,548.97
33.09382,549.57,545.88
33.11314,540.09,547.56
33.13383,533.29,549.32
33.15281,527.54,547.33
33.17407,521.73,549.06
33.19219,519.19,547.06
33.21224,515.21,550.26
33.23334,511.78,549.08
33.25319,506.04,548.56
33.27362,503.71,548.48
33.29334,501.48,551.87
33.31256,504.08,552.78
33.33226,500.99,551.78
33.35271,496.78,552.09
33.37362,499.37,551.02
33.39297,496.66,551.46
33.41357,497.40,553.02
33.43363,498.49,553.05
33.45238,496.85,554.26
33.47321,495.75,552.99
33.49263,495.81,550.85
33.51408,495.18,550.70
33.53357,494.22,551.57
33.55413,495.95,552.27
33.57343,493.92,552.34
33.59277,496.19,552.87
33.61284,494.23,552.00
33.63414,493.93,550.92
33.65268,495.47,553.66
33.67260,492.55,554.87
33.69238,491.75,553.24
33.71245,492.16,551.73
33.73250,488.58,550.50
33.75298,491.52,547.12
33.77229,490.80,546.81
33.79231,491.26,546.37
33.81337,490.07,542.33
33.83319,491.00,545.65
33.85383,489.01,543.12
33.87385,490.53,545.43
33.89432,484.43,540.56
33.91423,471.91,538.94
33.93380,449.33,536.93
33.95445,428.42,531.51
33.97469,400.39,522.90
33.99478,378.91,517.96
34.01368,358.31,511.11
34.03409,339.25,507.90
34.05519,328.46,504.41
34.07424,321.77,501.49
34.09480,322.45,504.65
34.11356,326.88,506.52
34.13368,339.25,507.89
34.15438,350.74,511.92
34.17467,362.09,515.35
34.19390,377.01,522.24
34.21434,389.40,525.88
34.23442,401.09,529.88
34.25357,409.33,532.64
34.27415,421.23,532.97
34.29489,431.14,538.51
34.31486,438.99,539.46
34.33507,443.76,541.60
34.35492,453.77,546.86
34.37414,457.03,548.71
34.39527,464.52,550.31
34.41367,466.52,551.16
34.43388,470.98,551.90
34.45483,473.72,551.07
34.47499,475.94,554.15
34.49432,478.10,553.34
34.51433,477.75,553.52
34.53499,481.58,554.96
34.55436,481.52,554.97
34.57582,483.16,554.37
34.59474,485.82,554.95
34.61563,488.23,556.97
34.63563,486.93,553.94
34.65470,486.37,556.28
34.67617,489.47,553.86
34.69432,490.00,556.24
34.71520,488.39,554.18
34.73575,489.71,553.67
34.75447,487.64,553.46
34.77502,489.47,555.35
34.79540,487.36,556.48
34.81512,486.34,556.74
34.83553,486.56,555.67
34.85487,484.73,555.50
34.87505,484.62,556.43
34.89528,491.43,558.02
34.91447,494.29,557.68
34.93542,499.13,559.41
34.95542,497.27,556.75
34.97490,501.06,556.34
34.99504,499.35,557.03
35.01438,500.55,556.25
35.03534,501.10,557.29
35.05446,497.89,559.25
35.07423,498.12,559.08
35.09598,495.57,554.90
35.11703,495.83,556.39
35.13540,491.94,558.35
35.15681,493.06,554.61
35.17681,493.98,556.24
35.19689,491.37,557.93
35.21730,492.23,557.22
35.23739,491.25,558.86
35.25782,490.08,555.27
35.27666,489.32,556.94
35.29743,489.33,556.59
35.31806,489.76,558.23
35.33784,488.98,561.00
35.35744,487.45,557.47
35.37764,487.47,558.81
35.39664,488.16,556.93
35.41777,486.71,557.18
35.43706,486.51,559.49
35.45661,488.01,559.61
35.47779,484.97,557.13
35.49796,487.06,557.69
35.51635,487.27,557.62
35.53667,485.35,558.70
35.55650,485.08,556.69
35.57803,487.82,559.18
35.59687,485.46,560.46
35.61832,484.47,558.66
35.63832,487.95,560.03
35.65828,486.34,557.26
35.67746,485.91,558.65
35.69735,486.02,561.14
35.71861,484.66,557.37
35.73778,485.84,559.96
35.75713,484.08,559.88
35.77821,484.04,558.15
35.79816,483.29,557.60
35.81745,485.83,558.28
35.83726,486.86,559.11
35.85799,484.09,559.23
35.87778,485.09,559.94
35.89732,484.56,560.12
35.91859,483.73,558.43
35.93874,486.24,557.26
35.95734,484.25,556.47
35.97775,483.72,557.71
35.99772,485.38,558.36
36.01791,483.02,555.92
36.03868,485.97,558.89
36.05812,483.67,556.30
36.07825,483.80,559.87
36.09752,486.01,558.32
36.11786,485.04,556.00
36.13887,485.67,557.92
36.15898,485.66,560.47
36.17870,485.98,557.51
36.19757,484.56,558.04
36.21774,484.55,557.39
36.23840,485.67,559.77
36.25846,486.25,557.81
36.27767,483.37,559.18
36.29856,483.22,560.03
36.31901,485.90,560.61
36.33765,483.19,560.23
36.35862,485.43,560.15
36.37870,484.84,560.09
36.39787,485.14,559.40
36.41756,484.88,556.56
36.43852,493.94,564.50
36.45712,519.59,574.50
36.47822,549.43,587.25
36.49738,579.96,595.19
36.51820,608.10,604.54
36.53796,630.68,607.23
36.55762,646.07,605.29
36.57793,651.62,599.39
36.59892,652.81,597.00
36.61747,648.92,592.78
36.63828,642.92,587.67
36.65847,633.80,581.64
36.67885,624.52,579.88
36.69772,614.01,575.85
36.71829,600.68,572.37
36.73788,587.01,572.28
36.75853,577.94,568.56
36.77862,565.79,569.27
36.79751,556.14,566.18
36.81854,546.15,565.19
36.83732,538.51,562.54
36.85768,533.94,563.28
36.87848,526.78,561.36
36.89775,521.69,564.03
36.91811,514.18,560.60
36.93901,509.88,562.29
36.95757,505.93,560.92
36.97730,504.64,560.79
36.99826,499.60,562.27
37.01762,500.11,562.34
37.03846,499.57,563.47
37.05834,495.40,561.46
37.07890,495.21,560.06
37.09783,494.92,561.03
37.11852,494.99,563.76
37.13893,491.40,563.16
37.15857,491.43,563.12
37.17868,491.59,562.39
37.19860,489.04,561.85
37.21782,490.16,563.50
37.23747,488.83,564.10
37.25870,482.38,567.93
37.27756,473.71,573.97
37.29739,459.82,580.29
37.31780,445.63,589.75
37.33846,429.42,597.51
37.35706,411.36,595.91
37.37801,392.41,588.02
37.39937,371.99,572.49
37.41953,347.24,549.63
37.43988,329.15,528.27
37.46007,319.17,514.08
37.48062,320.61,503.46
37.49985,324.61,494.23
37.51937,330.54,494.95
37.53991,342.81,494.58
37.55973,353.61,495.29
37.57942,367.34,500.51
37.59933,381.56,503.13
37.61933,392.78,508.75
37.64096,403.88,512.57
37.65996,414.88,519.43
37.68000,424.59,523.05
37.69967,431.53,528.91
37.71891,439.40,529.23
37.74095,449.22,533.43
37.75902,453.36,540.18
37.78038,457.36,541.94
37.80107,462.10,546.19
37.82019,466.27,546.00
37.84097,469.24,551.36
37.85929,472.03,552.04
37.88072,474.15,552.66
37.90045,477.33,554.49
37.92016,479.87,555.24
37.94091,479.29,555.32
37.96012,483.76,555.07
37.98027,483.97,559.60
37.99908,485.87,558.08
38.02109,484.29,560.28
38.03911,486.14,562.03
38.05943,485.35,560.49
38.07987,488.29,561.37
38.09938,485.70,560.78
38.12083,484.82,562.10
38.14005,485.48,560.06
38.15936,488.00,562.32
38.17940,487.97,563.50
38.19955,488.38,563.80
38.21935,489.15,564.16
38.24027,487.62,566.24
38.26017,491.56,563.58
38.28087,487.88,562.71
38.30102,490.70,566.00
38.31903,491.33,566.17
38.34076,488.39,563.72
38.35987,488.06,561.26
38.37905,492.05,564.21
38.39929,490.72,562.68
38.41916,488.48,561.86
38.43934,490.12,564.88
38.46092,490.02,564.54
38.48054,490.66,564.55
38.49932,490.23,563.20
38.51950,490.32,565.15
38.54032,490.44,565.81
38.55902,488.53,565.23
38.57906,489.75,565.30
38.60054,490.20,564.44
38.61968,489.03,564.60
38.64085,490.38,564.93
38.65946,490.53,563.56
38.67993,491.25,565.61
38.69959,490.96,567.28
38.72069,488.00,568.87
38.73958,490.57,567.97
38.76046,490.24,565.23
38.78006,487.74,564.87
38.79996,489.31,565.89
38.81979,487.95,563.79
38.84098,488.71,566.04
38.85958,486.49,562.68
38.88095,487.64,561.52
38.90017,489.06,564.37
38.92085,490.01,564.27
38.93979,488.79,562.07
38.96064,491.60,561.77
38.97943,488.93,562.76
39.00072,488.96,561.99
39.01909,490.89,562.82
39.04038,492.03,560.21
39.05928,492.14,562.85
39.08034,489.91,562.63
39.10066,492.30,563.36
39.12003,490.30,562.39
39.13913,489.75,559.20
39.15924,492.72,563.18
39.18041,490.13,561.63
39.20020,493.17,563.38
39.21912,491.25,561.76
39.23937,488.96,563.38
39.26022,489.85,563.80
39.27981,489.05,561.02
39.29900,490.38,562.68
39.32011,488.83,561.87
39.34078,493.03,561.90
39.36054,493.08,563.38
39.38058,490.79,563.43
39.39932,491.45,562.58
39.42041,494.16,560.18
39.43976,493.62,562.28
39.46094,492.53,560.36
39.48077,489.85,562.92
39.50002,490.19,561.62
39.52094,488.99,559.52
39.54114,489.33,560.89
39.56160,492.53,560.56
39.58073,489.51,561.09
39.60095,492.61,561.02
39.62178,492.59,562.33
39.64050,493.62,559.79
39.66104,492.55,562.16
39.68108,490.59,561.54
39.70045,492.38,559.49
39.72004,490.34,559.38
39.74123,492.03,560.50
39.76188,489.36,558.49
39.78185,492.39,560.83
39.80097,492.57,562.25
39.82080,491.08,561.33
39.84186,489.88,561.62
39.86170,492.46,558.77
39.88208,491.52,557.49
39.90351,491.02,557.16
39.92154,491.74,558.11
39.94231,491.04,556.39
39.96274,493.71,557.25
39.98204,508.22,562.89
40.00200,528.36,570.87
40.02172,557.79,584.10
40.04192,589.11,601.00
40.06280,617.36,605.24
40.08175,643.94,611.90
40.10232,659.67,611.21
40.12259,668.25,608.74
40.14175,670.24,602.91
40.16229,667.18,596.69
40.18175,659.47,593.47
40.20298,648.11,585.42
40.22293,636.68,579.81
40.24280,625.65,573.96
40.26348,612.67,568.99
40.28368,602.50,565.50
40.30281,588.26,560.39
40.32205,579.38,555.96
40.34251,569.42,558.78
40.36387,560.13,556.00
40.38223,551.63,556.81
40.40263,542.50,557.29
40.42358,535.93,555.23
40.44331,529.70,556.43
40.46361,528.20,553.90
40.48274,520.50,554.10
40.50313,516.77,554.60
40.52183,515.99,555.59
40.54314,511.48,556.39
40.56417,507.75,555.45
40.58306,509.09,552.87
40.60452,506.68,556.12
40.62438,506.58,552.39
40.64352,501.35,553.57
40.66407,502.16,554.31
40.68411,503.01,551.88
40.70376,499.70,554.58
40.72434,501.24,553.34
40.74391,501.72,554.06
40.76335,497.19,553.13
40.78438,495.77,552.59
40.80389,497.58,553.50
40.82396,496.88,550.98
40.84474,497.13,555.16
40.86368,495.48,555.40
40.88424,491.32,559.12
40.90510,488.44,562.20
40.92368,476.22,573.91
40.94378,462.34,578.49
40.96485,437.00,577.52
40.98498,408.17,564.55
41.00415,382.57,545.76
41.02345,354.64,526.91
41.04301,333.39,508.17
41.06288,319.95,497.97
41.08310,316.44,487.66
41.10402,316.84,485.74
41.12317,326.39,480.11
41.14443,340.05,480.96
41.16354,351.28,483.09
41.18502,362.91,486.64
41.20322,376.11,490.79
41.22507,391.06,494.22
41.24475,404.01,500.46
41.26437,414.14,504.32
41.28387,423.43,511.19
41.30309,431.62,515.82
41.32474,442.07,519.50
41.34372,448.09,521.94
41.36401,453.78,526.20
41.38403,460.51,526.99
41.40350,466.90,532.43
41.42422,469.57,532.47
41.44371,472.80,534.45
41.46309,471.67,538.90
41.48423,475.82,538.38
41.50454,479.19,541.56
41.52485,481.90,543.24
41.54329,481.43,542.90
41.56467,482.71,544.48
41.58398,482.59,544.28
41.60437,484.33,544.71
41.62434,487.20,543.22
41.64325,485.83,547.72
41.66487,487.20,546.93
41.68370,488.45,550.81
41.70440,489.59,549.95
41.72283,490.09,549.56
41.74320,489.91,550.46
41.76385,489.21,553.08
41.78412,490.25,552.18
41.80473,491.34,550.10
41.82284,491.20,548.79
41.84410,490.72,548.20
41.86494,494.33,547.48
41.88491,493.95,550.56
41.90467,495.26,551.03
41.92433,492.29,548.47
41.94348,491.10,550.72
41.96433,493.65,548.65
41.98457,490.55,549.69
42.00353,492.36,549.11
42.02300,491.70,551.02
42.04382,490.69,551.23
42.06443,490.92,551.56
42.08361,492.06,550.97
42.10454,491.15,551.60
42.12359,493.00,551.51
42.14354,493.12,550.55
42.16408,492.22,549.43
42.18301,492.65,550.05
42.20427,491.98,549.89
42.22392,494.21,550.01
42.24384,492.12,547.52
42.26351,491.26,547.45
42.28477,490.95,551.24
42.30375,492.06,550.31
42.32315,490.82,552.19
42.34350,493.73,550.43
42.36409,492.66,554.59
42.38345,492.78,551.89
42.40459,491.25,554.04
42.42359,491.14,551.77
42.44392,490.13,552.36
42.46367,492.57,549.87
42.48397,493.14,549.74
42.50426,492.80,549.63
42.52397,491.57,548.39
42.54423,495.22,548.00
42.56399,492.52,548.58
42.58480,492.66,546.88
42.60368,493.07,550.53
42.62335,495.74,550.11
42.64471,493.28,548.08
42.66359,494.54,548.68
42.68452,494.23,549.38
42.70470,491.48,550.42
42.72326,490.96,551.11
42.74371,493.47,550.20
42.76384,492.77,549.46
42.78319,492.38,548.40
42.80435,491.86,550.74
42.82452,492.97,548.00
42.84303,491.88,548.82
42.86469,491.11,548.06
42.88351,493.95,550.46
42.90314,490.57,549.82
42.92387,494.79,553.41
42.94317,489.82,551.21
42.96407,491.51,554.95
42.98397,490.84,552.60
43.00411,492.68,550.87
43.02482,491.64,553.42
43.04320,490.54,553.53
43.06474,492.12,549.93
43.08499,493.76,552.19
43.10307,492.58,549.20
43.12426,492.85,551.95
43.14490,494.74,548.73
43.16473,495.00,548.21
43.18508,493.47,547.43
43.20335,496.80,549.36
43.22327,495.02,550.45
43.24365,492.33,549.72
43.26438,495.55,550.58
43.28448,494.06,550.36
43.30420,495.42,549.21
43.32400,494.31,551.89
43.34395,494.22,551.99
43.36456,493.59,551.00
43.38422,494.74,551.07
43.40401,492.47,551.13
43.42468,493.91,551.03
43.44419,493.48,549.88
43.46379,496.22,547.41
43.48497,496.22,550.45
43.50297,496.50,549.81
43.52396,496.76,550.74
43.54296,493.16,549.73
43.56442,491.75,550.23
43.58429,492.04,551.28
43.60343,491.87,550.55
43.62350,492.35,550.12
43.64401,492.84,553.00
43.66369,494.95,552.93
43.68468,490.85,549.65
43.70377,491.30,552.62
43.72478,491.66,551.06
43.74318,495.03,549.82
43.76466,495.93,549.57
43.78449,508.15,554.37
43.80482,529.64,566.54
43.82349,554.37,580.69
43.84426,581.86,593.28
43.86287,607.81,597.42
43.88410,626.61,602.92
43.90318,637.28,605.08
43.92465,648.15,601.42
43.94430,649.13,596.83
43.96316,648.11,592.56
43.98401,644.76,585.52
44.00376,637.50,583.08
44.02359,628.71,574.28
44.04464,617.00,570.80
44.06302,607.11,565.47
44.08446,596.65,562.72
44.10351,587.03,561.66
44.12413,575.28,560.78
44.14322,568.13,556.79
44.16377,558.63,554.62
44.18469,552.83,556.96
44.20291,544.21,556.16
44.22384,538.09,553.18
44.24463,529.52,553.72
44.26413,526.59,555.82
44.28367,520.18,552.54
44.30302,514.74,552.61
44.32351,513.40,552.22
44.34479,511.08,554.44
44.36476,507.00,553.61
44.38378,504.28,554.63
44.40345,504.45,553.23
44.42336,500.08,553.82
44.44415,500.01,553.06
44.46379,503.04,552.33
44.48452,499.00,552.88
44.50417,499.15,550.76
44.52325,500.15,550.39
44.54301,496.65,549.20
44.56390,498.36,551.88
44.58313,496.33,554.18
44.60497,494.70,553.36
44.62406,495.31,553.98
44.64313,494.43,553.81
44.66295,497.08,551.69
44.68363,495.37,550.46
44.70395,493.86,553.33
44.72455,494.81,550.59
44.74350,493.66,552.35
44.76445,492.05,550.62
44.78350,492.11,552.61
44.80330,490.74,551.37
44.82346,486.83,553.15
44.84411,474.34,549.81
44.86338,458.60,545.55
44.88398,438.45,542.46
44.90433,414.69,539.51
44.92480,389.83,530.25
44.94390,369.08,526.33
44.96358,350.08,519.25
44.98361,333.14,511.18
45.00306,326.01,505.18
45.02304,321.33,504.07
45.04400,327.32,505.69
45.06418,335.33,507.34
45.08353,347.40,512.45
45.10335,361.55,513.24
45.12312,376.20,520.35
45.14384,385.59,525.62
45.16434,398.79,527.56
45.18446,410.96,530.16
45.20426,423.38,532.83
45.22416,432.33,537.43
45.24411,438.83,538.85
45.26319,445.63,536.82
45.28382,453.72,541.44
45.30476,458.68,543.09
45.32320,464.12,541.71
45.34420,465.51,542.54
45.36373,470.12,545.72
45.38386,473.63,545.13
45.40377,476.35,546.17
45.42311,480.31,547.58
45.44429,482.32,550.08
45.46488,483.63,549.09
45.48295,484.17,547.30
45.50306,483.84,550.41
45.52446,488.40,549.52
45.54448,486.60,550.67
45.56412,487.07,551.55
45.58303,486.60,551.68
45.60402,485.67,551.57
45.62401,489.34,551.55
45.64422,489.48,550.94
45.66423,490.75,552.05
45.68293,492.00,554.15
45.70370,491.91,549.75
45.72421,490.83,551.74
45.74317,490.88,552.62
45.76453,492.15,551.51
45.78361,489.14,553.55
45.80363,490.61,552.12
45.82394,490.99,554.16
45.84313,489.78,552.48
45.86344,489.72,551.97
45.88362,490.08,550.63
45.90382,489.99,551.48
45.92374,490.55,549.85
45.94454,492.09,551.21
45.96426,490.90,549.49
45.98398,492.04,550.41
46.00437,493.89,548.63
46.02367,492.02,548.86
46.04338,491.87,548.61
46.06368,492.64,550.99
46.08284,493.02,550.83
46.10467,491.32,550.36
46.12359,492.92,549.49
46.14397,489.59,549.93
46.16433,492.43,549.77
46.18416,492.77,548.92
46.20291,492.57,547.45
46.22394,493.18,546.63
46.24475,491.02,547.47
46.26482,493.78,545.74
46.28361,494.21,545.49
46.30415,494.05,549.75
46.32339,492.54,546.93
46.34456,492.38,549.94
46.36437,491.34,548.64
46.38380,491.14,549.40
46.40289,489.55,550.59
46.42443,491.79,551.55
46.44359,490.53,550.62
46.46382,490.12,548.74
46.48410,488.14,551.74
46.50470,487.75,552.89
46.52373,491.52,550.89
46.54284,490.34,556.41
46.56327,491.84,562.87
46.58294,497.72,574.56
46.60417,503.54,585.11
46.62411,506.14,600.67
46.64373,514.72,616.60
46.66322,517.28,630.48
46.68414,520.51,644.48
46.70397,524.76,651.51
46.72479,526.23,661.40
46.74308,525.85,667.32
46.76273,527.42,670.45
46.78330,525.38,671.42
46.80305,528.13,671.77
46.82465,527.32,670.85
46.84477,526.74,666.21
46.86466,527.22,661.36
46.88429,527.16,655.77
46.90460,524.86,648.26
46.92478,524.35,644.24
46.94403,522.02,639.23
46.96394,521.54,633.55
46.98378,519.89,625.17
47.00427,518.59,620.25
47.02448,519.06,616.48
47.04598,517.17,612.48
47.06484,517.16,606.22
47.08459,520.66,600.82
47.10529,524.83,598.93
47.12466,524.24,594.90
47.14510,522.33,593.02
47.16479,516.90,588.62
47.18491,513.46,590.45
47.20441,505.75,589.57
47.22569,501.55,584.36
