Program Time [s],data 0,data 1
9.27375,429.49,544.84
9.29456,429.02,523.54
9.31357,432.87,501.74
9.33346,438.24,492.87
9.35257,440.91,478.79
9.37437,450.05,469.98
9.39442,451.15,463.34
9.41298,455.40,460.31
9.43378,456.80,458.63
9.45275,458.73,457.91
9.47262,460.54,464.53
9.49408,461.57,466.46
9.51432,464.32,469.79
9.53281,467.45,471.32
9.55317,470.50,475.74
9.57422,469.35,481.90
9.59350,473.81,487.12
9.61376,475.03,490.93
9.63339,473.77,490.81
9.65390,477.49,495.83
9.67378,478.02,499.83
9.69384,478.03,500.39
9.71410,474.72,499.43
9.73439,475.70,502.00
9.75390,475.75,502.13
9.77392,478.38,504.33
9.79312,476.74,504.31
9.81427,479.18,504.76
9.83326,479.67,505.32
9.85250,476.84,509.31
9.87310,476.45,509.19
9.89289,477.63,511.54
9.91427,477.57,509.30
9.93533,477.66,509.01
9.95356,478.99,510.01
9.97428,477.92,509.48
9.99432,480.49,507.91
10.01535,478.72,506.69
10.03478,477.73,508.61
10.05501,479.04,507.90
10.07357,475.40,505.13
10.09486,475.37,505.16
10.11355,477.48,504.89
10.13393,478.76,505.52
10.15352,477.56,506.50
10.17342,478.33,504.90
10.19416,479.11,508.50
10.21371,475.87,507.01
10.23414,479.37,505.73
10.25342,477.39,508.81
10.27434,477.23,505.46
10.29404,474.31,506.71
10.31356,477.00,506.63
10.33463,473.68,509.01
10.35467,478.31,508.16
10.37358,478.56,510.68
10.39517,476.75,511.32
10.41387,477.10,511.01
10.43435,479.17,513.25
10.45475,480.33,511.68
10.47417,478.20,513.24
10.49463,480.38,513.34
10.51420,479.55,515.48
10.53506,476.29,514.88
10.55516,477.65,514.43
10.57429,490.36,513.50
10.59402,509.08,521.49
10.61492,537.61,533.88
10.63478,560.71,547.13
10.65431,585.20,558.09
10.67370,607.23,560.77
10.69513,623.06,562.18
10.71535,629.23,560.13
10.73342,633.26,553.89
10.75355,633.21,545.65
10.77393,628.55,543.00
10.79410,620.08,533.79
10.81355,611.12,527.45
10.83432,602.21,521.61
10.85497,590.40,516.35
10.87475,578.36,512.94
10.89511,568.42,511.64
10.91516,558.94,509.46
10.93423,547.28,510.24
10.95418,538.51,509.71
10.97352,530.09,506.34
10.99471,526.80,507.53
11.01373,520.16,506.87
11.03413,514.42,505.25
11.05489,509.47,506.04
11.07407,504.67,505.50
11.09336,501.20,506.89
11.11537,497.65,508.09
11.13557,495.75,511.78
11.15527,495.53,510.72
11.17456,491.65,508.65
11.19382,490.41,509.65
11.21530,489.93,511.84
11.23393,489.11,508.99
11.25524,487.49,508.95
11.27425,483.64,508.89
11.29516,481.86,509.22
11.31449,480.95,507.58
11.33467,480.89,511.66
11.35399,479.19,508.65
11.37438,478.55,509.62
11.39529,478.34,512.22
11.41370,477.53,519.93
11.43364,470.86,531.79
11.45538,457.61,547.61
11.47517,443.17,560.45
11.49405,419.57,569.51
11.51559,395.93,573.93
11.53414,369.77,562.46
11.55502,345.23,543.73
11.57529,322.05,519.32
11.59624,305.81,495.23
11.61572,298.76,474.25
11.63625,303.23,463.55
11.65592,308.52,455.80
11.67463,318.01,450.10
11.69527,330.50,450.43
11.71476,344.09,447.68
11.73580,356.17,453.12
11.75645,370.48,452.60
11.77608,382.60,455.72
11.79620,395.19,462.75
11.81531,403.50,465.88
11.83618,410.72,469.77
11.85453,421.31,474.91
11.87639,424.19,478.45
11.89640,431.19,483.05
11.91469,437.43,485.64
11.93517,442.94,490.00
11.95439,448.24,490.91
11.97430,450.53,491.27
11.99611,456.44,491.11
12.01461,461.65,494.21
12.03602,461.39,496.95
12.05538,466.65,498.37
12.07467,464.20,496.83
12.09466,468.03,496.19
12.11458,469.86,501.01
12.13489,469.60,501.79
12.15545,468.79,504.34
12.17443,471.82,506.57
12.19501,473.71,507.15
12.21591,471.79,508.61
12.23459,473.45,505.78
12.25524,475.28,508.35
12.27693,474.87,510.34
12.29762,473.27,514.09
12.31867,474.34,513.32
12.33862,473.37,513.14
12.35748,474.50,513.26
12.37812,473.62,513.78
12.39748,474.40,512.56
12.41950,473.18,511.28
12.43925,472.91,508.65
12.45857,475.32,508.33
12.47906,474.82,514.21
12.49747,473.84,514.85
12.51853,473.60,515.21
12.53891,476.01,510.44
12.55913,475.30,507.41
12.57765,474.01,510.55
12.59787,477.40,512.60
12.61912,476.68,512.20
12.63774,475.25,512.70
12.65903,475.29,515.17
12.67903,472.84,512.84
12.69916,472.80,513.84
12.71917,472.95,507.62
12.73805,471.00,513.44
12.75843,468.92,516.56
12.77872,472.45,516.66
12.79874,471.46,515.86
12.81834,470.61,518.83
12.83830,471.16,518.20
12.85884,474.45,516.38
12.87853,473.87,513.23
12.89878,474.64,509.83
12.91910,474.97,505.97
12.93779,475.06,510.92
12.95772,473.68,507.51
12.97800,476.14,511.12
12.99776,472.89,514.98
13.01931,470.17,519.29
13.03834,470.34,519.93
13.05916,472.58,514.81
13.07925,473.03,515.07
13.09898,471.36,514.97
13.11888,471.20,520.09
13.13932,473.36,521.62
13.15813,474.45,519.85
13.17855,470.21,518.85
13.19907,471.67,520.71
13.21791,470.27,523.24
13.23746,470.89,521.30
13.25928,470.49,521.51
13.27888,471.06,517.75
13.29764,469.15,516.76
13.31808,471.21,520.97
13.33753,487.51,526.22
13.35870,507.54,538.13
13.37903,533.60,556.38
13.39891,562.00,573.18
13.41921,585.93,582.38
13.43895,606.15,590.68
13.45885,620.18,595.96
13.47912,629.07,589.53
13.49922,632.57,585.68
13.51889,628.67,578.82
13.53913,621.75,565.80
13.56057,613.83,554.81
13.58061,607.73,546.43
13.60070,597.79,538.03
13.62191,590.02,531.19
13.64238,576.95,522.78
13.66190,566.39,515.81
13.68065,556.48,509.48
13.70240,547.67,507.10
13.72082,538.82,505.04
13.74210,530.80,506.91
13.76076,527.24,503.37
13.78154,519.45,507.05
13.80053,512.73,503.07
13.82227,510.86,503.59
13.84188,503.95,507.27
13.86131,502.98,507.10
13.88135,497.46,508.09
13.90249,493.55,507.52
13.92127,490.72,510.44
13.94219,487.21,513.68
13.96121,486.44,515.04
13.98196,484.04,517.60
14.00080,482.63,514.99
14.02076,478.81,519.04
14.04087,478.75,521.56
14.06207,478.31,518.30
14.08149,478.99,517.27
14.10213,479.92,518.86
14.12173,476.55,519.95
14.14093,475.90,518.94
14.16055,477.65,522.11
14.18132,474.84,520.07
14.20219,476.12,523.38
14.22155,476.51,519.24
14.24097,475.91,517.63
14.26121,474.84,518.78
14.28053,475.04,518.13
14.30184,477.66,521.23
14.32189,474.40,518.76
14.34093,471.07,523.16
14.36109,457.94,519.41
14.38083,437.64,517.49
14.40144,412.49,512.05
14.42037,387.07,500.55
14.44190,360.85,487.39
14.46206,332.96,478.26
14.48153,316.77,469.41
14.50217,303.86,460.69
14.52176,305.15,459.58
14.54380,311.44,461.83
14.56490,320.36,464.86
14.58494,334.40,468.33
14.60504,344.84,471.21
14.62553,359.12,475.92
14.64670,373.21,478.66
14.66810,385.14,482.69
14.68678,395.16,490.29
14.70877,407.68,492.24
14.72802,414.14,492.83
14.74881,426.36,496.68
14.76786,433.00,499.36
14.78759,439.09,503.47
14.80769,445.46,505.75
14.82853,449.64,504.12
14.84833,454.34,506.33
14.86807,457.93,507.89
14.88867,461.80,506.04
14.90940,466.19,505.94
14.92796,465.04,507.87
14.94745,466.71,509.83
14.96746,468.19,508.66
14.98838,474.54,509.57
15.00901,475.30,509.43
15.02785,476.43,507.80
15.04772,477.40,508.47
15.06903,477.65,508.85
15.08807,477.75,510.03
15.10859,475.70,508.81
15.12821,478.82,511.49
15.14927,475.56,508.41
15.16774,476.42,510.05
15.18820,475.77,507.64
15.20783,473.46,511.63
15.22855,477.14,510.38
15.24893,474.18,510.06
15.26776,475.11,509.30
15.28789,474.83,509.69
15.30769,473.86,509.01
15.32776,477.72,504.88
15.34777,477.98,507.13
15.36919,474.77,506.65
15.38888,476.00,508.31
15.40741,476.53,507.55
15.42755,475.64,506.96
15.44921,477.89,508.77
15.46761,475.76,511.49
15.48937,478.78,512.04
15.50829,477.22,511.19
15.52874,478.17,511.54
15.54769,477.78,510.28
15.56818,480.39,510.38
15.58818,479.36,510.01
15.60793,476.66,512.28
15.62761,476.45,508.11
15.64771,476.04,512.28
15.66781,475.95,512.16
15.68918,476.61,509.62
15.70886,480.31,512.96
15.72917,478.20,511.57
15.74869,478.41,509.86
15.76822,479.56,509.13
15.78743,478.85,508.60
15.80768,476.17,507.15
15.82867,477.42,508.12
15.84917,475.97,510.96
15.86731,477.11,510.93
15.88857,477.10,512.19
15.90755,477.79,510.40
15.92816,478.89,512.86
15.94876,477.78,513.10
15.96835,480.26,509.90
15.98905,479.15,511.30
16.00785,479.00,513.50
16.02897,480.96,517.17
16.04849,479.93,514.81
16.06739,479.66,511.85
16.08920,480.19,513.66
16.10858,479.93,512.98
16.12927,477.71,511.66
16.14895,477.02,510.13
16.16762,476.44,511.00
16.18908,474.71,508.85
16.20939,477.56,511.07
16.22744,477.36,511.63
16.24793,475.33,507.93
16.26790,478.81,508.21
16.28921,477.05,508.61
16.30893,478.18,508.07
16.32929,478.54,509.17
16.34771,478.91,509.92
16.36825,478.44,510.94
16.38900,477.87,510.99
16.40764,478.27,512.39
16.42783,478.01,512.33
16.44869,477.61,507.24
16.46836,479.58,508.41
16.48938,478.51,510.61
16.50836,479.67,511.13
16.52936,480.72,508.89
16.54857,479.74,510.38
16.56847,479.07,508.99
16.58788,477.06,508.84
16.60782,476.43,508.81
16.62910,476.43,506.14
16.64887,478.00,507.43
16.66758,478.81,506.79
16.68871,478.15,508.11
16.70861,476.82,506.64
16.72855,474.82,508.08
16.74920,474.73,507.09
16.76921,473.58,509.01
16.78744,476.65,506.91
16.80927,476.86,507.25
16.82740,476.62,508.80
16.84869,476.48,508.29
16.86785,475.59,510.93
16.88804,475.44,508.69
16.90729,479.82,515.33
16.92826,498.68,520.57
16.94779,522.16,533.15
16.96918,545.99,542.50
16.98866,574.32,548.64
17.00788,596.72,553.20
17.02779,613.30,552.37
17.04792,626.73,551.25
17.06823,635.90,544.95
17.08732,633.85,536.12
17.10901,632.52,532.48
17.12812,629.57,524.89
17.14899,622.15,520.05
17.16757,610.14,517.76
17.18752,600.76,514.87
17.20820,591.31,510.38
17.22911,580.44,514.55
17.24806,571.04,511.71
17.26849,560.01,508.91
17.28858,550.10,508.78
17.30853,539.21,508.20
17.32761,532.12,505.91
17.34904,525.61,508.42
17.36826,518.48,509.49
17.38781,510.47,508.50
17.40722,506.71,510.16
17.42757,502.15,509.31
17.44911,500.06,511.07
17.46881,498.83,507.86
17.49079,493.00,507.60
17.50978,494.35,512.50
17.53080,493.52,509.49
17.54986,491.48,513.79
17.56963,490.94,514.68
17.59082,485.18,511.73
17.61074,484.86,514.04
17.63118,484.88,510.50
17.64955,481.18,515.79
17.67064,484.74,515.54
17.68957,483.07,514.31
17.70959,480.32,512.35
17.72999,479.72,512.94
17.75147,482.09,513.57
17.77121,481.18,511.39
17.79064,477.90,511.44
17.81178,478.07,510.92
17.83036,481.12,511.16
17.85178,481.23,510.27
17.87173,476.16,514.16
17.89225,471.32,514.49
17.91133,463.50,516.57
17.93254,444.73,523.10
17.95305,423.46,524.14
17.97238,398.10,526.77
17.99184,374.17,524.83
18.01145,353.48,519.02
18.03196,335.72,512.62
18.05148,317.60,505.42
18.07266,311.38,499.74
18.09242,310.91,491.97
18.11245,316.41,491.75
18.13300,327.15,487.59
18.15204,339.55,486.29
18.17289,351.77,485.22
18.19168,362.96,485.78
18.21180,376.21,489.72
18.23135,386.65,489.51
18.25212,397.59,491.35
18.27209,406.27,495.86
18.29226,416.14,497.12
18.31181,424.34,498.47
18.33273,431.09,498.83
18.35253,433.49,498.67
18.37334,439.01,500.20
18.39200,446.06,501.49
18.41396,448.37,502.11
18.43367,452.73,503.39
18.45283,456.08,503.12
18.47477,458.60,506.93
18.49426,461.52,505.71
18.51466,463.59,508.51
18.53369,465.27,510.26
18.55522,466.50,512.32
18.57470,466.62,513.21
18.59505,466.48,514.97
18.61627,467.89,516.14
18.63481,468.77,516.78
18.65487,469.85,517.35
18.67464,469.71,517.92
18.69606,470.14,515.82
18.71465,471.20,519.81
18.73595,469.50,517.69
18.75561,470.60,519.25
18.77417,469.94,516.03
18.79596,467.32,515.19
18.81534,466.72,516.69
18.83549,470.56,517.59
18.85435,468.23,517.68
18.87431,470.75,518.30
18.89556,469.92,516.68
18.91626,473.26,519.18
18.93430,470.18,515.49
18.95634,473.19,516.76
18.97508,469.19,518.50
18.99476,472.16,519.63
19.01621,469.54,519.52
19.03559,469.63,519.97
19.05479,470.45,517.86
19.07588,472.06,520.49
19.09448,472.08,519.93
19.11477,469.60,518.40
19.13496,468.27,518.16
19.15577,469.65,517.92
19.17459,469.31,516.41
19.19534,471.64,517.48
19.21494,469.41,519.05
19.23514,471.59,519.18
19.25560,470.05,519.56
19.27517,470.99,517.97
19.29561,468.46,519.91
19.31589,470.49,520.54
19.33586,469.23,521.34
19.35464,470.77,520.90
19.37580,470.90,519.77
19.39453,470.64,520.04
19.41481,472.99,521.21
19.43488,472.87,520.18
19.45578,470.10,520.75
19.47577,471.83,518.18
19.49466,472.31,519.83
19.51462,470.23,518.81
19.53640,473.30,521.93
19.55538,472.95,521.67
19.57549,471.93,519.80
19.59576,472.91,520.16
19.61601,469.18,522.08
19.63458,471.00,521.68
19.65623,470.00,522.62
19.67438,471.52,521.75
19.69532,470.49,518.22
19.71563,473.17,520.11
19.73625,471.55,519.88
19.75560,473.39,521.96
19.77560,472.05,521.20
19.79574,473.21,520.08
19.81501,473.15,518.68
19.83411,471.72,520.79
19.85510,473.77,522.19
19.87559,472.00,520.88
19.89579,469.32,520.83
19.91620,471.06,518.85
19.93431,471.14,518.69
19.95531,471.06,518.54
19.97532,470.38,519.24
19.99627,470.43,517.41
20.01465,470.54,517.37
20.03599,469.57,517.70
20.05481,469.06,517.34
20.07498,468.80,518.59
20.09681,471.12,517.26
20.11636,469.05,518.32
20.13694,471.51,519.36
20.15702,470.18,516.28
20.17526,472.06,518.88
20.19634,470.45,518.49
20.21540,471.95,520.54
20.23542,472.39,517.48
20.25623,472.06,518.49
20.27679,475.12,521.11
20.29651,472.27,520.62
20.31685,474.50,518.09
20.33818,477.11,521.03
20.35641,474.80,522.35
20.37691,476.41,521.10
20.39693,475.10,519.37
20.41745,476.12,522.17
20.43679,472.66,521.89
20.45731,473.46,520.78
20.47809,472.61,519.49
20.49746,474.02,520.69
20.51833,471.57,521.72
20.53825,473.71,522.64
20.55804,473.78,520.37
20.57781,475.55,524.21
20.59795,475.78,521.73
20.61715,474.65,523.43
20.63823,478.52,521.94
20.65664,491.64,529.12
20.67646,516.13,534.52
20.69668,540.46,545.19
20.71763,566.31,548.99
20.73638,591.15,551.16
20.75643,610.67,553.60
20.77797,622.89,550.28
20.79691,632.39,546.76
20.81723,635.28,539.93
20.83694,637.12,535.39
20.85817,631.59,527.92
20.87812,623.15,520.57
20.89790,614.13,518.45
20.91760,600.30,515.87
20.93772,589.30,512.21
20.95679,579.70,510.74
20.97890,569.62,513.67
20.99827,558.49,514.68
21.01902,549.61,514.62
21.03930,541.46,515.98
21.05882,532.02,516.72
21.07781,524.01,514.18
21.09850,514.90,514.00
21.11765,509.52,513.81
21.13917,504.72,517.51
21.15827,501.30,517.06
21.18024,498.16,516.70
21.19902,496.83,513.34
21.21963,491.33,515.78
21.23924,490.49,515.19
21.26007,490.00,516.32
21.27936,488.53,514.04
21.29866,486.08,516.76
21.32011,484.03,517.05
21.33880,485.62,516.27
21.35863,484.97,518.11
21.37902,482.75,518.52
21.39845,486.15,516.08
21.41837,482.01,515.27
21.43927,483.27,518.99
21.45957,480.90,517.27
21.47846,479.37,519.20
21.49904,481.35,517.74
21.52006,478.81,514.82
21.53926,480.08,515.79
21.55856,481.01,516.07
21.57981,478.83,517.76
21.59950,479.00,516.76
21.61941,468.15,519.44
21.63931,453.48,523.48
21.65958,430.93,524.22
21.67982,407.22,519.54
21.70008,381.47,513.84
21.71842,356.53,505.13
21.74000,332.10,496.05
21.75983,312.80,485.32
21.77951,304.99,480.79
21.79974,303.13,475.33
21.81918,309.23,474.74
21.83875,318.30,478.06
21.85860,331.81,479.23
21.87873,341.95,483.87
21.89844,357.92,487.62
21.91888,368.99,491.03
21.93856,384.68,493.59
21.95937,393.03,496.78
21.97895,404.33,499.16
21.99860,416.33,501.83
22.01903,425.62,504.01
22.04019,429.31,504.35
22.05856,436.74,504.22
22.08037,440.01,505.52
22.09920,445.06,506.22
22.11842,449.95,507.70
22.13823,453.48,505.83
22.15883,458.18,506.58
22.17949,463.85,507.29
22.19957,467.77,508.19
22.21880,469.52,506.12
22.23903,471.20,506.07
22.25954,472.55,509.22
22.27903,472.87,509.22
22.29912,475.20,507.35
22.32008,474.00,510.96
22.33906,476.11,511.54
22.35931,475.04,510.11
22.37834,478.04,511.64
22.39824,477.05,511.39
22.41916,479.24,514.73
22.43840,478.55,514.96
22.45860,476.14,515.44
22.48042,480.14,514.93
22.49985,478.67,511.09
22.52064,480.04,512.14
22.54038,480.31,514.38
22.56077,480.84,511.17
22.58029,479.32,510.17
22.60195,481.01,508.97
22.62035,479.84,511.49
22.64123,479.36,507.94
22.66084,477.94,508.40
22.68131,479.02,508.42
22.70144,479.78,508.23
22.72224,478.54,509.67
22.74151,479.80,510.32
22.76214,480.46,508.76
22.78149,481.40,510.50
22.80197,481.92,509.28
22.82067,482.09,509.00
22.84092,479.60,508.05
22.86168,481.88,507.26
22.88219,479.64,511.30
22.90147,480.33,510.15
22.92280,480.14,510.45
22.94226,481.05,509.05
22.96391,477.57,508.87
22.98227,477.18,506.01
23.00312,476.97,505.95
23.02279,475.86,506.94
23.04271,479.60,505.96
23.06376,480.53,506.03
23.08366,481.03,506.53
23.10231,480.97,507.14
23.12242,481.26,508.35
23.14438,479.37,509.55
23.16430,480.77,509.55
23.18387,479.50,506.80
23.20334,478.75,508.60
23.22239,479.99,509.48
23.24348,479.74,509.16
23.26409,479.45,510.45
23.28315,479.38,510.66
23.30250,479.64,508.17
23.32392,479.25,508.85
23.34273,477.64,507.42
23.36312,481.41,507.63
23.38252,479.83,510.10
23.40313,477.40,507.35
23.42404,480.79,509.91
23.44336,478.03,506.11
23.46353,477.70,505.99
23.48392,479.83,506.85
23.50335,478.78,509.77
23.52287,477.61,509.94
23.54239,477.65,507.01
23.56399,478.17,506.72
23.58249,479.83,507.66
23.60254,476.56,506.84
23.62377,478.06,506.86
23.64324,479.00,510.71
23.66339,476.80,509.33
23.68335,477.32,509.07
23.70263,478.00,510.03
23.72340,478.08,507.28
23.74319,479.14,509.10
23.76329,481.77,509.24
23.78299,480.43,506.47
23.80404,479.07,508.74
23.82407,479.83,509.45
23.84335,478.55,508.85
23.86249,477.13,507.30
23.88403,477.78,508.89
23.90415,479.01,507.39
23.92342,476.39,509.33
23.94246,477.58,506.41
23.96294,480.48,509.03
23.98388,479.85,508.41
24.00420,478.67,506.56
24.02340,478.78,506.77
24.04267,478.25,505.46
24.06253,478.31,507.28
24.08411,478.60,505.45
24.10264,477.46,506.79
24.12306,476.00,507.18
24.14275,475.47,511.20
24.16244,477.08,509.66
24.18397,476.91,511.89
24.20286,474.40,510.12
24.22252,474.95,509.16
24.24280,476.07,509.58
24.26371,474.11,510.56
24.28345,473.49,509.22
24.30275,473.93,510.06
24.32353,476.44,506.83
24.34387,474.39,508.07
24.36222,474.41,510.30
24.38334,475.15,509.20
24.40248,474.92,509.40
24.42287,475.41,511.72
24.44334,477.89,513.15
24.46371,480.65,516.21
24.48379,499.83,525.88
24.50338,523.72,537.72
24.52226,556.65,550.50
24.54332,584.35,556.38
24.56259,611.53,558.57
24.58293,629.53,557.34
24.60349,641.48,550.48
24.62293,643.37,544.15
24.64372,640.75,534.95
24.66272,636.37,530.93
24.68275,630.66,523.38
24.70263,622.33,518.74
24.72415,610.35,514.06
24.74229,596.58,511.37
24.76401,586.09,508.74
24.78353,576.69,507.73
24.80344,564.27,509.05
24.82422,552.25,510.36
24.84451,545.46,508.89
24.86461,536.75,509.45
24.88410,528.47,510.88
24.90450,523.41,509.14
24.92338,515.56,510.77
24.94391,514.74,512.47
24.96493,507.43,511.47
24.98490,503.86,510.94
25.00372,502.74,508.27
25.02375,496.27,507.86
25.04314,493.22,507.43
25.06500,491.68,508.75
25.08469,491.23,507.07
25.10370,485.88,509.58
25.12429,484.49,507.78
25.14341,481.97,509.44
25.16519,484.39,508.80
25.18484,480.98,509.22
25.20473,480.41,505.55
25.22480,480.91,505.32
25.24396,479.23,506.30
25.26374,477.94,507.73
25.28346,477.84,507.48
25.30498,478.86,508.01
25.32474,478.59,506.40
25.34492,477.74,507.12
25.36377,476.97,508.44
25.38370,475.75,508.22
25.40413,473.81,507.22
25.42466,475.62,505.66
25.44483,473.41,503.11
25.46377,471.62,505.50
25.48484,469.39,503.24
25.50454,460.81,503.90
25.52387,439.47,500.70
25.54508,412.09,500.68
25.56388,384.42,495.75
25.58474,358.63,490.27
25.60594,331.57,482.38
25.62483,312.81,477.45
25.64486,298.94,472.48
25.66618,297.50,470.75
25.68614,303.91,472.24
25.70594,312.81,471.62
25.72539,320.64,475.73
25.74446,336.81,474.99
25.76578,351.37,478.04
25.78513,361.52,480.86
25.80558,377.27,486.47
25.82494,386.49,489.08
25.84559,397.16,491.15
25.86538,406.24,492.91
25.88477,415.34,495.19
25.90476,425.14,498.26
25.92542,432.17,501.32
25.94605,436.29,502.74
25.96554,442.45,505.54
25.98465,446.03,506.62
26.00507,449.47,508.07
26.02458,454.72,506.79
26.04487,458.66,508.24
26.06588,459.42,508.33
26.08497,462.88,509.03
26.10444,462.94,511.51
26.12549,467.90,509.15
26.14520,466.97,510.46
26.16540,468.11,512.69
26.18441,471.26,510.79
26.20461,470.93,511.26
26.22428,471.47,510.30
26.24583,472.79,508.65
26.26516,473.15,509.86
26.28610,474.37,512.68
26.30407,472.82,510.70
26.32456,473.58,511.62
26.34580,473.34,509.74
26.36496,472.02,513.43
26.38495,473.52,512.76
26.40531,472.85,510.94
26.42565,474.29,512.08
26.44462,474.39,514.49
26.46457,476.53,512.67
26.48592,475.14,514.50
26.50527,477.22,513.23
26.52561,474.33,512.81
26.54516,474.08,514.35
26.56598,474.01,513.52
26.58569,475.73,513.05
26.60433,475.19,514.60
26.62522,474.03,513.91
26.64548,473.31,512.38
26.66569,475.67,512.68
26.68436,471.40,511.82
26.70421,471.67,512.56
26.72444,471.96,513.12
26.74429,471.15,510.48
26.76509,473.17,512.61
26.78581,474.32,513.29
26.80680,471.10,514.03
26.82598,473.94,514.07
26.84623,473.60,513.40
26.86669,473.73,514.48
26.88665,472.44,513.45
26.90681,475.48,512.47
26.92525,475.60,514.77
26.94540,472.13,514.46
26.96680,471.05,512.71
26.98639,473.21,514.19
27.00644,471.43,514.20
27.02592,470.65,512.70
27.04570,474.05,515.60
27.06615,471.74,513.35
27.08588,473.15,514.56
27.10670,473.33,514.80
27.12499,474.44,517.43
27.14546,471.45,515.27
27.16546,472.44,516.53
27.18621,470.80,513.24
27.20537,470.99,513.93
27.22674,471.87,514.38
27.24589,471.91,513.34
27.26598,474.39,514.72
27.28592,471.37,516.83
27.30705,474.78,514.10
27.32628,473.50,513.65
27.34557,470.50,517.45
27.36604,470.62,516.90
27.38712,470.03,515.68
27.40698,469.55,519.16
27.42601,471.14,516.95
27.44522,471.11,517.10
27.46517,472.90,516.41
27.48607,474.32,518.29
27.50699,475.41,519.15
27.52646,474.60,517.59
27.54510,474.56,519.42
27.56600,477.69,519.39
27.58588,475.71,517.70
27.60575,474.47,514.98
27.62659,474.14,517.42
27.64634,473.80,513.67
27.66639,475.86,513.91
27.68646,474.24,514.31
27.70685,471.55,516.00
27.72680,473.10,514.12
27.74688,471.83,517.27
27.76642,473.68,516.89
27.78580,473.50,515.36
27.80584,473.88,517.91
27.82739,471.85,515.86
27.84736,471.15,517.84
27.86765,471.11,515.66
27.88766,470.04,518.84
27.90645,471.97,519.51
27.92729,473.24,520.08
27.94779,474.17,519.22
27.96781,470.78,518.94
27.98655,473.83,517.91
28.00638,470.98,516.74
28.02768,472.61,515.66
28.04720,469.00,518.26
28.06728,471.91,518.15
28.08685,470.35,514.81
28.10679,469.63,519.02
28.12802,476.09,517.67
28.14727,490.23,526.23
28.16783,507.32,533.38
28.18841,532.99,543.53
28.20858,562.93,555.41
28.22949,590.74,561.87
28.24916,613.78,568.05
28.26838,628.69,569.65
28.28962,638.35,570.62
28.30834,643.48,568.16
28.32976,639.85,558.20
28.34823,638.07,552.59
28.36862,630.44,543.48
28.38966,617.36,535.70
28.40886,606.20,529.20
28.43009,594.74,525.57
28.44963,579.02,519.25
28.46858,569.09,517.80
28.48918,558.53,513.23
28.50836,547.37,513.85
28.52821,541.83,513.25
28.54988,531.78,512.28
28.56817,522.90,508.99
28.58821,516.58,510.48
28.61008,509.08,509.32
28.62878,507.13,512.17
28.64908,500.59,513.51
28.66892,497.04,512.53
28.68844,493.95,515.26
28.70790,489.78,512.79
28.72967,484.70,514.60
28.75088,483.95,514.34
28.76934,483.65,512.94
28.78950,483.24,515.69
28.81063,481.91,514.32
28.83057,481.44,516.44
28.85038,479.52,515.34
28.86979,477.48,517.18
28.89071,478.21,518.07
28.90986,478.96,517.74
28.92980,475.48,516.97
28.95096,476.34,519.55
28.97083,478.03,521.59
28.98935,479.22,518.81
29.01042,476.91,519.43
29.02952,478.05,520.38
29.05084,471.69,524.26
29.06944,460.80,523.89
29.08972,438.89,522.77
29.11035,421.64,522.48
29.13052,400.70,518.50
29.14891,381.31,516.34
29.16975,363.02,515.08
29.19014,344.84,509.47
29.21057,330.25,503.91
29.23085,315.95,498.04
29.25142,308.59,492.11
29.27169,311.79,487.60
29.29185,318.05,489.22
29.31129,327.65,487.97
29.33140,337.98,486.25
29.35254,351.94,488.42
29.37158,361.22,491.97
29.39126,376.89,492.39
29.41135,386.16,495.15
29.43169,399.02,499.15
29.45219,407.91,502.43
29.47266,417.80,504.92
29.49168,426.19,507.61
29.51179,433.14,505.77
29.53260,441.60,509.84
29.55211,444.51,512.41
29.57198,450.19,513.44
29.59115,452.39,513.02
29.61223,454.88,514.50
29.63257,462.29,516.19
29.65222,462.55,515.70
29.67258,465.58,516.43
29.69151,468.68,516.47
29.71211,467.72,515.98
29.73133,470.69,516.82
29.75185,472.67,520.51
29.77150,473.73,516.65
29.79258,470.69,519.60
29.81123,473.62,516.86
29.83189,475.88,515.49
29.85174,474.05,516.67
29.87264,474.67,512.87
29.89186,473.96,515.72
29.91254,474.43,513.36
29.93185,475.87,516.71
29.95174,474.71,515.25
29.97226,474.62,517.41
29.99118,478.30,515.19
30.01260,476.97,517.34
30.03308,478.51,516.83
30.05184,475.44,518.44
30.07210,476.34,518.48
30.09298,480.05,517.59
30.11271,478.65,518.75
30.13302,478.06,517.29
30.15187,477.15,515.44
30.17128,479.22,517.79
30.19228,476.28,520.62
30.21278,477.82,517.54
30.23285,479.45,518.61
30.25142,477.09,519.92
30.27291,476.49,519.69
30.29240,477.73,517.74
30.31245,475.91,518.72
30.33172,475.05,519.01
30.35298,478.10,520.04
30.37200,479.40,521.30
30.39152,476.07,521.71
30.41173,475.57,519.78
30.43290,475.99,519.67
30.45176,478.96,521.32
30.47247,476.12,521.26
30.49252,476.97,521.54
30.51148,478.41,518.83
30.53287,476.44,519.30
30.55193,479.57,519.35
30.57252,477.13,518.68
30.59175,477.43,518.10
30.61276,478.79,520.28
30.63284,477.42,517.44
30.65199,476.10,517.76
30.67255,478.07,520.20
30.69165,478.51,517.53
30.71145,477.93,519.28
30.73266,477.19,517.03
30.75142,479.80,517.21
30.77160,475.84,518.20
30.79256,479.23,518.84
30.81238,479.10,518.01
30.83212,479.10,518.66
30.85118,481.63,518.42
30.87276,479.17,515.47
30.89113,482.04,517.16
30.91229,479.02,515.95
30.93228,479.03,517.57
30.95253,479.91,518.12
30.97180,479.23,520.22
30.99242,480.04,519.67
31.01213,480.78,518.23
31.03232,478.09,519.61
31.05152,477.70,517.92
31.07283,477.42,516.39
31.09165,481.38,516.89
31.11128,477.93,515.82
31.13215,478.57,515.15
31.15219,480.17,515.36
31.17156,479.15,518.41
31.19147,477.74,514.53
31.21213,476.62,514.90
31.23222,478.59,511.62
31.25232,479.08,512.28
31.27293,476.01,510.63
31.29334,478.47,512.36
31.31277,477.50,507.73
31.33321,476.86,509.26
31.35218,478.43,509.82
31.37342,476.95,506.96
31.39337,478.65,509.74
31.41339,481.33,510.08
31.43229,477.90,510.54
31.45269,477.71,512.99
31.47222,478.26,512.89
31.49222,477.03,511.51
31.51333,479.12,511.28
31.53282,478.42,508.82
31.55502,479.83,511.46
31.57432,476.84,507.82
31.59548,476.61,507.07
31.61432,479.68,509.04
31.63413,478.59,509.00
31.65457,477.40,507.92
31.67445,477.11,502.94
31.69465,478.46,505.07
31.71464,478.07,503.80
31.73459,477.99,504.30
31.75439,476.79,504.63
31.77573,477.08,506.54
31.79564,479.62,507.04
31.81507,476.64,505.37
31.83534,475.97,507.20
31.85583,485.17,511.32
31.87548,496.41,521.33
31.89554,521.38,533.83
31.91492,554.44,543.57
31.93503,586.00,551.47
31.95596,614.78,555.55
31.97549,637.44,552.82
31.99457,649.14,548.45
32.01453,654.52,539.37
32.03510,653.20,531.72
32.05498,645.55,522.47
32.07490,636.35,513.88
32.09450,627.03,511.65
32.11459,613.41,507.39
32.13530,603.26,502.12
32.15432,591.67,500.52
32.17449,581.73,503.49
32.19520,568.81,500.97
32.21485,560.30,503.60
32.23455,551.64,502.43
32.25524,541.24,500.16
32.27546,532.35,500.15
32.29403,528.76,501.44
32.31461,523.71,500.80
32.33427,517.77,502.35
32.35584,512.48,503.66
32.37430,505.13,503.38
32.39429,502.06,505.25
32.41402,501.16,505.29
32.43448,496.84,506.23
32.45567,494.59,510.05
32.47419,494.14,509.30
32.49600,490.76,509.72
32.51462,490.32,508.18
32.53516,487.37,512.01
32.55497,485.17,510.69
32.57507,485.03,509.25
32.59699,485.83,509.89
32.61619,484.21,508.46
32.63575,479.36,507.31
32.65700,482.58,509.90
32.67684,482.12,510.73
32.69533,479.55,507.28
32.71624,479.42,509.90
32.73673,478.47,506.47
32.75554,479.37,509.19
32.77582,471.89,508.76
32.79576,465.76,513.07
32.81633,450.53,519.74
32.83517,430.11,524.56
32.85497,408.66,531.26
32.87551,387.75,534.35
32.89700,370.42,531.75
32.91624,351.00,521.59
32.93500,334.81,508.73
32.95647,324.58,495.59
32.97502,316.70,483.89
32.99634,315.72,474.94
33.01493,323.29,469.73
33.03633,331.96,469.10
33.05641,343.80,468.22
33.07501,352.19,469.64
33.09551,363.61,473.14
33.11621,377.27,475.42
33.13600,388.40,478.00
33.15634,398.52,479.10
33.17576,408.36,482.04
33.19531,417.08,483.38
33.21590,425.16,487.54
33.23685,431.63,488.33
33.25632,438.74,489.48
33.27642,447.98,491.91
33.29545,451.88,493.00
33.31567,453.53,493.45
33.33628,459.96,496.06
33.35538,460.51,497.06
33.37636,462.30,499.91
33.39697,465.17,501.40
33.41626,464.79,499.86
33.43510,468.43,501.58
33.45631,469.14,504.47
33.47546,471.92,503.76
33.49604,471.99,506.36
33.51648,473.34,506.42
33.53684,474.73,505.52
33.55574,474.17,508.35
33.57690,474.87,507.81
33.59662,473.32,510.53
33.61513,473.21,510.06
33.63686,474.31,508.84
33.65590,475.87,510.08
33.67653,476.29,509.84
33.69679,476.30,508.35
33.71544,476.17,510.89
33.73489,475.58,508.60
33.75681,475.29,511.50
33.77684,477.84,510.56
33.79670,478.01,508.54
33.81759,478.94,509.93
33.83808,475.43,506.63
33.85695,478.50,508.28
33.87856,474.51,506.78
33.89882,474.83,508.05
33.91899,475.07,507.35
33.93714,472.87,508.34
33.95887,475.56,508.61
33.97773,475.94,511.38
33.99839,475.05,509.68
34.01772,474.19,511.08
34.03888,477.27,510.34
34.05713,478.67,514.45
34.07786,475.36,512.87
34.09830,475.57,512.07
34.11738,475.90,511.15
34.13774,475.40,508.93
34.15798,477.32,506.35
34.17750,473.14,506.81
34.19722,473.25,507.78
34.21875,472.41,505.79
34.23758,474.02,507.66
34.25833,471.19,506.15
34.27685,473.46,507.57
34.29777,472.43,508.18
34.31802,471.75,512.94
34.33868,472.79,511.93
34.35821,473.76,512.71
34.37754,472.64,515.21
34.39727,472.95,514.55
34.41750,474.70,514.03
34.43721,476.55,511.31
34.45815,477.83,512.85
34.47913,476.14,508.33
34.49732,477.11,510.65
34.51840,475.15,512.16
34.53756,476.99,511.36
34.55871,478.96,510.39
34.57876,478.58,511.02
34.59883,476.73,511.51
34.61870,476.89,512.68
34.63840,474.84,509.90
34.65769,475.89,513.23
34.67772,475.93,510.42
34.69838,473.58,512.15
34.71690,477.30,511.83
34.73886,476.60,512.75
34.75720,478.01,513.56
34.77828,476.59,511.63
34.79870,479.70,512.08
34.81822,475.90,512.36
34.83830,478.34,514.86
34.85768,475.08,516.16
34.87822,475.35,513.57
34.89800,477.40,514.12
34.91910,478.20,516.46
34.93779,477.30,514.34
34.95847,476.86,516.24
34.97842,477.05,515.39
34.99700,478.89,516.10
35.01793,478.08,514.22
35.03857,479.77,512.12
35.05701,480.54,512.60
35.07858,477.08,511.99
35.09829,478.03,515.22
35.11796,476.30,515.70
35.13862,476.03,515.10
35.15775,478.15,514.73
35.17794,478.12,510.29
35.19726,475.94,511.11
35.21773,478.01,508.63
35.23725,476.62,510.16
35.25796,476.24,508.12
35.27753,474.99,510.03
35.29789,473.15,509.95
35.31728,474.18,508.17
35.33707,476.03,511.36
35.35783,475.97,514.46
35.37827,484.72,517.20
35.39674,505.88,533.17
35.41730,535.88,547.82
35.43796,568.14,560.46
35.45759,596.58,566.50
35.47796,620.77,568.30
35.49741,635.15,568.29
35.51825,642.55,562.29
35.53718,646.15,553.81
35.55741,640.37,545.93
35.57714,632.34,536.84
35.59818,622.14,527.68
35.61831,614.05,521.29
35.63804,601.88,515.18
35.65877,588.35,511.44
35.67784,576.10,508.38
35.69803,566.50,505.31
35.71840,554.51,501.66
35.73850,546.75,503.31
35.75826,538.67,501.03
35.77695,531.32,502.15
35.79848,522.85,502.99
35.81860,516.10,502.08
35.83737,510.40,506.32
35.85838,503.57,505.25
35.87785,499.77,505.85
35.89750,495.30,506.28
35.91875,495.42,505.54
35.93733,489.81,505.67
35.95835,489.57,509.00
35.97844,487.50,510.25
35.99777,484.38,509.71
36.01888,484.15,512.76
36.03758,484.07,509.11
36.05846,480.64,511.14
36.07687,482.14,511.38
36.09721,482.05,511.90
36.11862,478.74,514.55
36.13847,478.28,512.67
36.15805,479.38,511.67
36.17874,479.43,513.12
36.19843,478.48,511.85
36.21715,477.30,514.14
36.23783,478.07,515.00
36.25837,479.08,513.63
36.27778,470.12,517.01
36.29730,458.77,516.02
36.31855,439.58,512.77
36.33771,414.14,508.92
36.35748,384.68,501.74
36.37738,357.72,491.76
36.39782,333.53,479.07
36.41735,311.44,473.79
36.43866,302.58,467.31
36.45739,299.28,467.31
36.47692,306.69,469.53
36.49738,314.47,471.70
36.51827,326.27,476.06
36.53898,340.90,479.54
36.55797,352.83,483.61
36.57869,366.28,486.40
36.59846,379.07,489.33
36.61750,392.13,495.07
36.63728,400.03,496.22
36.65715,411.50,497.69
36.67796,420.68,501.88
36.69855,427.61,506.21
36.71672,433.72,506.01
36.73688,436.87,508.77
36.75741,442.16,510.86
36.77709,449.82,511.32
36.79715,453.73,510.51
36.81844,454.57,511.15
36.83765,459.27,511.81
36.85743,460.46,512.66
36.87719,462.02,513.43
36.89767,462.57,513.18
36.91872,465.35,517.46
36.93872,464.09,517.58
36.95776,468.74,514.40
36.97990,465.94,517.40
36.99786,467.91,518.48
37.01980,470.04,518.82
37.03863,467.43,521.07
37.05802,471.94,520.91
37.07928,472.62,520.01
37.09901,472.62,518.82
37.11976,470.91,520.95
37.13932,471.23,517.38
37.15957,471.38,519.29
37.17967,473.81,517.17
37.19846,473.91,518.67
37.21912,472.52,518.10
37.23838,473.77,517.85
37.25988,475.87,517.09
37.27979,475.83,515.33
37.29860,473.57,516.06
37.31939,473.27,517.20
37.33891,474.04,516.40
37.35969,472.43,518.43
37.37900,473.19,517.83
37.39896,473.98,516.50
37.42089,473.35,516.08
37.43952,472.40,516.80
37.46053,474.46,519.13
37.47904,472.17,519.05
37.49952,471.86,518.37
37.51994,471.76,520.09
37.54067,469.46,519.83
37.56027,469.66,516.33
37.58059,469.53,518.50
37.59922,471.99,519.36
37.61948,469.46,518.69
37.63942,473.59,516.50
37.65885,471.41,519.20
37.67946,475.03,517.71
37.70041,475.65,516.69
37.71979,472.90,517.07
37.74057,473.26,517.59
37.76063,473.93,519.14
37.77880,473.76,519.81
37.80060,471.95,518.76
37.82011,471.04,519.23
37.84035,472.45,517.96
37.86016,473.47,519.18
37.88055,471.04,520.71
37.89911,471.93,522.03
37.91890,472.92,518.90
37.93981,473.52,520.64
37.95996,471.75,521.20
37.98158,474.56,521.15
38.00109,472.78,520.80
38.02084,473.20,523.21
38.04118,473.43,523.15
38.06132,471.11,520.11
38.08072,473.79,521.78
38.10058,475.36,519.32
38.12142,475.18,522.85
38.14165,475.88,521.52
38.16119,472.24,522.34
38.18025,472.21,521.60
38.20018,474.54,520.93
38.22112,474.83,520.65
38.23996,472.19,522.01
38.26040,475.08,520.05
38.28183,472.12,520.30
38.30010,472.85,521.45
38.32070,475.11,521.53
38.34090,475.49,521.15
38.36146,479.15,523.22
38.38000,477.48,522.80
38.40180,478.58,522.29
38.42179,478.37,522.18
38.44145,478.37,522.61
38.46078,478.29,520.83
38.47997,476.31,519.04
38.50169,476.50,519.69
38.51999,475.44,520.62
38.54093,477.12,521.12
38.56168,476.70,521.70
38.58041,476.06,520.56
38.60017,475.64,519.82
38.62010,473.98,519.30
38.64131,474.08,520.51
38.66070,474.76,520.93
38.68001,475.61,518.30
38.70173,475.38,519.19
38.72132,477.96,520.14
38.74062,475.09,518.24
38.76124,477.45,519.97
38.78076,475.69,520.35
38.80084,474.30,518.01
38.82180,476.04,519.42
38.84117,474.45,519.11
38.86029,475.71,518.65
38.88118,476.92,516.40
38.90092,475.74,519.82
38.92050,474.41,519.22
38.93981,477.50,517.50
38.96169,474.21,519.71
38.98070,484.16,526.54
39.00028,505.12,536.70
39.02165,536.53,546.07
39.04075,568.74,557.33
39.06172,595.90,566.45
39.08149,618.69,566.22
39.10110,632.80,563.89
39.12097,642.81,560.20
39.14135,644.71,553.16
39.16144,643.16,545.95
39.18175,633.79,539.89
39.20117,626.39,534.76
39.22010,616.53,526.12
39.24102,603.31,524.11
39.26090,593.71,518.56
39.28169,581.92,514.39
39.30066,571.37,514.96
39.32061,559.88,512.05
39.34122,549.92,511.69
39.36004,541.46,514.28
39.38037,533.42,513.93
39.40085,525.28,512.66
39.42056,516.09,512.71
39.44031,513.04,513.26
39.46033,505.96,514.86
39.48139,505.70,517.37
39.50047,499.66,517.20
39.52082,494.76,519.54
39.54104,491.92,516.91
39.56174,491.10,518.27
39.58001,488.95,517.84
39.60188,487.91,520.02
39.62180,485.42,520.05
39.64125,484.18,520.92
39.66139,485.48,519.66
39.68084,484.91,520.37
39.70079,482.82,522.68
39.71995,482.00,522.01
39.74125,482.52,522.67
39.76021,479.14,522.73
39.78066,479.39,522.40
39.80080,481.33,520.82
39.82181,477.74,523.09
39.84054,478.97,522.07
39.86080,479.45,520.06
39.88075,480.56,523.66
39.90112,480.67,521.43
39.92166,476.35,525.23
39.94083,473.28,529.51
39.96182,466.50,541.54
39.98284,451.98,559.20
40.00184,439.88,575.97
40.02257,419.75,592.65
40.04087,400.76,603.00
40.06209,383.22,612.64
40.08263,368.30,615.56
40.10245,354.23,608.45
40.12341,337.69,595.24
40.14331,327.40,570.77
40.16323,321.07,547.48
40.18381,322.61,524.11
40.20174,327.78,497.24
40.22318,334.34,479.30
40.24275,344.19,464.89
40.26300,357.30,455.55
40.28372,366.25,451.20
40.30480,377.94,447.14
40.32501,388.47,446.76
40.34438,399.61,448.84
40.36569,407.64,451.55
40.38494,418.22,452.70
40.40394,424.83,457.59
40.42399,431.32,460.77
40.44580,438.14,465.03
40.46438,443.26,468.78
40.48479,447.15,473.08
40.50531,450.41,476.90
40.52643,456.37,480.00
40.54619,459.49,481.35
40.56786,459.47,485.04
40.58746,465.12,490.01
40.60728,466.01,490.20
40.62570,468.88,492.82
40.64703,467.18,496.91
40.66775,470.93,495.76
40.68621,470.81,496.81
40.70685,471.32,502.01
40.72601,473.49,503.00
40.74738,474.71,500.44
40.76633,476.37,503.40
40.78622,474.92,506.46
40.80654,478.04,506.62
40.82625,477.94,507.94
40.84789,474.97,508.43
40.86782,478.85,506.53
40.88744,477.08,506.54
40.90652,478.57,506.43
40.92729,479.59,509.01
40.94670,478.56,510.30
40.96751,476.86,509.29
40.98818,478.51,508.99
41.00730,478.69,509.28
41.02863,479.84,511.49
41.04841,478.61,510.83
41.06888,479.86,512.10
41.08783,479.15,511.97
41.10776,476.61,512.00
41.12781,480.09,510.32
41.14718,479.68,512.28
41.16776,476.25,512.90
41.18830,480.15,508.87
41.20862,479.27,509.08
41.22860,475.90,508.97
41.24858,478.20,509.77
41.26909,477.83,508.01
41.28880,476.70,509.62
41.30876,475.66,507.91
41.32975,478.80,507.55
41.34932,478.32,508.21
41.36801,477.97,510.67
41.38922,479.07,511.69
41.40899,479.74,512.07
41.42826,478.10,510.63
41.44881,477.03,509.13
41.46965,476.97,511.67
41.48980,476.51,509.49
41.50963,478.70,507.93
41.52966,479.40,509.17
41.54792,476.02,508.94
41.56957,474.76,509.28
41.58930,474.94,511.10
41.60778,474.98,509.30
41.63003,476.17,512.23
41.64994,474.22,511.01
41.67043,476.23,509.95
41.68978,476.71,510.50
41.70959,475.05,512.08
41.72992,474.70,510.34
41.74974,475.94,510.39
41.76940,475.89,512.26
41.78939,476.15,511.42
41.81012,478.32,509.57
41.82918,475.27,510.58
41.85026,477.95,511.88
41.87041,476.94,510.14
41.88938,477.48,513.08
41.90964,478.31,512.26
41.93077,475.11,513.54
41.94968,476.36,509.80
41.97005,476.89,509.80
41.98960,475.18,511.97
42.01006,474.15,510.53
42.02982,477.21,511.23
42.04961,476.87,511.92
42.07018,475.69,511.47
42.08911,476.05,510.84
42.10949,477.20,510.03
42.12966,476.56,513.52
42.15079,476.07,512.87
42.16947,475.77,511.81
42.19075,472.67,512.77
42.21017,473.18,514.15
42.22982,475.69,512.82
42.25013,475.34,512.76
42.26934,474.44,511.90
42.29065,475.66,516.37
42.31008,475.52,515.66
42.33018,474.10,514.21
42.34915,474.25,515.67
42.37074,477.09,515.63
42.38987,473.58,513.65
42.40927,476.99,512.44
42.42992,473.45,513.96
42.44951,473.76,512.42
42.46944,474.62,512.01
42.49084,474.43,514.38
42.50984,477.13,513.44
42.53019,474.07,514.11
42.54943,472.59,516.04
42.56988,473.85,515.21
42.58901,475.16,513.35
42.60934,473.46,514.90
42.63047,472.81,514.92
42.65037,473.30,517.30
42.67034,475.01,515.19
42.68999,477.16,516.43
42.71033,474.41,513.45
42.73004,475.01,517.00
42.74913,473.90,513.70
42.77057,473.71,516.41
42.79043,477.90,514.31
42.80963,483.24,516.07
42.82931,494.09,513.17
42.85007,510.39,513.74
42.86936,528.09,515.78
42.88902,548.25,520.15
42.91051,566.90,526.99
42.92944,588.28,532.30
42.94978,607.76,533.04
42.96954,622.16,535.04
42.98933,627.55,535.99
43.01055,633.12,534.69
43.03003,633.71,529.48
43.04999,629.05,524.99
43.06992,619.52,521.82
43.08943,612.69,521.42
43.11042,603.49,518.28
43.13029,590.28,515.21
43.15033,580.27,512.89
43.17068,568.12,512.64
43.18949,560.35,509.25
43.21050,551.34,511.21
43.22960,541.95,512.23
43.24920,531.49,512.83
43.26994,523.53,513.43
43.29055,516.17,513.89
43.30990,512.86,512.39
43.33046,505.94,512.41
43.34999,500.96,515.89
43.37046,496.38,513.51
43.39031,493.46,513.49
43.40896,494.14,514.32
43.42943,491.20,513.75
43.45121,487.96,516.16
43.46992,486.83,517.70
43.49148,483.69,514.53
43.60271,480.78,516.64
43.60373,482.03,514.96
43.60468,480.83,514.95
43.60330,480.72,516.40
43.60467,478.83,516.17
43.62447,482.67,514.38
43.64447,481.62,513.17
43.66465,482.94,509.82
43.68417,479.74,508.85
43.70291,476.46,509.56
43.72283,465.82,510.84
43.74302,448.15,513.03
43.76369,427.72,511.30
43.78343,401.32,508.43
43.80307,378.60,501.32
43.82301,354.53,494.56
43.84449,333.27,483.04
43.86387,314.58,477.17
43.88294,301.20,469.27
43.90351,292.66,465.70
43.92427,293.38,462.83
43.94409,303.13,464.74
43.96331,313.60,468.03
43.98395,326.17,471.90
44.00368,341.94,473.48
44.02334,354.58,477.36
44.04379,368.91,479.96
44.06425,381.95,483.71
44.08465,391.43,488.86
44.10440,403.05,492.16
44.12264,413.72,495.87
44.14412,420.13,497.51
44.16283,429.61,502.15
44.18384,434.76,501.83
44.20368,440.66,504.46
44.22304,447.33,503.79
44.24401,451.53,505.04
44.26408,453.85,505.61
44.28304,456.79,508.64
44.30381,460.11,508.32
44.32274,463.92,506.98
44.34330,465.05,506.26
44.36437,465.89,506.61
44.38388,468.25,509.48
44.40303,468.22,506.80
44.42303,473.81,510.83
44.44435,481.88,516.73
44.46415,488.62,516.93
44.48371,491.20,522.12
44.50385,494.10,521.24
44.52286,495.43,519.09
44.54446,495.64,519.89
44.56381,493.03,517.56
44.58465,489.91,517.75
44.60396,490.46,513.91
44.62426,486.82,515.51
44.64411,486.76,515.91
44.66370,486.18,515.62
44.68609,484.60,512.53
44.70498,482.77,513.83
44.72622,483.00,513.40
44.74539,483.92,515.49
44.76537,480.99,513.48
44.78527,482.86,513.24
44.80568,479.18,515.34
44.82589,481.27,513.44
44.84549,481.26,516.27
44.86597,478.22,515.87
44.88615,480.61,516.02
44.90632,477.57,515.76
44.92512,477.05,515.14
44.94523,476.37,514.59
44.96473,477.28,513.41
44.98550,478.14,511.26
45.00635,477.47,514.29
45.02547,476.63,512.47
45.04667,474.73,511.75
45.06497,476.06,515.11
45.08480,476.16,512.23
45.10660,476.00,515.25
45.12497,475.85,514.23
45.14487,475.23,512.56
45.16535,474.31,514.53
45.18594,474.76,514.31
45.20633,475.35,514.79
45.22617,474.21,512.94
45.24645,478.07,514.86
45.26636,475.83,514.97
45.28497,478.82,515.89
45.30584,475.87,512.86
45.32609,475.16,512.45
45.34608,475.49,512.47
45.36648,474.16,511.49
45.38676,475.34,509.98
45.40627,474.67,509.86
45.42735,473.36,510.02
45.44665,474.42,512.36
45.46616,475.70,511.11
45.48691,476.34,511.94
45.50572,475.78,508.24
45.52639,473.99,509.97
45.54577,474.30,510.89
45.56663,475.29,511.27
45.58725,474.84,509.93
45.60640,476.05,508.82
45.62742,476.69,510.60
45.64687,476.86,509.71
45.66596,473.88,512.21
45.68610,476.84,512.00
45.70612,475.09,514.06
45.72736,477.62,513.92
45.74605,475.21,513.84
45.76696,472.90,514.38
45.78576,475.51,513.60
45.80650,474.05,515.50
45.82611,474.72,515.68
45.84730,473.19,516.13
45.86709,471.94,514.80
45.88645,472.45,514.38
45.90711,474.01,514.81
45.92746,474.63,517.78
45.94740,473.99,518.65
45.96744,473.52,518.15
45.98745,472.46,518.88
46.00746,473.83,520.38
46.02728,475.34,519.08
46.04776,474.28,520.00
46.06735,475.07,518.88
46.08733,472.06,516.03
46.10577,474.92,516.77
46.12579,474.27,515.43
46.14654,474.31,517.94
46.16649,472.17,517.88
46.18765,472.07,517.69
46.20756,472.22,518.90
46.22742,472.66,518.05
46.24709,471.53,519.94
46.26665,469.34,518.89
46.28662,469.99,517.79
46.30730,473.69,517.97
46.32750,472.00,519.04
46.34706,470.70,517.57
46.36595,473.60,516.84
46.38741,474.79,517.12
46.40654,472.32,516.33
46.42619,473.01,516.85
46.44605,472.17,518.75
46.46634,473.61,516.48
46.48653,472.72,517.29
46.50715,473.48,521.02
46.52680,479.08,520.49
46.54702,495.75,529.77
46.56672,518.31,537.88
46.58724,548.20,548.49
46.60768,575.78,559.14
46.62589,598.76,560.95
46.64705,616.96,560.66
46.66684,631.02,559.35
46.68730,633.30,552.49
46.70738,632.32,543.94
46.72670,628.43,536.38
46.74621,620.70,530.20
46.76703,615.26,525.00
46.78824,603.22,518.54
46.80848,593.34,516.18
46.82817,580.33,510.62
46.84768,567.48,508.76
46.86998,557.43,505.48
46.89009,549.48,507.57
46.91107,539.05,508.11
46.93138,530.75,506.03
46.95061,524.96,509.73
46.96968,516.85,508.34
46.99109,511.28,511.29
47.01025,503.57,514.90
47.02977,501.46,515.84
47.05065,495.57,516.07
47.07037,493.18,518.70
47.09003,492.80,516.86
47.11176,488.78,519.15
47.13065,486.69,519.69
47.15140,487.18,520.05
47.17025,484.51,520.82
47.19034,484.27,520.40
47.21002,480.51,519.88
47.23052,480.53,523.56
47.25083,479.90,521.11
47.27113,482.35,520.17
47.29046,482.20,522.78
47.30991,478.05,521.26
47.33152,478.69,519.41
47.35075,479.24,522.02
47.37143,476.15,521.78
47.39110,475.43,524.13
47.41066,477.69,521.23
47.42966,475.98,524.01
47.45084,472.26,524.98
47.47148,463.30,530.44
47.49083,451.74,532.94
47.51064,433.38,531.43
47.53119,410.69,527.25
47.54982,384.59,523.27
47.56991,358.79,511.79
47.59094,338.21,504.98
47.61021,322.78,494.19
47.62992,317.11,488.96
47.65006,316.48,487.83
47.67000,323.76,486.17
47.69054,331.20,489.13
47.71140,344.84,489.35
47.73078,355.64,489.23
47.75108,369.01,492.01
47.77077,379.67,492.10
47.78987,388.70,498.65
47.81116,401.85,498.81
47.83093,411.12,502.61
47.85126,419.32,505.23
47.87103,424.90,508.77
47.89109,432.22,507.36
47.91153,435.37,508.92
47.93159,440.89,512.85
47.95243,444.23,513.24
47.97173,451.24,512.02
47.99232,456.17,512.10
48.01351,457.81,514.57
48.03221,462.03,514.51
48.05352,461.78,513.37
48.07357,464.26,513.14
48.09244,466.59,513.83
48.11277,467.57,514.83
48.13316,470.88,514.40
48.15367,470.07,514.93
48.17190,469.01,515.33
48.19182,469.77,517.89
48.21298,471.75,516.47
48.23274,472.33,517.74
48.25226,472.41,515.87
48.27315,471.59,516.24
48.29250,474.05,515.96
48.31241,471.89,514.80
48.33234,475.21,516.77
48.35230,476.79,515.87
48.37248,474.34,517.59
48.39198,473.90,516.06
48.41296,478.58,515.63
48.43216,475.93,516.27
48.45258,476.32,515.79
48.47297,478.66,514.84
48.49200,478.41,515.77
48.51360,476.18,517.99
48.53324,479.27,516.22
48.55321,479.85,517.22
48.57342,479.13,517.06
48.59183,481.20,517.05
48.61295,478.17,515.42
48.63251,479.41,514.97
48.65215,477.84,515.24
48.67328,476.79,515.55
48.69380,479.94,516.83
48.71200,478.49,518.55
48.73260,477.83,517.75
48.75197,478.34,514.72
48.77206,474.64,516.03
48.79177,475.38,514.53
48.81367,478.29,516.00
48.83201,474.49,516.23
48.85299,476.45,514.49
48.87210,475.18,515.93
48.89197,474.06,516.59
48.91353,477.33,517.27
48.93230,473.42,515.45
48.95300,474.12,516.98
48.97181,477.59,516.01
48.99359,478.51,516.05
49.01341,479.58,518.23
49.03290,477.97,517.87
49.05198,476.49,518.59
49.07306,479.53,519.42
49.09296,478.34,519.86
49.11214,477.74,519.67
49.13259,477.98,518.81
49.15209,476.35,516.66
49.17303,478.02,518.28
49.19213,474.83,518.14
49.21298,475.65,519.42
49.23267,474.00,517.31
49.25291,475.43,518.26
49.27315,478.39,524.23
49.29232,477.53,536.03
49.31344,475.85,550.60
49.33352,474.26,574.28
49.35342,470.47,588.48
49.37273,465.31,595.48
49.39175,456.63,581.66
49.41195,446.69,559.44
49.43292,443.16,537.29
49.45172,440.88,512.98
49.47223,443.32,494.65
49.49309,445.31,480.04
49.51177,445.70,468.83
49.53220,449.97,467.02
49.55308,456.10,478.77
49.57282,455.89,502.54
49.59339,465.80,552.91
49.61209,473.95,601.74
49.63223,482.10,648.90
49.65219,489.39,680.64
49.67339,498.71,702.10
49.69164,505.26,709.92
49.71358,507.37,710.43
49.73247,507.50,696.39
49.75182,507.30,674.69
49.77195,502.14,647.54
49.79277,496.53,622.39
49.81266,492.67,597.21
49.83193,486.50,577.16
49.85207,486.05,557.81
49.87337,483.68,537.22
49.89248,482.20,529.06
49.91281,479.62,514.16
49.93211,479.41,506.63
49.95190,481.27,496.05
49.97171,480.46,496.58
49.99239,481.22,492.38
50.01251,479.39,486.69
50.03177,477.24,493.05
50.05319,478.38,497.21
50.07313,480.01,523.96
50.09282,488.05,560.95
50.11198,499.29,587.18
50.13327,505.27,598.92
50.15342,507.95,614.72
50.17372,505.88,606.91
50.19265,504.49,595.78
50.21232,500.55,576.15
50.23245,495.57,548.58
50.25240,487.09,516.51
50.27358,483.87,487.28
