Program Time [s],data 0,data 1
10.56329,445.90,508.93
10.58328,449.00,512.82
10.60344,447.16,510.32
10.62371,444.49,512.00
10.64242,446.44,509.00
10.66528,444.63,508.80
10.68424,444.81,508.44
10.70402,446.42,508.78
10.72378,443.35,507.54
10.74366,442.79,508.51
10.76374,442.98,505.26
10.78354,440.10,504.88
10.80359,440.54,506.02
10.82327,438.97,507.13
10.84465,441.67,503.75
10.86330,441.55,505.01
10.88428,440.54,506.91
10.90467,441.86,507.72
10.92333,443.05,508.45
10.94420,444.00,511.31
10.96495,441.42,511.48
10.98529,443.72,513.70
11.00479,439.61,514.00
11.02521,441.88,512.52
11.04484,439.10,513.67
11.06367,440.28,512.31
11.08490,442.89,513.10
11.10439,440.08,513.72
11.12418,440.94,511.89
11.14473,439.16,514.79
11.16359,442.39,513.31
11.18490,440.38,511.88
11.20451,441.16,513.00
11.22322,443.17,514.62
11.24451,440.41,512.27
11.26331,442.47,515.45
11.28479,442.58,513.70
11.30504,442.59,515.36
11.32499,440.48,513.90
11.34452,440.40,519.27
11.36465,442.11,529.20
11.38605,449.47,551.04
11.40614,451.13,582.99
11.42514,452.89,614.92
11.44522,457.52,633.33
11.46458,454.50,632.54
11.48586,454.05,615.00
11.50602,448.61,593.52
11.52681,447.15,566.82
11.54603,444.98,543.90
11.56641,439.09,519.31
11.58542,438.75,503.11
11.60577,440.18,489.63
11.62581,437.61,479.58
11.64554,435.36,476.24
11.66634,434.94,471.39
11.68691,437.88,471.13
11.70673,439.94,469.71
11.72688,437.48,470.66
11.74544,438.55,475.56
11.76556,440.33,487.10
11.78683,443.95,505.73
11.80693,444.32,532.47
11.82655,454.22,567.88
11.84664,459.14,606.40
11.86645,463.66,637.41
11.88530,464.27,657.88
11.90636,461.81,670.50
11.92604,462.28,674.75
11.94676,461.44,670.21
11.96690,454.58,653.56
11.98627,450.72,624.81
12.00575,445.08,587.43
12.02612,441.15,552.08
12.04520,438.39,520.75
12.06607,430.88,493.76
12.08680,430.17,473.13
12.10588,429.74,455.23
12.12613,428.23,442.81
12.14728,426.56,435.10
12.16619,424.11,430.68
12.18706,424.05,426.61
12.20586,427.05,429.14
12.22716,425.80,429.71
12.24582,426.63,430.88
12.26680,429.44,438.00
12.28679,431.53,439.65
12.30574,433.95,445.93
12.32680,433.67,450.26
12.34652,433.26,459.16
12.36560,436.99,462.92
12.38578,436.93,470.05
12.40598,436.25,475.43
12.42693,438.73,476.91
12.44610,438.56,482.32
12.46536,439.12,486.15
12.48683,439.45,490.80
12.50671,437.59,496.95
12.52628,440.42,500.55
12.54550,437.91,505.45
12.56587,440.22,505.36
12.58583,440.37,508.79
12.60557,441.12,512.21
12.62568,443.63,512.97
12.64682,443.72,512.66
12.66586,444.42,515.20
12.68593,442.24,516.68
12.70609,443.40,515.51
12.72580,439.98,516.82
12.74561,443.29,514.65
12.76546,442.64,516.91
12.78585,440.04,515.60
12.80646,440.49,516.09
12.82543,440.86,515.30
12.84662,443.89,518.08
12.86584,445.09,519.68
12.88621,442.31,517.56
12.90686,442.66,519.75
12.92596,443.32,517.70
12.94593,444.45,519.21
12.96589,443.85,520.53
12.98603,442.08,518.23
13.00630,440.68,521.86
13.02606,442.47,520.01
13.04581,441.35,521.81
13.06568,440.95,521.76
13.08564,442.59,522.68
13.10669,440.73,522.51
13.12595,439.09,520.90
13.14679,439.87,520.78
13.16514,442.07,522.18
13.18581,439.56,521.45
13.20648,440.25,526.02
13.22622,439.20,525.28
13.24566,439.95,524.68
13.26657,442.66,523.50
13.28633,442.93,523.57
13.30719,444.31,521.58
13.32528,443.69,520.95
13.34598,445.40,522.39
13.36530,446.96,519.20
13.38561,445.64,519.11
13.40714,443.05,517.20
13.42531,446.34,519.42
13.44667,444.13,519.16
13.46657,445.79,516.97
13.48595,444.92,520.04
13.50678,443.21,520.02
13.52544,445.28,518.60
13.54567,443.08,519.16
13.56570,443.98,518.85
13.58596,442.57,519.56
13.60666,443.13,518.96
13.62677,446.40,515.81
13.64600,447.19,516.43
13.66567,444.97,517.12
13.68654,447.50,516.17
13.70688,446.35,518.36
13.72781,445.89,517.57
13.74778,445.70,518.46
13.76779,447.46,515.92
13.78640,446.16,518.52
13.80784,444.73,519.89
13.82808,453.49,522.70
13.84810,469.44,531.34
13.86731,496.08,540.52
13.88727,526.21,546.48
13.90782,551.18,546.93
13.92825,571.83,546.95
13.94874,580.07,543.39
13.96895,584.18,537.21
13.98883,579.96,529.02
14.00739,577.23,520.69
14.02776,569.71,514.35
14.04858,559.96,510.55
14.06754,551.94,507.81
14.08899,544.89,505.36
14.10807,535.07,505.43
14.12772,527.12,501.96
14.14767,518.37,503.57
14.16804,510.71,502.42
14.18748,500.41,502.49
14.20841,493.97,503.65
14.22821,488.55,503.88
14.24895,484.02,506.35
14.26790,479.59,505.83
14.28762,474.53,506.17
14.30781,470.06,510.24
14.32857,469.27,509.87
14.34836,465.21,512.77
14.36840,459.03,513.60
14.38963,458.42,513.77
14.40828,457.72,513.52
14.42851,457.32,512.46
14.44905,456.99,513.56
14.46893,451.99,514.10
14.48949,453.87,514.94
14.50916,450.39,518.57
14.52873,452.08,516.66
14.54872,450.30,517.14
14.56984,449.02,515.15
14.58866,449.09,517.30
14.60869,447.92,514.72
14.62850,446.95,514.65
14.64939,446.83,516.69
14.66844,448.12,515.29
14.68984,446.87,516.14
14.70958,449.12,513.31
14.72906,446.33,515.39
14.75025,445.68,513.25
14.77015,445.04,516.46
14.79018,447.76,513.24
14.80960,446.80,513.55
14.82827,446.97,515.06
14.84824,446.66,518.37
14.86933,445.37,529.30
14.89002,438.49,547.11
14.91029,426.34,571.28
14.92943,408.71,592.04
14.94974,391.08,601.66
14.97064,363.99,600.20
14.99123,338.01,582.79
15.01052,312.72,552.98
15.03109,290.78,522.44
15.05066,279.13,495.86
15.07090,276.83,476.22
15.09081,281.86,460.63
15.11095,290.94,455.22
15.13064,301.68,449.65
15.14954,314.51,446.98
15.17150,326.01,446.68
15.19099,338.69,450.66
15.21210,349.97,451.58
15.23103,363.20,455.81
15.25200,374.28,459.84
15.27166,382.06,465.10
15.29180,388.79,470.28
15.31152,398.26,473.91
15.33076,404.87,476.17
15.35063,408.20,481.00
15.37169,412.80,482.42
15.39182,416.60,487.37
15.41128,424.24,490.84
15.43146,426.58,490.35
15.45062,430.49,495.13
15.47021,432.51,497.62
15.49043,432.33,497.50
15.51055,438.45,500.41
15.53205,439.09,502.85
15.55115,440.96,503.52
15.57068,438.88,502.95
15.59110,440.39,503.28
15.61085,441.93,505.38
15.63110,442.68,504.18
15.65218,444.73,502.70
15.67142,444.27,505.44
15.69008,444.76,503.58
15.71200,446.24,504.21
15.73020,447.51,504.88
15.75179,446.45,504.66
15.77116,448.02,501.05
15.79109,445.91,503.49
15.81061,448.34,502.28
15.83128,448.98,501.91
15.85200,449.91,502.32
15.87016,450.33,503.90
15.89161,447.09,500.69
15.91251,449.50,500.28
15.93124,447.84,502.10
15.95293,446.75,502.06
15.97309,444.66,504.65
15.99227,445.52,504.11
16.01155,446.94,505.71
16.03250,443.63,503.38
16.05280,445.83,504.48
16.07180,443.80,503.59
16.09212,442.46,506.40
16.11273,443.22,505.45
16.13203,444.49,504.05
16.15317,446.42,505.91
16.17208,446.32,504.89
16.19155,447.88,505.61
16.21292,446.37,505.68
16.23256,446.61,502.01
16.25146,447.39,501.76
16.27166,446.69,505.47
16.29175,446.72,502.38
16.31185,447.66,504.39
16.33110,448.74,503.38
16.35120,447.72,502.98
16.37203,447.43,506.41
16.39120,446.53,504.58
16.41205,448.10,507.08
16.43289,444.89,505.39
16.45364,444.82,504.85
16.47389,444.85,506.59
16.49398,445.35,505.20
16.51336,445.30,507.07
16.53398,447.20,504.82
16.55386,445.19,505.52
16.57296,444.63,505.17
16.59332,446.75,507.01
16.61335,446.66,506.94
16.63359,443.69,504.53
16.65364,444.27,506.97
16.67385,445.90,505.91
16.69388,444.93,505.84
16.71457,446.79,505.28
16.73379,446.41,504.62
16.75488,446.18,505.80
16.77416,446.42,503.29
16.79451,447.52,507.15
16.81444,446.83,505.44
16.83350,444.69,505.23
16.85386,444.53,503.29
16.87373,445.91,504.50
16.89505,446.21,506.87
16.91423,448.19,507.34
16.93309,445.20,504.33
16.95449,448.71,504.64
16.97307,448.34,504.97
16.99300,446.70,506.74
17.01404,448.75,507.53
17.03384,447.04,506.59
17.05509,446.46,506.31
17.07491,445.31,503.31
17.09432,443.73,502.75
17.11529,443.68,504.00
17.13487,445.45,506.99
17.15421,443.76,505.35
17.17557,444.60,506.32
17.19610,445.17,504.82
17.21566,444.25,505.08
17.23586,444.97,508.06
17.25630,443.83,505.43
17.27733,445.11,506.76
17.29713,444.02,507.19
17.31973,444.81,507.58
17.34094,444.11,507.57
17.36139,441.26,509.78
17.38112,441.82,512.27
17.40089,442.37,510.92
17.42176,443.30,511.86
17.44199,440.02,513.71
17.46382,442.03,514.19
17.48367,442.91,516.87
17.50394,443.34,513.93
17.52526,442.88,514.99
17.54498,443.75,512.56
17.56669,443.62,512.02
17.58675,444.54,511.98
17.60665,443.78,508.03
17.62558,445.97,510.74
17.64515,444.30,512.14
17.66648,450.35,514.45
17.68649,470.71,521.61
17.70527,492.56,534.20
17.72561,521.31,545.06
17.74552,550.48,550.15
17.76705,574.15,552.90
17.78563,591.92,552.97
17.80633,600.16,549.62
17.82493,606.60,545.43
17.84624,606.01,538.39
17.86677,603.58,531.22
17.88496,596.04,522.96
17.90709,586.43,517.97
17.92509,575.11,511.65
17.94505,563.05,508.65
17.96565,555.17,505.62
17.98656,539.78,507.25
18.00622,531.92,505.79
18.02567,520.94,502.13
18.04560,511.45,501.41
18.06696,503.50,503.85
18.08569,494.27,504.56
18.10669,490.47,505.21
18.12513,484.17,508.59
18.14648,479.63,505.03
18.16700,474.26,507.07
18.18556,468.27,506.79
18.20551,463.79,508.65
18.22562,464.01,506.93
18.24593,458.65,506.92
18.26528,457.29,508.88
18.28562,455.86,509.25
18.30512,454.90,509.63
18.32642,454.40,509.36
18.34561,453.11,510.10
18.36551,450.88,508.13
18.38663,450.24,510.25
18.40687,450.55,508.15
18.42602,452.04,507.95
18.44562,447.57,508.75
18.46532,448.48,509.40
18.48592,448.09,509.54
18.50721,447.57,509.15
18.52703,448.97,511.25
18.54696,444.25,510.51
18.56639,444.30,513.28
18.58601,441.27,514.38
18.60559,439.83,515.39
18.62645,442.61,515.83
18.64555,444.89,515.87
18.66647,443.09,514.97
18.68676,442.32,509.95
18.70598,444.83,509.55
18.72645,445.06,509.05
18.74566,446.13,507.22
18.76688,448.69,508.47
18.78720,448.06,505.46
18.80718,447.81,510.65
18.82602,440.33,518.13
18.84559,434.25,528.98
18.86610,416.21,536.22
18.88554,393.56,539.19
18.90685,367.48,532.10
18.92695,339.94,518.24
18.94655,318.09,504.89
18.96643,298.74,488.43
18.98612,286.22,477.17
19.00537,284.79,468.81
19.02523,288.68,461.21
19.04532,296.71,460.57
19.06664,306.49,456.20
19.08569,317.26,459.97
19.10605,331.98,460.97
19.12563,341.71,461.67
19.14658,351.53,467.42
19.16610,365.11,470.59
19.18604,373.68,472.62
19.20529,382.18,475.74
19.22613,391.38,478.10
19.24501,395.69,483.04
19.26644,404.73,485.05
19.28589,408.84,484.54
19.30638,415.25,488.82
19.32621,420.28,488.60
19.34664,422.35,493.53
19.36548,427.13,495.12
19.38578,425.16,498.69
19.40687,428.68,500.49
19.42567,431.10,501.50
19.44656,432.61,500.48
19.46705,433.57,502.14
19.48517,435.30,503.92
19.50606,434.75,504.41
19.52688,436.01,502.52
19.54662,439.85,505.60
19.56699,438.16,503.79
19.58560,438.53,504.44
19.60515,439.35,504.80
19.62585,441.41,503.01
19.64657,441.27,502.05
19.66661,442.33,503.66
19.68616,443.43,507.41
19.70646,440.51,508.14
19.72519,441.10,505.95
19.74637,443.85,505.60
19.76634,445.41,505.06
19.78700,442.80,504.08
19.80695,448.24,503.72
19.82580,448.87,504.62
19.84602,446.63,504.31
19.86591,448.73,503.21
19.88554,448.60,504.79
19.90617,446.96,503.34
19.92534,446.29,504.32
19.94555,445.94,503.60
19.96596,446.27,501.23
19.98523,446.82,501.53
20.00644,444.90,506.16
20.02601,443.91,503.38
20.04561,448.01,505.06
20.06613,445.91,504.18
20.08492,449.43,504.53
20.10608,447.40,502.32
20.12551,449.57,503.07
20.14538,446.67,501.90
20.16624,445.40,502.42
20.18525,447.77,502.15
20.20545,446.66,504.32
20.22679,443.93,503.17
20.24612,444.85,502.89
20.26690,444.57,501.51
20.28658,445.62,505.37
20.30572,447.57,502.47
20.32541,447.82,503.83
20.34667,448.09,501.49
20.36576,449.66,505.28
20.38671,449.93,503.36
20.40629,450.05,505.34
20.42686,447.29,502.58
20.44654,446.93,503.65
20.46531,444.33,503.15
20.48641,442.68,505.07
20.50661,442.77,502.68
20.52569,443.18,503.49
20.54682,443.94,502.36
20.56625,442.67,502.67
20.58772,445.03,501.30
20.60698,443.06,504.34
20.62717,444.19,501.67
20.64632,444.77,503.57
20.66762,446.37,503.30
20.68725,447.19,506.61
20.70684,445.09,506.68
20.72702,445.86,503.51
20.74719,446.50,506.57
20.76760,446.81,505.15
20.78801,444.34,505.77
20.80659,445.28,504.68
20.82641,444.99,504.93
20.84784,446.22,506.27
20.86759,446.10,505.59
20.88755,446.56,504.37
20.90742,444.82,504.28
20.92802,446.59,504.97
20.94854,446.13,506.36
20.96800,445.82,504.16
20.98789,445.70,506.99
21.00806,447.18,507.91
21.02788,445.67,507.86
21.04813,446.17,504.92
21.06805,446.79,506.78
21.08857,446.10,507.42
21.10877,443.94,507.93
21.12812,442.91,504.92
21.14891,443.96,505.72
21.16925,446.14,508.07
21.19027,442.39,508.64
21.21137,445.60,504.90
21.23238,443.34,508.86
21.25272,442.96,509.32
21.27187,444.65,507.17
21.29285,446.07,510.31
21.31377,458.33,516.12
21.33212,484.42,525.11
21.35216,512.20,536.45
21.37356,540.55,542.77
21.39378,565.15,545.11
21.41373,583.44,545.77
21.43376,596.73,542.06
21.45276,600.53,537.15
21.47368,601.85,534.31
21.49299,598.20,529.03
21.51286,590.90,523.93
21.53233,582.76,516.74
21.55325,571.83,514.27
21.57365,561.06,511.19
21.59334,551.64,508.36
21.61389,542.51,508.56
21.63352,530.09,508.65
21.65339,517.02,510.59
21.67342,508.63,507.98
21.69308,499.93,510.58
21.71257,492.82,512.37
21.73251,486.34,513.11
21.75303,480.74,511.73
21.77418,474.95,511.28
21.79519,467.52,512.19
21.81535,465.37,511.50
21.83507,461.88,515.09
21.85584,457.34,515.79
21.87668,455.21,515.56
21.89571,453.28,517.02
21.91650,452.33,514.69
21.93634,448.83,515.69
21.95700,450.18,515.64
21.97877,447.33,516.12
21.99868,446.68,517.12
22.01776,446.54,515.94
22.03830,449.63,517.87
22.05741,446.59,517.31
22.07825,447.91,520.77
22.09766,445.10,518.21
22.11788,445.26,518.73
22.13868,445.34,521.10
22.15735,443.22,518.04
22.17873,443.40,518.02
22.19693,445.73,520.39
22.21699,442.55,519.17
22.23927,438.27,516.60
22.25827,427.10,513.05
22.27894,408.58,508.38
22.30090,382.87,499.08
22.32162,354.57,490.47
22.34027,329.88,483.37
22.36070,303.00,478.42
22.38070,282.21,475.82
22.40053,272.86,474.06
22.42150,272.62,475.64
22.44050,277.82,474.86
22.46171,286.56,476.67
22.48095,298.21,479.35
22.50160,312.69,483.27
22.52004,324.00,487.66
22.54133,336.54,489.23
22.56051,349.69,492.82
22.57987,360.90,492.79
22.60113,372.32,495.29
22.62066,381.80,498.05
22.64118,391.45,503.35
22.66003,398.49,504.92
22.68016,408.70,505.45
22.70035,416.40,504.45
22.71992,421.73,508.42
22.74161,425.22,506.87
22.76086,426.80,507.18
22.78094,432.20,507.98
22.80071,432.41,506.73
22.82172,434.69,508.06
22.84097,434.86,510.06
22.86091,439.93,509.36
22.88045,438.05,508.70
22.90017,439.77,509.42
22.92133,439.89,508.83
22.94149,440.84,510.78
22.96128,444.38,508.18
22.98012,442.62,509.26
23.00143,443.46,509.40
23.02026,443.42,511.46
23.04115,446.48,510.69
23.06045,446.48,508.46
23.08024,443.12,508.34
23.10161,443.05,510.01
23.12023,446.00,506.67
23.14181,444.34,508.41
23.16048,443.65,508.19
23.18079,445.31,505.92
23.20076,445.86,505.55
23.22121,446.10,507.17
23.24013,445.82,508.53
23.26142,443.80,507.19
23.28101,443.80,508.77
23.30022,443.26,507.99
23.32066,444.83,505.93
23.34028,444.59,509.40
23.36049,443.40,509.62
23.38034,444.23,507.67
23.40147,443.44,508.27
23.42151,446.69,507.31
23.44159,444.48,508.43
23.46016,445.90,509.27
23.48089,444.77,509.74
23.50018,446.37,508.40
23.52097,446.74,509.17
23.54096,444.93,506.42
23.56062,447.20,506.45
23.58129,445.81,507.17
23.60126,447.81,508.28
23.62045,447.43,507.37
23.64084,450.04,506.31
23.66043,447.97,508.18
23.68049,449.71,506.16
23.70003,447.63,509.70
23.72091,448.36,506.97
23.74077,449.89,506.58
23.76181,446.77,507.67
23.78078,447.31,509.19
23.80159,444.77,509.49
23.82159,445.94,505.98
23.83981,444.54,509.93
23.86093,444.16,508.70
23.88088,446.96,509.63
23.89988,448.27,506.57
23.92072,448.01,507.82
23.93992,446.66,509.17
23.96152,447.91,507.76
23.98099,445.82,507.06
24.00176,446.21,508.27
24.02085,444.91,507.92
24.04125,444.72,507.27
24.06172,446.55,506.25
24.08127,444.04,506.10
24.10113,445.91,505.35
24.12160,446.38,505.96
24.14125,445.90,505.99
24.16096,446.45,505.81
24.18026,447.05,505.80
24.20013,446.46,507.58
24.22091,446.67,506.62
24.24155,448.50,506.00
24.25997,447.57,506.97
24.27989,445.49,504.72
24.30152,444.72,503.56
24.32117,447.41,503.51
24.34176,448.65,505.65
24.36144,447.32,502.51
24.38093,444.08,501.08
24.39997,444.19,502.21
24.42053,444.03,501.83
24.44173,445.83,500.84
24.46025,449.92,504.56
24.48052,459.22,507.37
24.50054,485.13,514.47
24.52178,509.15,518.26
24.54146,536.34,520.34
24.56088,557.79,522.83
24.58127,577.48,522.22
24.60123,587.75,521.36
24.62065,594.91,521.44
24.64148,600.02,519.37
24.66066,598.03,520.65
24.67987,589.97,515.85
24.70027,582.42,513.87
24.71999,574.62,509.89
24.74020,567.20,510.96
24.76139,554.12,506.51
24.78103,547.33,506.32
24.79993,534.49,504.23
24.82149,527.35,504.20
24.84120,514.85,506.39
24.86156,505.29,503.78
24.88038,499.82,505.22
24.90091,494.87,506.54
24.92094,487.83,505.49
24.94078,480.15,505.73
24.96071,476.76,507.21
24.98150,471.17,504.76
25.00143,469.41,506.76
25.02058,467.10,505.26
25.04155,464.51,509.00
25.06019,461.02,507.09
25.07991,457.61,507.82
25.10001,455.01,505.02
25.12130,456.71,509.27
25.14104,454.06,506.14
25.16016,453.22,507.56
25.18097,451.94,504.83
25.19990,450.51,506.86
25.22027,449.46,505.33
25.24085,449.28,503.78
25.26138,450.54,506.78
25.28135,447.47,505.73
25.30168,447.02,504.22
25.32172,444.57,504.49
25.34161,445.72,501.49
25.36192,447.17,503.32
25.38078,448.67,502.23
25.40021,448.72,502.92
25.42072,446.25,505.27
25.44131,446.27,504.00
25.46010,443.51,504.49
25.48162,439.10,514.58
25.50169,425.36,519.50
25.52017,405.96,523.91
25.54080,381.99,519.14
25.56108,354.86,511.91
25.58049,327.08,505.60
25.60154,304.30,495.40
25.62156,285.25,483.87
25.64082,282.24,477.38
25.66105,280.28,474.02
25.68025,287.93,471.41
25.70002,295.53,471.23
25.71990,307.84,469.59
25.74153,319.04,471.32
25.76061,335.03,472.18
25.78087,346.13,474.98
25.80105,358.83,477.92
25.82148,368.12,481.01
25.84128,379.34,486.96
25.86157,389.78,487.87
25.88116,396.76,490.92
25.90197,400.25,493.17
25.92051,407.41,492.11
25.94117,413.15,494.11
25.96004,420.34,494.31
25.98098,423.54,499.52
26.00125,424.67,500.01
26.01998,428.21,502.21
26.04028,430.74,503.03
26.06200,435.94,505.50
26.07995,435.43,506.99
26.10108,440.24,508.01
26.12034,440.98,505.53
26.14161,441.09,506.28
26.16183,442.73,507.31
26.18157,442.92,506.03
26.20232,444.96,506.66
26.22263,442.66,504.97
26.24129,445.91,502.62
26.26280,445.62,504.50
26.28289,445.05,504.99
26.30284,445.38,503.45
26.32299,443.82,505.19
26.34238,445.50,504.87
26.36169,444.30,506.79
26.38209,445.38,506.13
26.40181,447.47,504.25
26.42240,447.14,503.06
26.44124,448.47,506.06
26.46211,446.42,506.37
26.48176,446.77,506.45
26.50131,448.41,504.72
26.52265,446.17,505.72
26.54170,445.77,507.38
26.56133,446.62,504.71
26.58148,444.22,503.49
26.60241,445.81,503.50
26.62206,448.57,506.46
26.64210,449.05,504.00
26.66178,446.05,504.23
26.68266,448.18,504.12
26.70444,447.50,504.55
26.72514,448.23,506.11
26.74486,448.16,507.29
26.76449,447.51,507.56
26.78479,446.84,508.42
26.80446,445.63,509.22
26.82525,447.55,507.54
26.84410,445.86,508.18
26.86407,444.53,510.36
26.88495,444.70,508.32
26.90463,444.23,510.91
26.92546,443.66,508.40
26.94540,444.56,510.67
26.96480,444.61,508.72
26.98457,443.18,510.06
27.00529,445.16,507.06
27.02420,443.99,507.25
27.04477,445.21,506.63
27.06520,444.40,508.77
27.08471,446.22,507.90
27.10381,443.73,507.40
27.12421,445.61,505.36
27.14456,446.30,508.47
27.16469,447.36,508.76
27.18380,446.92,509.32
27.20499,446.69,508.58
27.22410,443.90,509.05
27.24388,443.25,509.19
27.26546,443.52,508.30
27.28529,445.46,506.91
27.30419,444.28,509.68
27.32576,444.82,508.24
27.34402,445.34,508.58
27.36539,445.81,510.72
27.38530,444.41,508.72
27.40484,445.90,510.48
27.42477,445.45,509.84
27.44568,446.48,511.29
27.46417,444.01,509.25
27.48428,446.77,509.30
27.50537,445.99,509.71
27.52480,445.96,510.56
27.54421,444.22,512.05
27.56557,443.16,508.95
27.58524,442.95,508.07
27.60546,444.55,511.37
27.62571,443.71,508.09
27.64395,444.44,509.93
27.66396,443.94,510.09
27.68564,447.49,508.94
27.70580,444.27,509.33
27.72534,443.72,508.60
27.74380,445.84,507.47
27.76396,445.78,509.59
27.78517,445.67,508.91
27.80438,448.38,508.66
27.82413,445.54,507.60
27.84507,446.49,505.45
27.86537,446.78,505.94
27.88505,446.10,507.81
27.90409,444.56,507.98
27.92577,444.77,506.73
27.94577,442.72,508.53
27.96479,442.92,505.49
27.98419,441.41,507.03
28.00590,443.32,510.02
28.02469,442.68,509.88
28.04437,445.17,507.87
28.06577,444.37,509.00
28.08537,442.09,510.38
28.10532,444.36,509.73
28.12461,450.78,510.40
28.14433,467.66,515.26
28.16513,488.97,525.94
28.18407,516.15,533.81
28.20565,543.96,542.31
28.22483,568.98,549.60
28.24509,585.92,551.27
28.26568,596.58,552.32
28.28578,601.51,545.44
28.30472,600.20,539.58
28.32465,598.67,533.35
28.34469,591.37,527.60
28.36479,582.62,517.98
28.38594,571.50,513.25
28.40562,561.65,505.41
28.42449,550.35,503.54
28.44526,537.68,502.42
28.46530,525.62,497.93
28.48503,516.10,498.49
28.50418,508.84,498.09
28.52575,500.32,496.32
28.54439,492.89,499.25
28.56498,486.68,499.85
28.58523,481.11,498.76
28.60529,474.17,502.51
28.62597,469.90,499.85
28.64437,464.58,501.13
28.66479,464.82,502.87
28.68584,460.87,504.03
28.70401,456.14,503.51
28.72506,455.75,506.25
28.74429,454.85,506.25
28.76499,451.02,508.12
28.78440,448.61,507.53
28.80580,447.82,505.90
28.82563,445.75,507.97
28.84428,446.78,509.08
28.86403,444.42,505.63
28.88555,442.74,509.16
28.90579,441.40,506.82
28.92437,442.71,509.08
28.94429,439.51,509.52
28.96585,441.04,511.26
28.98499,441.86,510.36
29.00406,442.98,511.14
29.02495,442.65,510.58
29.04479,433.70,506.94
29.06578,423.33,505.05
29.08443,399.63,502.78
29.10487,373.48,498.47
29.12525,344.51,496.34
29.14384,320.41,493.67
29.16504,297.54,488.54
29.18389,283.22,488.62
29.20413,276.82,489.49
29.22388,281.07,486.83
29.24476,288.00,487.93
29.26561,298.33,490.94
29.28443,312.42,492.70
29.30583,321.90,492.99
29.32560,336.34,496.74
29.34452,349.33,499.00
29.36399,359.50,499.61
29.38473,371.24,500.72
29.40432,379.58,505.17
29.42384,389.91,505.65
29.44468,393.63,505.93
29.46494,401.96,508.61
29.48413,406.15,506.56
29.50561,412.35,506.21
29.52417,416.78,505.20
29.54518,422.14,509.03
29.56596,422.72,507.09
29.58747,425.11,510.50
29.60612,427.25,510.48
29.62707,431.06,511.81
29.64723,433.51,513.40
29.66608,431.02,511.66
29.68618,434.04,512.73
29.70680,435.03,513.29
29.72677,436.22,513.07
29.74636,434.62,511.65
29.76787,435.84,513.54
29.78630,438.23,513.34
29.80682,436.87,514.46
29.82650,437.54,515.29
29.84773,436.35,514.48
29.86754,437.15,514.27
29.88701,438.88,514.78
29.90607,438.63,513.61
29.92685,438.88,513.58
29.94689,441.70,514.76
29.96604,439.22,513.57
29.98659,438.14,513.54
30.00722,441.48,512.66
30.02705,441.84,511.51
30.04689,441.49,511.67
30.06731,442.27,512.36
30.08691,441.35,514.97
30.10872,440.35,514.54
30.12792,438.79,514.24
30.14866,439.36,512.20
30.16907,439.25,512.59
30.18828,439.61,513.96
30.20838,440.85,516.50
30.22958,440.21,514.90
30.24827,440.32,515.76
30.26881,439.80,515.28
30.28819,441.10,515.71
30.30887,442.04,514.82
30.32833,439.53,513.69
30.34955,440.73,513.84
30.36799,438.59,513.07
30.38921,437.75,515.61
30.40877,438.33,515.74
30.42956,439.97,517.50
30.44974,438.45,518.00
30.46897,439.72,515.52
30.48936,438.93,517.54
30.50831,439.58,515.60
30.52790,440.93,517.80
30.54982,439.64,517.99
30.56891,441.33,515.62
30.58933,439.74,515.02
30.60822,441.31,513.96
30.62898,440.67,516.74
30.64960,440.49,513.24
30.66795,442.28,516.50
30.68860,442.71,516.58
30.70781,442.64,514.63
30.72883,442.10,513.11
30.74810,442.95,513.50
30.76931,439.55,516.83
30.78863,442.80,516.23
30.80925,442.63,513.82
30.82806,440.69,514.60
30.84791,440.24,515.64
30.86887,440.06,515.36
30.88824,441.15,512.96
30.90892,441.44,515.09
30.92859,439.89,514.88
30.94937,439.23,514.02
30.96912,439.25,513.20
30.98882,438.88,513.73
31.00830,438.30,513.28
31.02917,440.47,514.53
31.04880,439.79,516.67
31.06771,440.82,516.56
31.08895,441.48,517.66
31.10797,441.21,516.42
31.12932,440.72,518.20
31.14952,440.94,517.10
31.16776,441.23,517.66
31.18954,440.06,517.41
31.20919,438.87,514.18
31.22881,439.90,514.74
31.24787,442.19,517.33
31.26865,441.56,517.79
31.28950,443.18,519.33
31.30873,442.15,517.59
31.32812,443.62,519.60
31.34920,440.26,520.98
31.36831,442.47,518.93
31.39012,442.66,518.33
31.41001,442.79,516.88
31.43157,441.77,518.68
31.45073,441.00,517.79
31.47082,441.45,517.65
31.49214,441.85,519.55
31.51321,444.79,518.23
31.53171,444.47,517.28
31.55461,441.75,517.00
31.57437,444.16,515.98
31.59408,442.49,514.08
31.61546,444.44,515.43
31.63515,453.03,517.87
31.65457,475.47,521.72
31.67464,503.24,527.32
31.69473,533.63,535.73
31.71548,560.04,544.22
31.73534,584.13,545.86
31.75561,599.31,543.47
31.77542,605.50,540.51
31.79495,605.91,539.83
31.81483,604.65,533.57
31.83481,595.95,526.26
31.85551,588.51,521.34
31.87536,576.81,514.40
31.89434,567.40,512.38
31.91535,556.73,509.46
31.93448,548.87,505.47
31.95508,537.69,503.28
31.97446,525.23,503.88
31.99495,517.72,499.92
32.01473,505.62,503.27
32.03443,499.10,499.63
32.05439,493.12,501.86
32.07440,485.99,503.72
32.09386,479.60,502.21
32.11519,473.76,502.02
32.13573,472.18,504.12
32.15463,465.19,505.00
32.17418,462.25,502.51
32.19469,462.28,502.79
32.21551,460.62,502.19
32.23572,456.61,502.58
32.25673,457.84,503.55
32.27663,457.38,502.18
32.29646,454.14,504.57
32.31500,453.64,504.31
32.33509,451.88,504.74
32.35494,452.80,503.09
32.37538,450.84,504.80
32.39674,449.52,505.14
32.41665,449.02,504.35
32.43672,451.80,504.73
32.45823,451.65,506.90
32.47805,451.70,505.80
32.49840,448.54,508.42
32.51782,451.16,507.43
32.53711,446.55,505.93
32.55835,443.49,507.88
32.57946,432.07,508.54
32.59970,412.03,512.37
32.61900,389.84,511.44
32.63997,365.34,508.40
32.66148,336.99,503.85
32.68103,310.65,496.71
32.69980,289.11,487.36
32.72121,274.40,479.21
32.74264,271.77,476.56
32.76122,273.53,478.77
32.78222,283.78,477.99
32.80223,294.93,479.07
32.82129,307.20,481.60
32.84261,319.78,484.04
32.86285,331.24,484.31
32.88243,345.88,488.75
32.90084,358.95,489.32
32.92263,369.41,491.76
32.94242,379.40,496.56
32.96266,385.87,497.40
32.98224,396.31,500.66
33.00209,400.58,499.03
33.02070,405.67,501.39
33.04270,411.32,504.48
33.06071,418.34,505.18
33.08187,423.10,506.41
33.10098,422.97,507.54
33.12179,425.32,504.35
33.14201,427.95,506.56
33.16192,428.17,507.96
33.18209,431.72,504.74
33.20449,432.19,508.35
33.22322,434.82,508.77
33.24347,433.34,507.07
33.26368,436.46,510.96
33.28311,433.90,509.22
33.30349,435.96,507.71
33.32350,438.48,509.25
33.34465,435.16,511.69
33.36425,435.07,510.71
33.38311,434.92,513.34
33.40390,438.54,511.77
33.42477,436.86,513.93
33.44392,435.93,512.81
33.46351,435.91,512.31
33.48362,436.46,513.37
33.50367,437.00,511.57
33.52443,436.97,513.80
33.54349,433.52,511.11
33.56345,437.79,514.43
33.58416,436.70,511.68
33.60466,435.48,513.96
33.62485,437.22,514.68
33.64455,437.83,510.90
33.66616,436.77,511.18
33.68747,438.86,514.51
33.70716,437.68,515.59
33.72765,440.85,513.88
33.74699,439.77,513.26
33.76877,441.98,514.77
33.78787,439.29,516.34
33.81008,442.07,517.73
33.83081,440.89,516.45
33.85019,443.25,514.85
33.86977,441.21,514.05
33.88989,445.12,517.05
33.90882,443.67,518.11
33.92964,445.67,516.71
33.94954,443.92,516.44
33.97027,442.92,517.08
33.99074,446.67,515.05
34.01004,445.11,518.77
34.02971,443.58,515.14
34.04976,446.97,515.12
34.06860,446.11,516.66
34.08958,445.59,515.23
34.10968,447.88,515.07
34.12954,446.00,517.45
34.14922,445.03,515.39
34.16892,444.94,516.91
34.19080,441.58,515.80
34.20968,444.15,514.79
34.22950,443.85,513.08
34.25065,444.46,513.19
34.27030,444.04,514.58
34.29046,441.45,514.90
34.31053,443.74,514.46
34.32887,444.58,514.36
34.35014,442.33,514.21
34.36949,444.05,513.90
34.38948,444.01,514.22
34.40919,443.64,513.54
34.42983,444.68,515.91
34.44991,442.86,513.53
34.47069,445.41,514.74
34.49068,445.28,514.34
34.50941,446.12,515.17
34.53001,444.76,515.88
34.54966,444.07,516.14
34.57049,444.90,516.63
34.58976,444.62,516.30
34.60933,443.78,514.35
34.63033,446.12,516.77
34.64990,446.59,515.76
34.67057,444.47,515.96
34.68895,443.27,514.56
34.71039,444.75,513.87
34.72986,445.69,515.09
34.74872,445.62,514.52
34.76991,447.93,511.83
34.79063,444.68,514.76
34.81053,445.18,511.89
34.82910,446.31,512.26
34.85018,446.35,511.86
34.86891,446.48,514.30
34.88882,443.75,510.04
34.91070,443.62,513.83
34.92920,444.91,512.47
34.95024,444.13,514.99
34.96992,446.49,511.05
34.99034,443.28,514.36
35.01057,444.41,511.73
35.03097,450.77,516.39
35.05090,467.39,520.08
35.07134,492.94,529.95
35.09160,520.02,535.60
35.10985,544.07,545.11
35.12961,565.31,547.62
35.14973,580.37,551.49
35.17139,588.51,548.60
35.19097,597.64,544.59
35.21036,597.86,540.73
35.23160,596.48,533.45
35.25175,587.74,524.94
35.27124,579.72,518.95
35.29164,570.31,516.06
35.31043,560.14,513.12
35.33097,552.20,507.42
35.35029,542.32,506.29
35.37001,531.79,504.89
35.39016,523.05,504.96
35.41036,509.70,505.31
35.43169,502.90,502.67
35.45125,494.80,505.20
35.47108,488.77,503.03
35.49090,483.01,504.52
35.51230,478.82,505.04
35.53239,474.76,501.55
35.55200,469.61,504.29
35.57130,468.92,501.69
35.59162,463.38,501.92
35.61187,462.09,500.38
35.63185,459.05,501.44
35.65281,458.01,501.70
35.67264,456.85,504.03
35.69298,455.26,502.39
35.71310,452.82,502.32
35.73359,448.54,504.74
35.75432,447.86,504.26
35.77328,447.33,503.02
35.79408,447.62,503.03
35.81265,448.87,500.14
35.83277,448.01,501.08
35.85429,447.82,502.92
35.87444,448.76,499.54
35.89367,450.06,504.10
35.91394,450.01,501.21
35.93595,446.96,500.64
35.95592,448.79,504.41
35.97686,447.38,503.59
35.99723,437.85,505.48
36.01807,422.39,508.92
36.03696,399.17,509.28
36.05773,373.31,505.09
36.07708,347.58,502.54
36.09799,320.62,496.54
36.11870,298.06,488.89
36.13711,281.62,485.05
36.15850,276.83,479.15
36.17755,278.94,482.27
36.19662,285.11,481.50
36.21736,298.97,480.64
36.23763,311.81,483.24
36.25694,324.78,486.15
36.27834,336.06,486.31
36.29815,345.90,490.20
36.31673,359.46,491.09
36.33772,367.31,493.74
36.35761,378.75,497.20
36.37835,388.38,497.83
36.39773,396.68,500.74
36.41683,402.10,501.25
36.43754,408.74,502.81
36.45832,414.79,499.97
36.47742,418.90,499.04
36.49792,420.94,502.33
36.51665,424.70,503.32
36.53742,427.19,502.78
36.55694,431.70,501.60
36.57715,434.44,504.48
36.59806,437.37,503.76
36.61677,438.41,504.53
36.63688,438.16,503.39
36.65694,439.46,501.95
36.67850,442.03,503.37
36.69760,441.90,505.40
36.71855,443.51,506.40
36.73679,441.99,505.72
36.75744,441.87,507.42
36.77808,442.70,504.40
36.79739,443.05,507.90
36.81860,445.24,508.31
36.83663,445.41,505.24
36.85750,443.35,506.86
36.87674,445.36,506.84
36.89720,443.90,506.39
36.91812,445.29,509.17
36.93816,446.01,508.85
36.95707,444.55,510.17
36.97833,443.35,510.35
36.99828,443.28,507.49
37.01744,443.98,510.51
37.03752,442.63,506.39
37.05686,444.01,507.86
37.07791,442.75,509.65
37.09865,444.92,507.92
37.11747,444.26,506.88
37.13704,444.81,507.31
37.15702,446.67,507.96
37.17817,445.51,507.32
37.19856,446.23,506.48
37.21823,448.55,509.24
37.23744,446.62,509.60
37.25835,446.60,508.36
37.27741,445.34,505.47
37.29816,449.90,505.55
37.31882,446.37,506.79
37.33865,447.90,505.46
37.35709,447.36,508.36
37.37787,443.55,507.18
37.39672,445.01,509.84
37.41751,444.89,509.82
37.43850,445.71,508.86
37.45694,443.70,510.27
37.47841,443.52,508.11
37.49820,442.64,507.88
37.51762,442.23,509.73
37.53838,443.98,506.59
37.55716,444.35,507.59
37.57729,443.07,508.37
37.59755,445.18,506.75
37.61732,445.00,508.81
37.63690,442.31,508.21
37.65769,443.81,505.87
37.67706,444.26,505.84
37.69839,444.56,507.82
37.71821,446.02,508.11
37.73751,446.44,508.31
37.75827,447.94,508.83
37.77690,444.71,509.87
37.79703,445.17,508.11
37.81749,444.68,508.34
37.83765,444.14,508.17
37.85706,441.94,511.34
37.87740,443.57,508.36
37.89793,442.44,508.36
37.91826,446.28,508.69
37.93839,446.40,510.70
37.95706,448.42,509.74
37.97850,445.44,511.21
37.99795,447.64,510.57
38.01805,445.23,509.25
38.03686,447.36,508.86
38.05841,445.30,508.48
38.07761,446.02,508.05
38.09809,443.19,511.73
38.11815,445.06,510.27
38.13790,443.72,508.05
38.15675,441.20,509.50
38.17827,444.08,506.30
38.19740,444.41,505.81
38.21782,443.13,507.97
38.23689,443.63,504.33
38.25724,445.39,505.35
38.27858,442.64,506.55
38.29718,442.79,503.16
38.31803,445.58,506.08
38.33784,456.16,504.93
38.35667,474.49,508.87
38.37779,496.36,510.54
38.39792,515.17,516.21
38.41801,536.68,517.26
38.43673,547.95,513.36
38.45694,560.64,514.01
38.47813,571.54,516.21
38.49732,578.68,519.38
38.51781,581.71,516.92
38.53758,580.11,517.24
38.55799,578.17,517.17
38.57792,576.97,514.68
38.59789,570.15,517.13
38.61676,562.76,512.86
38.63724,551.21,513.10
38.65816,543.22,512.31
38.67730,536.77,510.74
38.69791,527.14,511.29
38.71735,519.64,507.89
38.73854,512.78,508.47
38.75864,506.18,509.10
38.77671,499.07,507.93
38.79706,490.65,506.23
38.81662,484.19,507.48
38.83863,477.85,509.07
38.85727,474.88,507.69
38.87785,471.73,505.47
38.89824,468.13,506.49
38.91732,467.57,508.31
38.93880,465.10,508.35
38.95905,463.42,507.09
38.97975,456.12,506.96
39.00192,455.42,509.17
39.02180,451.40,511.56
39.04191,450.66,511.47
39.06313,445.82,511.33
39.08283,445.59,510.22
39.10227,444.49,512.18
39.12272,443.77,510.61
39.14368,443.92,513.36
39.16369,443.10,510.40
39.18231,441.95,511.22
39.20333,440.04,512.83
39.22302,441.55,513.63
39.24352,442.01,513.08
39.26195,441.83,516.28
39.28193,443.51,514.53
39.30260,442.98,517.21
39.32305,443.37,515.77
39.34274,440.33,515.51
39.36209,441.86,513.97
39.38289,439.77,515.66
39.40206,438.65,513.84
39.42364,441.08,516.38
39.44202,441.39,512.43
39.46288,440.35,514.52
39.48273,437.41,515.91
39.50234,426.74,515.61
39.52266,408.38,517.03
39.54319,388.93,514.42
39.56441,364.98,512.95
39.58449,341.99,511.93
39.60379,316.47,503.27
39.62429,297.46,498.18
39.64365,279.54,490.62
39.66340,272.10,487.83
39.68357,272.66,487.19
39.70366,279.55,484.33
39.72380,291.59,486.79
39.74525,301.81,486.29
39.76428,314.24,487.53
39.78377,328.30,489.14
39.80383,341.95,493.82
39.82476,352.77,495.60
39.84467,366.97,494.96
39.86518,373.74,499.79
39.88509,386.57,501.97
39.90452,393.82,501.76
39.92536,400.90,502.19
39.94361,404.91,501.11
39.96462,410.46,506.36
39.98482,417.13,504.36
40.00539,419.31,507.81
40.02460,422.65,507.28
40.04476,428.25,510.66
40.06587,430.49,508.81
40.08537,432.34,512.69
40.10621,434.41,511.46
40.12528,434.76,513.91
40.14585,438.20,510.26
40.16561,437.39,513.93
40.18557,439.92,513.91
40.20489,441.32,511.72
40.22484,438.20,512.90
40.24489,441.89,512.00
40.26529,440.15,512.18
40.28594,438.61,515.16
40.30594,442.08,515.31
40.32650,442.21,514.54
40.34573,440.37,512.55
40.36558,443.62,511.99
40.38491,441.60,513.06
40.40485,442.72,509.01
40.42471,441.24,510.60
40.44609,439.26,512.45
40.46616,442.44,510.86
40.48555,442.48,509.45
40.50506,443.12,511.82
40.52528,443.24,509.10
40.54496,444.43,508.75
40.56512,443.94,510.29
40.58489,442.17,510.40
40.60482,445.58,510.66
40.62571,442.38,512.81
40.64655,443.16,515.40
40.66536,440.99,515.00
40.68643,440.57,513.50
40.70555,442.52,514.77
40.72512,443.28,515.25
40.74559,443.08,516.28
40.76570,441.05,513.55
40.78704,444.43,513.86
40.80596,443.96,512.95
40.82740,443.68,514.10
40.84616,444.93,514.06
40.86629,444.96,512.56
40.88734,443.77,511.57
40.90694,446.21,510.45
40.92582,448.49,510.63
40.94544,446.13,510.36
40.96699,448.03,511.16
40.98668,447.76,509.31
41.00569,445.89,512.66
41.02667,444.65,510.48
41.04614,444.88,513.08
41.06561,443.79,510.38
41.08678,445.20,512.33
41.10602,443.56,512.11
41.12571,444.71,509.96
41.14558,446.10,511.57
41.16684,444.69,511.00
41.18683,446.77,511.19
41.20732,444.90,514.34
41.22581,446.74,514.33
41.24563,445.62,513.49
41.26838,447.44,513.18
41.28678,449.21,510.86
41.30794,447.05,513.09
41.32733,447.68,510.62
41.34772,448.54,510.36
41.36663,449.13,508.81
41.38825,450.95,508.15
41.40662,447.51,509.68
41.42764,448.81,509.50
41.44849,449.31,506.87
41.46791,448.02,507.08
41.48859,448.01,504.66
41.50708,448.50,504.45
41.52791,448.73,507.09
41.54824,446.22,506.08
41.56652,448.98,508.84
41.58823,447.02,504.54
41.60689,448.76,507.81
41.62747,449.12,507.27
41.64838,448.34,506.84
41.66787,448.85,509.62
41.68777,445.81,507.46
41.70802,449.28,508.83
41.72852,447.13,507.28
41.75020,450.13,506.88
41.77006,449.32,508.09
41.78978,449.43,506.93
41.80881,448.87,504.75
41.82963,446.46,504.74
41.85013,446.32,506.48
41.86854,448.46,507.65
41.88884,446.42,505.24
41.90990,445.24,509.03
41.92872,444.97,507.58
41.94851,448.62,507.27
41.96861,447.91,507.26
41.98889,446.58,505.32
42.01019,448.02,506.08
42.02898,446.93,505.89
42.04981,448.06,506.28
42.06988,448.39,504.31
42.08971,446.07,508.18
42.10892,447.39,507.41
42.12901,445.66,506.74
42.14968,448.21,506.93
42.17027,446.48,505.20
42.18861,447.48,507.93
42.21013,447.72,507.48
42.22933,446.62,509.81
42.25009,450.27,505.93
42.27021,449.89,508.10
42.28867,450.03,506.17
42.30965,447.44,505.37
42.32995,449.10,507.54
42.34954,451.27,509.28
42.37025,448.77,508.53
42.38885,446.81,507.03
42.40927,449.70,504.88
42.42968,445.73,505.10
42.44847,447.45,505.35
42.46917,448.27,505.62
42.48912,445.73,506.26
42.51029,446.93,509.08
42.53017,447.19,507.24
42.55016,448.14,504.56
42.56911,447.71,507.62
42.58929,446.43,504.74
42.61051,445.55,505.05
42.62879,447.92,505.88
42.64892,447.63,504.66
42.67068,443.96,504.50
42.68969,443.56,502.43
42.70940,444.25,505.14
42.72915,445.19,504.91
42.74901,444.72,503.53
42.76987,443.50,506.11
42.78857,445.92,504.85
42.80906,447.40,503.75
42.83053,446.32,504.21
42.84932,447.14,503.79
42.86908,444.67,505.14
42.88862,446.38,505.55
42.90899,442.35,502.71
42.92986,445.88,503.12
42.95081,446.64,504.35
42.97132,444.24,503.89
42.99150,443.25,505.77
43.01187,442.92,507.76
43.03275,453.21,513.25
43.05261,477.20,521.56
43.07337,502.13,536.77
43.09481,534.02,548.36
43.11492,558.48,554.12
43.13520,580.68,556.25
43.15462,596.40,553.57
43.17499,604.21,546.46
43.19542,607.99,538.58
43.21459,606.42,533.86
43.23521,599.91,525.13
43.25440,590.24,516.88
43.27484,575.18,510.67
43.29410,565.47,506.68
43.31520,554.90,503.90
43.33473,543.03,499.64
43.35378,533.16,497.52
43.37368,521.77,494.11
43.39519,514.16,495.42
43.41426,503.27,494.30
43.43503,497.19,495.33
43.45619,486.76,496.20
43.47624,480.89,500.31
43.49737,474.77,501.34
43.51626,468.44,504.34
43.53659,465.76,503.97
43.55714,463.14,505.81
43.57691,460.61,508.47
43.59623,457.43,508.70
43.61590,452.42,511.45
43.63599,453.57,509.27
43.65676,449.98,510.40
43.67635,447.20,513.81
43.69589,446.34,513.73
43.71702,443.14,511.78
43.73540,442.21,513.58
43.75746,442.81,513.13
43.77609,441.43,512.53
43.79580,441.59,513.24
43.81582,439.33,512.14
43.83744,439.52,510.91
43.85691,441.63,511.61
43.87732,436.53,513.82
43.89600,428.68,514.72
43.91764,412.86,518.78
43.93817,388.06,519.58
43.95840,364.32,517.98
43.97819,335.21,509.58
43.99814,308.33,502.91
44.01718,287.14,500.02
44.03831,271.24,492.02
44.05735,268.56,491.59
44.07804,271.70,490.00
44.09782,278.60,490.51
44.11700,288.01,489.82
44.13636,300.60,492.88
44.15637,313.29,492.36
44.17804,328.32,492.42
44.19765,340.58,496.98
44.21759,351.59,499.68
44.23764,360.57,500.22
44.25723,371.89,498.72
44.27761,382.76,502.34
44.29814,388.65,503.53
44.31825,394.49,502.03
44.33747,402.59,503.16
44.35723,406.02,505.92
44.37743,412.53,504.58
44.39813,415.05,507.25
44.41755,420.13,509.24
44.43826,422.66,511.68
44.45747,425.52,512.43
44.47798,425.78,512.38
44.49764,425.81,513.67
44.51735,428.31,509.77
44.53848,431.67,513.93
44.55709,431.68,513.27
44.57701,434.54,512.10
44.59781,434.28,510.20
44.61754,435.16,510.69
44.63806,433.98,513.45
44.65846,433.95,511.04
44.67667,434.72,510.94
44.69744,436.70,513.49
44.71846,436.89,512.26
44.73853,438.70,513.55
44.75905,436.87,513.99
44.77843,439.59,514.64
44.79948,439.54,513.80
44.81835,439.36,513.34
44.83842,437.23,512.54
44.85914,437.09,513.26
44.87847,438.76,511.74
44.90011,441.39,515.19
44.91953,438.79,514.03
44.94094,442.83,514.80
44.96133,442.69,515.26
44.98100,440.80,516.79
45.00043,443.09,518.24
45.02085,441.93,517.56
45.04195,440.31,514.21
45.06135,440.62,514.34
45.08202,442.74,516.64
45.10093,440.84,518.36
45.12045,443.87,517.19
45.14238,443.42,518.19
45.16243,443.01,517.31
45.18126,444.62,517.04
45.20095,443.16,518.60
45.22152,446.39,519.23
45.24114,444.84,520.06
45.26161,444.56,517.58
45.28139,446.75,517.65
45.30094,445.13,516.39
45.32178,444.67,518.06
45.34188,446.04,516.72
45.36227,444.82,517.84
45.38213,445.85,519.81
45.40147,446.16,519.95
45.42210,444.48,516.95
45.44291,443.39,515.61
45.46411,446.08,513.12
45.48435,444.53,512.18
45.50479,447.00,510.50
45.52636,444.45,509.84
45.54582,446.27,507.67
45.56701,446.52,506.83
45.58691,445.95,506.63
45.60769,447.41,507.75
45.62658,445.42,508.44
45.64778,444.88,507.59
45.66775,445.70,507.37
45.68763,447.09,506.32
45.70755,444.51,505.46
45.72660,446.42,507.38
45.74705,444.90,504.52
45.76666,443.47,503.23
45.78884,444.45,506.15
45.80858,446.87,503.21
45.82828,445.81,506.87
45.84744,445.02,503.01
45.86794,442.93,502.25
45.88921,444.89,505.25
45.90939,447.68,506.06
45.92782,444.52,502.95
45.94784,445.58,506.32
45.96916,446.59,503.69
45.98917,446.69,502.46
46.00766,447.12,503.10
46.02773,446.31,504.02
46.04903,444.68,502.62
46.07133,447.71,502.73
46.09058,446.68,504.88
46.11043,445.07,502.86
46.13093,446.89,502.64
46.14981,444.47,503.89
46.17056,446.92,503.72
46.18981,448.04,504.27
46.21049,444.50,505.28
46.22979,444.45,504.94
46.25103,445.21,505.21
46.26988,447.13,506.09
46.28971,443.69,504.06
46.30967,444.00,507.78
46.33013,447.54,504.48
46.34990,444.94,506.78
46.36960,447.18,508.28
46.39007,447.05,506.86
46.41082,447.73,505.98
46.43050,447.55,509.07
46.45012,447.99,508.40
46.47077,448.17,506.65
46.49110,446.66,506.08
46.50954,446.85,505.40
46.53080,447.46,506.54
46.55067,445.05,506.51
46.57122,444.23,506.59
46.58953,446.33,505.03
46.61131,445.63,505.12
46.63227,447.88,505.39
46.65104,448.44,507.17
46.67211,447.89,507.78
46.69222,445.06,506.41
46.71080,444.73,506.58
46.73214,443.89,507.31
46.75154,445.93,507.27
46.77121,442.94,508.69
46.79067,442.91,509.92
46.81153,442.47,509.62
46.83218,445.25,506.15
46.85155,443.63,506.38
46.87174,442.76,506.59
46.89059,443.11,508.75
46.91216,445.39,506.22
46.93234,446.22,506.83
46.95185,444.78,506.17
46.97171,446.17,508.76
46.99072,444.39,507.00
47.01191,442.25,507.54
47.03157,444.06,508.56
47.05152,444.78,505.64
47.07167,444.62,505.13
47.09167,443.25,506.58
47.11217,446.89,505.83
47.13184,446.87,506.46
47.15203,449.73,506.03
47.17157,455.42,510.31
47.19054,471.55,517.67
47.21238,494.05,530.39
47.23203,515.37,541.67
47.25097,537.62,553.24
47.27199,554.70,561.87
47.29093,571.64,563.42
47.31176,586.37,566.20
47.33205,591.40,560.54
47.35194,594.55,555.27
47.37193,593.61,549.45
47.39101,588.68,540.77
47.41227,579.79,528.45
47.43145,568.43,519.98
47.45103,561.97,510.05
47.47205,549.28,503.24
47.49192,540.09,497.02
47.51295,530.37,492.30
47.53245,520.84,487.91
47.55286,510.70,484.57
47.57228,499.07,485.15
47.59191,491.72,482.34
47.61278,482.08,483.72
47.63279,476.85,483.70
47.65180,475.30,484.94
47.67264,467.55,483.67
47.69207,462.43,487.45
47.71286,461.07,493.04
47.73202,462.61,494.12
47.75276,461.07,497.14
47.77275,457.44,497.53
47.79189,457.26,502.29
47.81300,453.97,502.65
47.83154,454.65,503.87
47.85199,452.28,503.78
47.87163,447.74,503.65
47.89256,444.31,505.74
47.91221,441.73,506.55
47.93240,440.05,507.72
47.95302,439.04,507.26
47.97165,441.37,506.89
47.99247,440.12,508.18
48.01240,440.54,507.16
48.03177,441.73,508.68
48.05287,440.19,508.28
48.07253,443.35,509.83
48.09312,441.81,509.80
48.11229,434.38,508.99
48.13181,420.43,514.86
48.15265,402.81,514.34
48.17155,378.82,516.92
48.19339,353.65,519.17
48.21209,330.19,515.13
48.23192,307.06,506.65
48.25300,289.01,500.38
48.27176,277.18,492.67
48.29222,272.28,487.60
48.31310,277.40,485.78
48.33289,285.89,483.52
48.35252,293.66,481.97
48.37286,304.91,480.81
48.39238,319.37,483.05
48.41222,329.69,484.69
48.43334,343.30,487.61
48.45256,352.90,485.88
48.47318,366.00,489.92
48.49209,371.78,489.56
48.51180,382.16,492.15
48.53157,389.38,493.60
48.55184,396.48,495.86
48.57297,401.90,496.12
48.59324,407.69,498.18
48.61253,413.46,498.25
48.63294,413.88,500.26
48.65202,416.21,501.90
48.67198,420.29,500.58
48.69247,421.92,500.38
48.71151,425.19,503.67
48.73331,428.38,503.03
48.75224,429.78,503.23
48.77289,430.88,506.31
48.79215,432.47,505.74
48.81223,433.26,507.59
48.83182,431.75,508.02
48.85166,434.74,507.11
48.87247,433.49,506.31
48.89204,436.06,509.38
48.91171,436.37,508.32
48.93351,440.23,507.23
48.95400,437.54,507.27
48.97391,439.16,507.71
48.99406,437.01,511.36
49.01383,436.40,512.57
49.03331,438.50,513.72
49.05439,440.54,513.57
49.07288,439.73,513.89
49.09280,437.56,510.82
49.11382,439.39,513.31
49.13447,439.11,513.01
49.15361,436.87,512.85
49.17523,439.65,510.27
49.19341,437.06,510.66
49.21498,439.22,512.51
49.23587,438.46,513.36
49.25573,437.33,513.78
49.27550,439.28,513.14
49.29565,439.83,512.91
49.31422,439.77,516.07
49.33486,440.96,515.71
49.35546,440.11,517.02
49.37556,443.17,517.45
49.39470,439.68,515.76
49.41462,438.71,516.39
49.43551,441.38,514.42
49.45604,437.75,514.70
49.47463,438.54,516.47
49.49463,440.61,514.55
49.51550,439.41,516.22
49.53545,438.91,514.84
49.55505,438.37,513.11
49.57641,439.60,513.50
49.59545,437.48,513.49
49.61475,437.97,512.56
49.63491,438.28,513.12
49.65591,441.12,514.53
49.67464,438.43,513.72
49.69640,439.42,515.73
49.71512,440.00,513.55
49.73444,438.40,515.89
49.75463,438.61,515.21
49.77627,440.55,513.65
49.79483,439.37,514.77
49.81573,442.14,513.62
49.83559,438.69,513.00
49.85507,440.89,512.45
49.87438,442.80,512.57
49.89610,440.91,514.45
49.91636,444.50,515.03
49.93708,443.86,512.61
49.95819,440.88,514.88
49.97917,440.92,514.97
49.99823,444.25,514.82
50.01917,442.87,515.21
50.03772,443.18,516.21
50.05811,442.28,513.77
50.07918,445.69,514.96
50.09887,443.89,514.12
50.12025,444.03,513.09
50.13844,445.65,514.45
50.15897,449.02,513.32
50.17882,448.37,512.91
50.19849,447.17,514.73
50.22055,445.56,516.61
50.23915,445.11,514.26
50.25971,448.97,516.04
50.27870,447.01,514.42
50.30015,446.93,514.02
50.32134,447.70,512.15
50.34103,443.74,512.49
50.36096,445.91,511.22
50.38115,446.62,513.05
50.40004,447.69,510.55
50.42180,443.80,510.49
50.44119,447.01,510.58
50.46203,446.27,508.29
50.48225,448.14,509.52
50.50144,445.58,506.89
50.52149,445.68,508.71
50.54144,446.34,506.98
50.56099,442.86,505.65
50.58209,444.76,506.73
50.60131,444.85,506.17
50.62158,446.07,506.72
50.64089,446.05,505.79
50.66157,444.12,504.85
50.68096,447.03,507.58
50.70054,446.47,505.08
50.72130,443.48,505.26
50.74262,445.33,506.55
50.76320,443.83,507.39
50.78252,455.26,511.37
50.80327,475.43,520.23
50.82258,499.89,532.48
50.84281,530.31,546.91
50.86309,554.81,552.34
50.88288,578.29,554.54
50.90254,593.50,555.50
50.92305,600.27,550.64
50.94201,604.57,540.72
50.96290,600.29,534.34
50.98311,598.43,527.19
51.00230,590.35,517.25
51.02153,578.58,509.77
51.04240,567.50,506.25
51.06204,556.44,499.45
51.08293,546.14,497.06
51.10190,538.00,495.69
51.12420,527.82,493.14
51.14334,515.25,494.04
51.16380,506.28,494.47
51.18242,499.26,495.89
51.20322,492.69,494.73
51.22364,485.32,492.47
51.24326,480.10,493.68
51.26380,474.35,492.54
51.28377,471.32,495.37
51.30262,466.07,495.44
51.32265,463.79,496.40
51.34355,463.80,495.69
51.36241,458.74,500.09
51.38251,456.54,500.21
51.40292,455.13,501.97
51.42425,455.73,503.80
51.44355,454.67,503.40
51.46318,451.20,503.30
51.48413,451.94,502.24
51.50378,450.29,502.33
51.52412,451.80,505.74
51.54400,452.31,502.51
51.56337,450.64,506.40
51.58261,448.28,506.50
51.60261,448.67,503.57
51.62418,447.00,504.18
51.64274,450.40,504.78
51.66377,447.38,506.08
51.68266,443.00,505.48
51.70356,432.30,505.11
51.72261,416.92,507.13
51.74264,393.28,506.77
51.76292,366.83,502.40
51.78416,343.65,499.15
51.80370,318.04,488.36
51.82300,300.37,481.48
51.84332,288.89,476.10
51.86287,288.78,473.21
51.88378,295.64,470.67
51.90285,300.17,473.11
51.92315,313.52,473.70
51.94385,325.81,476.80
51.96318,335.61,481.45
51.98271,349.85,484.38
52.00405,361.73,485.33
52.02348,373.35,489.65
52.04300,382.36,493.21
52.06360,389.76,493.55
52.08323,398.68,496.69
52.10334,404.75,496.20
52.12320,408.03,499.72
52.14238,415.17,501.65
52.16360,418.14,501.28
52.18245,422.87,501.54
52.20427,424.79,504.05
52.22432,428.47,504.77
52.24406,433.62,502.73
52.26396,433.43,504.43
52.28455,436.37,504.49
52.30352,437.50,503.50
52.32365,439.82,503.08
52.34521,440.40,502.54
52.36383,440.76,506.69
52.38428,441.45,506.68
52.40364,444.00,502.66
52.42334,443.08,504.55
52.44505,442.79,504.28
52.46472,442.36,506.13
52.48473,444.92,503.05
52.50497,446.11,505.04
52.52449,447.93,504.55
52.54412,445.97,504.80
52.56420,449.07,504.21
52.58408,445.68,505.19
52.60479,447.09,504.24
52.62410,449.51,503.61
52.64458,447.47,504.96
