Program Time [s],data 0,data 1
19.70672,356.88,450.44
19.72781,356.45,452.35
19.74633,355.07,448.96
19.76625,357.35,449.21
19.78717,356.92,451.66
19.80751,353.64,449.01
19.82654,354.79,450.69
19.84753,353.48,450.58
19.86659,353.43,450.51
19.88800,354.93,451.12
19.90680,358.51,451.54
19.92668,355.37,451.61
19.94676,358.81,450.70
19.96708,359.01,450.09
19.98710,359.09,450.57
20.00594,358.86,450.98
20.02612,360.11,449.49
20.04709,361.24,449.93
20.06794,359.41,451.49
20.08594,361.71,452.66
20.10777,361.84,453.06
20.12760,359.77,454.32
20.14769,359.85,453.05
20.16607,359.96,454.90
20.18591,360.84,453.14
20.20662,358.18,452.68
20.22645,361.21,454.54
20.24755,359.84,453.40
20.26771,360.99,452.31
20.28683,362.08,455.77
20.30727,358.41,455.67
20.32683,360.87,453.44
20.34784,361.19,453.45
20.36757,360.59,453.91
20.38695,359.24,453.71
20.40660,359.59,452.92
20.42734,356.57,452.28
20.44643,356.72,450.26
20.46762,360.04,450.77
20.48746,356.96,451.27
20.50668,360.25,450.40
20.52624,360.79,448.86
20.54772,357.42,450.46
20.56736,360.84,451.23
20.58748,358.23,451.12
20.60633,357.37,447.54
20.62698,357.96,448.18
20.64682,357.14,448.73
20.66688,358.74,450.60
20.68790,358.32,448.10
20.70746,357.73,447.80
20.72672,357.48,449.17
20.74699,357.12,447.33
20.76660,361.71,448.74
20.78792,371.82,450.39
20.80668,387.53,455.12
20.82618,407.20,457.02
20.84849,424.31,456.98
20.86800,440.54,458.30
20.88945,454.48,461.90
20.90976,463.56,461.96
20.92873,466.44,458.46
20.95032,467.00,456.40
20.97082,467.35,454.97
20.99144,461.43,456.35
21.01097,458.86,455.26
21.03147,453.55,450.76
21.05110,447.03,451.72
21.07272,439.30,453.89
21.09299,431.48,451.88
21.11358,425.64,454.18
21.13405,418.54,455.12
21.15469,413.68,456.74
21.17376,407.70,453.85
21.19390,402.72,458.16
21.21340,397.30,454.87
21.23467,393.98,456.63
21.25293,390.55,458.56
21.27390,384.32,459.45
21.29332,383.13,460.16
21.31509,382.55,456.97
21.33323,382.11,460.63
21.35323,377.36,457.97
21.37277,378.97,459.57
21.39288,377.81,460.13
21.41470,379.66,460.97
21.43300,378.39,457.96
21.45436,375.45,459.13
21.47468,375.94,456.97
21.49482,374.78,456.40
21.51433,373.68,457.37
21.53296,371.64,457.86
21.55314,371.29,459.20
21.57414,373.29,455.61
21.59469,370.51,455.63
21.61272,370.66,456.56
21.63487,369.79,457.13
21.65432,370.58,458.08
21.67456,367.41,458.01
21.69444,369.52,455.72
21.71510,366.99,456.67
21.73497,366.65,458.63
21.75568,367.23,457.90
21.77548,364.88,457.52
21.79491,356.16,460.44
21.81609,346.39,459.41
21.83529,326.21,460.54
21.85637,309.09,457.40
21.87645,289.19,453.51
21.89767,266.82,448.55
21.91592,250.78,438.81
21.93635,238.69,430.88
21.95785,233.34,427.77
21.97889,235.65,423.16
21.99836,241.35,423.62
22.01815,248.47,422.85
22.03971,255.83,426.12
22.05909,263.29,427.79
22.07837,274.65,428.81
22.09976,282.35,433.14
22.11781,291.10,433.46
22.13878,302.29,438.58
22.15846,310.64,438.30
22.17820,315.84,441.90
22.19810,319.61,441.76
22.22035,324.19,444.90
22.24062,330.15,444.75
22.25884,334.69,445.98
22.28034,337.84,447.86
22.29929,338.92,449.98
22.31932,344.94,450.96
22.33954,345.49,449.01
22.35875,350.01,450.05
22.38050,347.95,448.24
22.39998,348.79,452.09
22.41909,350.36,452.35
22.43971,354.39,451.57
22.45898,351.78,453.36
22.47933,354.17,452.30
22.49939,354.77,454.87
22.51925,354.46,456.16
22.54015,355.22,456.66
22.56068,358.92,452.75
22.57917,357.34,453.06
22.59928,357.91,455.39
22.61951,358.00,451.06
22.64046,357.63,452.79
22.66022,358.79,454.33
22.68073,357.16,453.60
22.69893,355.80,452.95
22.72089,357.28,454.52
22.73993,355.89,454.99
22.76013,357.83,450.43
22.78003,356.40,452.57
22.79890,358.23,452.93
22.82067,357.96,452.56
22.83926,355.69,453.35
22.85885,354.73,454.03
22.88039,355.77,452.07
22.90037,354.41,451.20
22.91894,356.06,451.52
22.94038,357.54,452.86
22.96026,357.04,450.61
22.98137,353.94,450.81
23.00091,354.67,454.08
23.02178,355.47,451.73
23.04130,356.22,451.64
23.06110,355.20,450.60
23.08363,354.76,452.46
23.10243,358.35,449.10
23.12262,356.00,449.63
23.14299,355.32,451.84
23.16392,358.81,449.67
23.18282,359.00,448.92
23.20294,356.04,450.72
23.22370,355.53,448.46
23.24353,359.19,446.88
23.26391,356.07,450.07
23.28349,359.29,450.72
23.30431,356.62,448.10
23.32440,359.28,449.09
23.34409,359.44,447.62
23.36310,357.76,445.25
23.38492,358.07,445.09
23.40393,358.30,446.22
23.42347,355.59,445.44
23.44456,355.21,445.88
23.46412,354.39,444.45
23.48451,356.77,446.92
23.50375,354.92,447.12
23.52385,356.51,446.74
23.54451,354.17,447.02
23.56302,354.24,447.95
23.58426,355.98,449.52
23.60285,356.43,448.26
23.62343,357.33,450.33
23.64438,355.11,448.41
23.66296,354.75,452.11
23.68354,357.12,449.49
23.70394,356.57,450.80
23.72396,359.87,450.50
23.74347,360.13,449.30
23.76407,357.73,451.39
23.78348,359.36,448.42
23.80342,356.33,450.55
23.82413,357.29,450.76
23.84465,357.79,447.10
23.86426,359.02,447.81
23.88428,356.95,447.86
23.90330,357.79,450.26
23.92416,359.19,447.38
23.94348,357.20,447.43
23.96328,357.33,448.25
23.98468,355.48,449.14
24.00344,355.63,447.82
24.02485,357.13,449.41
24.04407,357.76,449.56
24.06445,359.09,447.41
24.08559,356.12,450.40
24.10454,360.49,449.00
24.12563,359.86,449.83
24.14525,359.65,446.37
24.16506,358.79,445.67
24.18512,361.96,446.91
24.20627,361.69,447.80
24.22549,361.88,450.51
24.24515,362.11,449.07
24.26524,361.45,450.33
24.28574,359.33,446.88
24.30513,362.89,449.10
24.32647,360.46,449.62
24.34635,361.79,451.09
24.36495,358.80,451.19
24.38616,362.16,448.71
24.40628,363.28,450.77
24.42720,362.25,452.09
24.44794,365.05,450.58
24.46825,364.83,449.54
24.48871,366.81,452.37
24.50762,374.08,453.47
24.52730,385.35,457.34
24.54810,406.46,467.84
24.56841,428.77,480.45
24.58836,447.55,484.90
24.60742,466.62,488.78
24.62754,481.35,485.22
24.64741,490.01,485.90
24.66765,495.81,476.50
24.68756,493.41,472.70
24.70766,485.54,465.73
24.72812,479.52,455.93
24.74774,474.48,451.12
24.76679,462.13,444.48
24.78677,455.30,441.14
24.80694,445.45,435.82
24.82871,440.00,436.68
24.84713,430.85,434.97
24.86733,425.49,436.28
24.88689,417.72,437.29
24.90719,410.28,438.06
24.92856,405.43,437.63
24.94777,399.98,441.11
24.96710,396.92,441.45
24.98842,391.81,445.82
25.00824,384.56,445.11
25.02683,381.74,448.31
25.04825,379.57,445.85
25.06732,379.94,446.31
25.08705,376.54,450.02
25.10749,377.27,448.93
25.12705,373.24,451.65
25.14685,373.10,453.01
25.16852,370.05,451.45
25.18841,372.57,452.89
25.20858,369.77,454.79
25.22837,371.92,453.46
25.24730,370.33,454.81
25.26772,370.41,455.87
25.28742,369.59,453.03
25.30763,369.07,453.82
25.32817,367.98,454.87
25.34731,367.19,455.38
25.36750,368.22,454.27
25.38884,364.72,455.26
25.40721,350.42,451.85
25.42834,334.38,448.19
25.44684,318.24,446.14
25.46724,298.15,440.20
25.48704,280.99,438.30
25.50805,265.53,437.27
25.52842,253.94,438.16
25.54783,241.52,438.02
25.56866,238.60,438.36
25.58929,244.37,438.89
25.60857,246.61,439.96
25.62852,258.04,439.65
25.64899,268.00,440.56
25.66880,276.59,441.07
25.68805,284.45,438.08
25.70877,293.06,442.84
25.72830,302.87,439.48
25.74984,311.10,443.93
25.76915,317.82,442.97
25.78942,323.15,444.92
25.80794,330.21,446.04
25.82921,333.32,447.92
25.84863,338.31,448.48
25.86916,345.07,451.57
25.88839,346.54,449.58
25.90968,352.10,451.34
25.92828,350.92,451.21
25.94945,357.37,449.98
25.96905,357.81,452.72
25.98919,361.35,451.57
26.00866,361.99,453.38
26.02892,361.87,452.51
26.04946,361.77,450.87
26.06812,362.86,453.99
26.08978,365.76,455.50
26.10949,364.92,455.57
26.12935,366.12,453.12
26.14836,366.62,456.77
26.16784,365.56,454.35
26.18818,365.65,453.86
26.20891,365.67,453.68
26.22885,365.18,455.91
26.24966,368.33,457.61
26.26899,368.32,455.92
26.28803,364.95,456.77
26.30922,367.26,455.01
26.32815,368.44,456.64
26.34939,368.79,457.40
26.36961,365.63,456.31
26.38838,369.02,456.38
26.40832,367.81,456.40
26.42939,368.36,458.95
26.44912,369.47,456.85
26.46857,369.40,458.55
26.48907,368.65,456.63
26.50847,368.03,459.02
26.52888,366.30,458.74
26.54875,369.29,455.79
26.56827,367.34,456.41
26.58949,368.67,457.26
26.60849,367.93,457.15
26.62877,366.25,456.96
26.64867,367.38,456.91
26.66917,366.57,456.86
26.68894,369.30,456.03
26.70847,368.34,457.87
26.72809,368.01,457.16
26.74973,367.19,456.61
26.76910,367.49,455.00
26.78808,369.46,454.79
26.80917,369.76,453.57
26.82937,370.28,452.99
26.84961,369.22,454.63
26.86971,370.15,455.33
26.88942,368.82,453.95
26.90830,368.66,454.71
26.92938,368.96,455.06
26.94841,367.58,455.61
26.96833,366.39,454.57
26.98946,369.45,455.35
27.00857,369.91,455.88
27.02883,368.60,456.31
27.04917,368.53,454.92
27.06765,367.46,453.93
27.08794,368.07,453.98
27.10799,368.50,453.04
27.12853,368.00,454.12
27.14833,366.99,455.17
27.16787,369.57,451.33
27.18864,369.61,454.45
27.20862,370.34,456.01
27.23020,367.98,454.94
27.24940,369.52,455.38
27.27041,367.46,454.63
27.29016,366.43,454.19
27.30920,368.09,455.29
27.32919,367.35,455.05
27.35023,367.20,454.05
27.37027,365.88,456.06
27.38907,364.38,455.12
27.40950,366.22,455.75
27.42979,367.09,455.28
27.44995,364.48,454.93
27.47041,366.29,456.23
27.48987,366.16,453.46
27.51071,365.22,456.58
27.52933,367.50,455.05
27.55020,366.68,456.21
27.56983,365.44,456.27
27.59009,365.69,454.05
27.60896,364.54,454.15
27.62916,366.89,455.11
27.65078,364.41,454.04
27.67053,367.95,455.22
27.68997,366.50,455.31
27.71088,364.64,459.15
27.72991,366.52,459.58
27.75022,367.30,455.72
27.77061,366.25,459.29
27.78975,366.32,458.25
27.81040,366.50,455.51
27.82914,365.26,455.20
27.84879,366.58,456.58
27.86885,367.42,455.29
27.89038,366.75,455.67
27.90933,368.94,454.39
27.93027,367.90,456.95
27.95022,368.78,454.45
27.96979,367.76,456.48
27.98961,366.87,454.98
28.01008,368.47,455.88
28.03015,365.22,456.66
28.05050,366.96,456.27
28.07068,364.79,454.18
28.09145,364.75,452.21
28.10990,361.73,454.34
28.13071,364.42,452.66
28.15063,360.38,452.64
28.17098,363.24,453.38
28.19080,359.96,455.10
28.21034,360.61,455.06
28.23090,359.84,454.88
28.25107,361.10,454.45
28.27024,364.23,453.89
28.29027,362.18,453.09
28.31015,363.78,450.82
28.33140,364.64,449.40
28.34977,362.82,448.53
28.37002,362.50,450.36
28.39133,361.96,452.03
28.41151,361.71,451.75
28.43095,365.18,449.55
28.45120,363.21,448.86
28.46986,365.03,452.44
28.49044,370.00,456.07
28.51098,385.19,463.69
28.53046,405.75,472.73
28.54984,427.83,481.27
28.56961,447.83,488.08
28.59145,466.46,485.78
28.60974,479.01,487.01
28.63014,486.43,482.52
28.65064,490.94,477.89
28.67066,490.35,472.64
28.68987,484.35,464.77
28.71032,477.66,463.67
28.73168,471.85,458.17
28.75095,461.78,454.45
28.77130,455.27,450.65
28.79080,444.62,450.26
28.81153,438.67,450.76
28.83090,428.04,450.30
28.84996,419.15,450.19
28.87057,412.51,451.82
28.89140,405.47,450.91
28.90995,399.97,453.86
28.92988,393.09,454.16
28.95161,389.36,454.32
28.97011,386.45,457.18
28.99012,379.96,455.40
29.01101,381.15,457.39
29.03001,375.77,454.71
29.04997,375.09,454.55
29.07002,374.04,456.48
29.09154,373.69,456.31
29.11100,369.87,454.14
29.13241,368.48,457.39
29.15230,366.62,457.10
29.17111,366.55,455.29
29.19067,366.36,458.22
29.21176,364.02,455.66
29.23176,362.87,457.32
29.25241,362.46,455.04
29.27080,362.92,457.26
29.29249,364.47,456.41
29.31104,364.49,456.03
29.33270,359.24,454.46
29.35076,350.86,459.35
29.37177,337.51,455.33
29.39078,318.24,455.52
29.41189,301.05,452.06
29.43175,281.90,448.40
29.45082,261.82,442.50
29.47259,249.72,436.81
29.49160,239.50,430.84
29.51093,236.43,427.20
29.53212,239.52,429.48
29.55268,245.37,427.31
29.57110,254.38,428.58
29.59169,263.64,428.96
29.61138,271.73,432.75
29.63255,281.44,436.17
29.65179,289.45,438.30
29.67239,298.90,436.83
29.69174,307.27,439.54
29.71153,311.96,444.00
29.73182,320.16,445.09
29.75172,327.47,447.54
29.77208,328.02,448.80
29.79232,330.65,449.92
29.81222,336.70,450.15
29.83241,338.50,447.74
29.85350,338.46,449.87
29.87239,340.52,449.92
29.89263,344.53,449.82
29.91296,347.15,450.41
29.93354,346.14,450.92
29.95198,350.58,451.13
29.97334,350.66,450.49
29.99209,350.05,451.45
30.01244,349.10,451.19
30.03248,352.68,452.44
30.05337,351.89,451.04
30.07200,354.55,452.54
30.09176,355.63,453.58
30.11213,356.41,451.27
30.13341,358.08,453.93
30.15294,358.35,451.58
30.17345,357.68,454.77
30.19261,358.36,454.44
30.21217,355.67,452.76
30.23230,357.28,455.22
30.25323,354.98,453.61
30.27172,355.10,451.62
30.29299,355.60,451.10
30.31321,355.04,451.21
30.33351,355.50,452.30
30.35336,354.76,452.93
30.37183,356.72,450.33
30.39191,355.25,449.92
30.41344,357.53,452.29
30.43222,356.68,451.16
30.45183,357.26,453.18
30.47197,358.19,451.69
30.49314,356.10,455.02
30.51213,354.97,453.15
30.53247,353.63,452.64
30.55369,355.68,452.72
30.57369,353.98,455.03
30.59332,355.36,453.16
30.61336,356.54,451.47
30.63164,356.48,452.96
30.65219,354.17,452.49
30.67341,354.47,451.44
30.69203,356.75,452.00
30.71297,355.32,452.68
30.73302,356.11,451.95
30.75317,357.89,452.59
30.77324,356.73,451.69
30.79274,353.70,451.60
30.81346,356.01,454.06
30.83217,354.84,453.79
30.85353,354.01,452.15
30.87293,357.22,454.99
30.89246,356.54,453.99
30.91339,356.32,454.10
30.93319,356.30,452.98
30.95292,355.75,453.50
30.97293,354.60,453.55
30.99155,355.14,452.37
31.01249,353.68,452.97
31.03315,354.20,453.24
31.05307,355.52,450.88
31.07192,356.14,452.13
31.09242,355.85,453.04
31.11189,353.56,452.55
31.13274,355.67,455.12
31.15228,356.49,455.74
31.17320,356.65,454.88
31.19184,357.99,451.64
31.21205,355.61,452.56
31.23336,357.24,450.63
31.25161,357.63,451.60
31.27186,357.15,449.72
31.29186,355.45,449.49
31.31228,354.39,453.20
31.33186,357.82,452.84
31.35311,355.09,453.02
31.37212,358.01,450.72
31.39161,358.48,448.83
31.41193,356.47,449.76
31.43266,355.63,450.84
31.45292,359.01,450.60
31.47369,357.63,450.49
31.49364,356.23,450.39
31.51407,355.18,453.34
31.53422,356.85,451.90
31.55354,356.37,450.03
31.57379,353.72,451.47
31.59334,356.20,451.34
31.61438,354.53,449.56
31.63365,355.91,450.53
31.65294,355.96,451.67
31.67333,353.65,450.95
31.69351,353.61,452.00
31.71326,357.57,448.64
31.73294,354.49,449.20
31.75262,354.92,451.94
31.77282,356.87,448.96
31.79320,353.93,449.15
31.81376,355.88,449.91
31.83361,355.62,450.62
31.85439,355.68,449.97
31.87377,353.21,449.20
31.89286,354.31,449.00
31.91312,355.41,449.16
31.93316,353.79,450.95
31.95321,355.39,449.73
31.97318,354.75,452.75
31.99274,353.45,450.99
32.01443,356.36,451.17
32.03352,354.01,451.39
32.05426,356.22,450.98
32.07291,356.37,448.70
32.09288,354.47,450.30
32.11426,356.13,452.02
32.13384,356.68,450.02
32.15322,356.26,452.57
32.17296,353.76,451.66
32.19320,354.75,452.27
32.21326,353.44,450.18
32.23277,365.24,454.80
32.25405,385.06,460.00
32.27468,405.59,468.38
32.29273,427.26,478.70
32.31372,443.82,479.98
32.33434,460.31,482.24
32.35391,470.28,481.14
32.37347,474.47,480.97
32.39393,472.82,474.66
32.41309,470.08,470.37
32.43367,466.56,465.35
32.45361,462.20,458.21
32.47287,453.54,455.56
32.49295,445.70,451.15
32.51281,437.65,448.95
32.53357,427.42,446.12
32.55361,418.14,444.41
32.57350,413.68,442.03
32.59267,404.69,445.50
32.61421,398.27,444.56
32.63315,391.59,444.54
32.65386,387.53,447.34
32.67306,382.56,444.95
32.69367,378.15,446.71
32.71413,376.89,448.82
32.73291,374.36,449.45
32.75300,370.60,451.26
32.77409,370.95,450.60
32.79397,367.45,448.44
32.81316,365.19,450.27
32.83402,365.45,448.52
32.85287,362.48,450.59
32.87345,362.23,448.40
32.89277,360.89,448.37
32.91444,361.83,451.09
32.93305,357.99,448.66
32.95404,358.84,449.99
32.97427,360.26,451.86
32.99287,356.82,451.22
33.01429,352.87,451.31
33.03406,341.60,454.28
33.05353,323.87,457.00
33.07440,306.87,460.72
33.09280,287.23,456.51
33.11418,267.98,452.67
33.13273,253.82,450.09
33.15299,241.69,444.70
33.17320,239.75,440.70
33.19279,241.28,437.08
33.21418,248.16,435.31
33.23522,255.28,434.61
33.25513,264.98,435.21
33.27471,269.29,438.15
33.29478,279.74,438.43
33.31340,285.85,439.62
33.33468,293.83,438.61
33.35494,304.85,441.03
33.37376,309.79,442.74
33.39521,316.32,442.85
33.41436,322.34,443.88
33.43388,324.81,445.68
33.45418,331.03,448.00
33.47515,337.68,447.44
33.49380,339.84,446.75
33.51547,341.42,448.08
33.53396,342.50,447.32
33.55552,344.60,447.62
33.57439,348.15,447.23
33.59453,347.69,449.47
33.61555,350.32,450.27
33.63516,351.13,448.90
33.65542,354.20,448.50
33.67474,353.78,450.23
33.69357,353.51,452.04
33.71543,353.87,452.64
33.73445,356.56,451.84
33.75500,357.87,449.69
33.77368,356.31,452.34
33.79597,356.41,450.48
33.81573,358.34,449.98
33.83590,360.19,453.61
33.85637,359.91,451.45
33.87634,360.83,452.34
33.89520,360.87,450.06
33.91580,360.26,451.49
33.93488,359.18,452.74
33.95486,360.62,452.88
33.97638,359.11,452.93
33.99627,359.24,451.78
34.01505,362.20,455.05
34.03640,359.94,452.63
34.05648,360.06,455.28
34.07455,361.92,453.84
34.09595,359.42,451.95
34.11546,362.61,452.98
34.13607,361.94,453.99
34.15579,360.14,453.03
34.17584,361.61,453.23
34.19530,362.68,452.37
34.21466,362.89,454.38
34.23497,364.20,454.17
34.25617,363.99,452.91
34.27521,363.05,454.90
34.29639,364.89,451.10
34.31554,363.81,454.38
34.33573,364.26,451.23
34.35617,361.17,450.59
34.37581,363.20,451.24
34.39484,363.80,452.58
34.41628,362.74,451.44
34.43640,363.24,451.19
34.45523,361.60,451.28
34.47558,362.04,453.98
34.49590,359.64,451.76
34.51573,362.36,454.18
34.53494,360.35,454.26
34.55599,362.56,451.50
34.57650,360.89,454.04
34.59515,363.28,453.81
34.61553,364.46,452.35
34.63480,362.18,453.92
34.65655,363.18,454.49
34.67597,361.61,452.01
34.69494,362.04,454.70
34.71627,362.14,453.11
34.73571,363.09,455.62
34.75627,363.57,451.66
34.77501,362.16,452.44
34.79644,361.41,453.13
34.81578,364.12,450.86
34.83483,363.17,453.14
34.85522,365.84,452.26
34.87608,366.75,451.36
34.89544,365.24,453.03
34.91472,362.51,451.74
34.93626,362.98,452.08
34.95641,364.83,452.97
34.97572,362.54,451.41
34.99580,364.61,451.06
35.01586,363.19,452.94
35.03476,363.31,453.65
35.05539,364.12,455.04
35.07478,361.79,453.06
35.09636,364.96,451.84
35.11530,365.72,452.26
35.13566,364.35,454.97
35.15547,366.22,451.68
35.17487,364.06,452.04
35.19576,361.97,454.89
35.21609,363.27,453.57
35.23516,365.30,454.49
35.25601,365.06,453.83
35.27488,361.66,452.09
35.29640,361.21,455.00
35.31643,365.12,452.91
35.33584,363.19,450.62
35.35466,362.66,451.90
35.37578,363.76,451.13
35.39482,363.15,453.06
35.41519,360.88,451.66
35.43479,362.51,454.08
35.45486,365.59,454.09
35.47561,366.64,452.61
35.49586,365.10,452.02
35.51486,366.07,452.80
35.53641,365.86,450.67
35.55621,366.14,453.07
35.57482,366.69,452.34
35.59543,364.28,451.46
35.61532,365.82,454.22
35.63471,365.91,450.43
35.65464,365.96,450.82
35.67589,364.24,450.69
35.69562,367.00,452.19
35.71637,366.27,453.86
35.73443,368.04,453.16
35.75489,365.32,455.07
35.77446,366.35,454.41
35.79664,364.23,453.27
35.81632,365.82,453.17
35.83483,366.99,452.00
35.85631,364.98,453.34
35.87557,365.88,452.46
35.89644,366.63,453.63
35.91643,364.37,452.08
35.93471,364.14,452.16
35.95565,362.89,451.06
35.97649,365.93,451.71
35.99613,363.39,450.35
36.01491,364.13,450.42
36.03510,364.15,450.64
36.05470,365.05,449.33
36.07565,364.17,449.92
36.09559,364.20,450.37
36.11477,363.44,449.82
36.13522,365.15,447.70
36.15547,364.64,447.96
36.17587,364.39,448.73
36.19639,365.61,448.64
36.21758,368.14,451.36
36.23679,378.36,457.43
36.25731,395.59,465.83
36.27637,417.71,477.72
36.29648,441.51,489.53
36.31627,460.23,497.63
36.33609,471.78,495.59
36.35566,481.96,493.87
36.37553,484.62,484.32
36.39735,484.42,479.14
36.41756,479.86,467.89
36.43650,474.15,460.01
36.45686,466.46,456.71
36.47667,457.63,450.69
36.49798,447.41,446.75
36.51766,440.14,442.16
36.53770,429.57,443.29
36.55785,423.73,439.83
36.57711,414.35,443.19
36.59711,411.09,442.26
36.61819,402.30,443.89
36.63692,400.95,445.08
36.65756,394.20,444.85
36.67832,392.02,447.59
36.69762,386.72,449.45
36.71785,384.63,448.69
36.73756,381.26,448.13
36.75702,378.58,452.03
36.77754,378.08,451.97
36.79804,375.40,452.98
36.81829,374.03,451.05
36.83754,373.99,450.73
36.85757,374.97,452.81
36.87790,374.20,450.34
36.89766,373.60,450.80
36.91679,371.95,452.62
36.93819,369.64,454.96
36.95750,370.37,454.67
36.97682,371.01,453.75
36.99826,371.94,452.67
37.01790,368.85,454.44
37.03779,369.21,451.54
37.05735,367.84,455.73
37.07706,370.65,455.10
37.09698,367.61,456.05
37.11797,356.32,456.70
37.13844,343.21,456.46
37.15837,327.44,456.41
37.17754,306.20,452.48
37.19849,286.88,447.16
37.21691,266.84,439.29
37.23698,256.62,435.52
37.25723,251.64,432.82
37.27834,248.54,428.41
37.29656,255.30,428.99
37.31816,261.12,428.08
37.33825,268.33,431.29
37.35640,277.47,432.16
37.37663,287.10,431.87
37.39762,293.95,433.82
37.41673,305.98,435.36
37.43847,310.08,440.62
37.45785,319.71,440.30
37.47716,325.92,444.16
37.49723,329.30,444.92
37.51717,333.35,447.04
37.53689,338.73,447.76
37.55846,342.34,449.94
37.57750,347.08,452.02
37.59746,351.80,452.16
37.61679,353.49,451.07
37.63822,356.04,451.07
37.65821,358.67,453.89
37.67731,359.88,454.18
37.69753,362.60,454.31
37.71789,364.06,454.45
37.73850,362.26,451.75
37.75792,364.15,451.27
37.77662,363.09,452.84
37.79835,363.49,452.32
37.81668,364.08,451.28
37.83793,366.37,449.94
37.85795,364.65,450.73
37.87684,366.79,447.96
37.89730,365.59,451.37
37.91784,369.79,448.56
37.93672,368.70,449.74
37.95702,367.30,451.58
37.97819,366.22,449.52
37.99849,366.28,449.45
38.01737,369.25,451.58
38.03750,368.05,449.05
38.05785,367.53,452.29
38.07735,367.65,451.87
38.09713,368.85,453.24
38.11800,368.03,451.87
38.13758,367.76,449.84
38.15724,368.49,450.16
38.17769,368.49,453.23
38.19813,366.99,453.32
38.21666,369.04,453.15
38.23745,369.31,452.05
38.25775,368.94,449.82
38.27707,368.87,450.98
38.29730,366.73,452.28
38.31708,366.86,450.77
38.33795,367.79,453.53
38.35790,366.81,451.66
38.37682,365.94,453.96
38.39809,368.65,452.19
38.41718,368.26,452.70
38.43715,368.19,455.71
38.45804,366.08,454.78
38.47688,368.31,451.88
38.49782,367.96,452.54
38.51706,366.21,452.72
38.53765,366.40,454.45
38.55743,366.24,452.48
38.57828,366.20,453.89
38.59773,367.83,452.42
38.61759,368.40,453.27
38.63818,369.58,450.94
38.65643,368.90,451.75
38.67752,368.98,452.16
38.69789,368.36,454.79
38.71782,368.63,453.91
38.73773,368.45,454.91
38.75653,369.22,457.52
38.77831,366.11,455.09
38.79664,366.10,453.95
38.81692,366.97,455.09
38.83810,369.33,454.79
38.85782,370.14,456.31
38.87828,366.52,454.02
38.89783,368.73,455.68
38.91855,366.18,456.46
38.93750,367.85,457.01
38.95834,369.12,454.19
38.97827,367.30,453.82
38.99660,366.50,455.75
39.01673,367.47,455.37
39.03678,367.77,455.16
39.05786,367.03,453.93
39.07829,368.14,456.54
39.09649,369.57,455.03
39.11653,370.06,457.01
39.13811,368.04,454.61
39.15838,366.58,453.59
39.17784,366.28,455.83
39.19673,368.26,454.18
39.21750,367.99,456.58
39.23640,367.08,456.40
39.25756,368.03,455.40
39.27775,364.27,454.07
39.29762,368.23,453.00
39.31758,366.37,454.24
39.33750,366.78,452.82
39.35760,367.19,454.81
39.37743,367.14,453.18
39.39716,366.50,453.29
39.41802,364.21,453.87
39.43735,366.64,455.77
39.45661,368.12,452.88
39.47676,365.48,453.37
39.49691,367.25,451.85
39.51776,366.57,452.91
39.53832,366.27,453.67
39.55780,368.15,454.36
39.57705,366.96,451.89
39.59701,365.70,453.04
39.61755,365.71,452.06
39.63783,365.72,455.10
39.65725,367.07,456.13
39.67703,364.36,454.44
39.69807,365.97,454.87
39.71852,365.59,453.53
39.73774,366.69,452.62
39.75745,362.96,455.22
39.77723,366.66,454.81
39.79745,366.07,455.15
39.81746,367.58,453.97
39.83700,367.88,452.14
39.85686,368.14,452.04
39.87702,364.85,452.80
39.89725,366.38,451.36
39.91677,366.94,451.62
39.93822,367.47,453.68
39.95691,364.97,453.75
39.97840,365.21,451.74
39.99775,364.67,452.19
40.01743,365.57,452.67
40.03796,366.81,452.05
40.05733,364.60,452.30
40.07677,368.12,452.12
40.09800,365.74,450.60
40.11782,365.75,450.46
40.13700,368.31,452.50
40.15803,365.28,452.46
40.17830,365.42,453.77
40.19681,368.29,455.10
40.21714,364.68,452.55
40.23791,364.61,455.63
40.25753,367.23,457.24
40.27696,366.44,456.02
40.29667,367.33,454.92
40.31744,365.71,455.83
40.33667,365.44,455.22
40.35758,365.58,453.35
40.37624,367.90,455.26
40.39799,368.88,453.58
40.41768,369.43,454.22
40.43792,368.74,456.05
40.45766,366.01,452.99
40.47652,369.19,455.51
40.49757,367.67,451.76
40.51710,367.27,452.97
40.53750,367.63,451.86
40.55816,367.40,451.49
40.57761,366.13,452.77
40.59806,366.79,453.55
40.61832,365.55,452.38
40.63740,367.32,451.40
40.65657,365.45,450.31
40.67647,362.73,452.75
40.69811,365.36,453.73
40.71641,364.04,452.71
40.73803,363.47,449.81
40.75711,370.39,454.68
40.77715,384.14,458.29
40.79665,407.48,469.77
40.81826,429.00,478.29
40.83718,450.71,481.20
40.85843,463.65,481.00
40.87653,473.87,479.45
40.89817,481.57,475.32
40.91696,480.87,471.17
40.93738,476.68,469.84
40.95713,474.70,462.24
40.97709,465.06,458.06
40.99797,459.89,454.63
41.01804,451.71,452.10
41.03768,440.75,451.21
41.05806,435.73,446.64
41.07643,425.71,450.42
41.09826,421.57,447.59
41.11714,412.74,450.81
41.13696,405.63,451.42
41.15625,402.51,451.47
41.17719,397.24,453.49
41.19817,392.63,453.93
41.21696,385.85,453.49
41.23638,385.32,454.48
41.25686,380.71,454.76
41.27747,378.81,452.92
41.29705,380.41,452.86
41.31736,377.46,455.07
41.33669,375.37,453.47
41.35669,374.00,456.53
41.37748,371.38,455.30
41.39741,371.87,457.39
41.41805,371.02,456.78
41.43826,370.26,453.06
41.45761,371.41,455.63
41.47820,367.43,454.26
41.49784,368.44,455.98
41.51640,368.04,453.38
41.53725,367.38,452.48
41.55686,367.63,453.04
41.57827,367.74,452.32
41.59819,366.30,455.31
41.61625,367.58,452.62
41.63767,365.94,452.49
41.65638,366.87,453.33
41.67686,362.80,455.41
41.69749,348.94,457.62
41.71729,333.40,454.34
41.73729,315.22,448.76
41.75660,292.33,445.08
41.77642,273.42,438.41
41.79665,258.23,437.22
41.81760,244.92,434.67
41.83708,242.23,430.17
41.85657,241.98,429.99
41.87764,245.31,431.99
41.89740,255.62,428.62
41.91816,263.65,429.57
41.93744,271.18,430.17
41.95785,283.65,432.37
41.97760,289.97,435.30
41.99683,298.34,436.63
42.01778,308.81,441.18
42.03670,312.85,440.45
42.05758,318.92,443.23
42.07646,324.68,444.26
42.09833,330.06,449.09
42.11756,334.71,447.43
42.13684,337.34,449.96
42.15694,341.38,452.67
42.17744,343.61,453.07
42.19752,345.12,452.54
42.21804,349.52,452.32
42.23822,351.10,451.53
42.25781,354.72,450.77
42.27760,355.94,451.28
42.29725,356.16,450.86
42.31794,354.46,451.73
42.33621,357.24,452.13
42.35728,356.12,448.60
42.37801,360.14,450.91
42.39641,357.92,449.95
42.41723,359.82,451.81
42.43756,360.36,452.38
42.45660,361.13,450.14
42.47758,362.01,450.74
42.49773,361.21,453.04
42.51723,359.89,454.21
42.53820,362.68,454.90
42.55641,360.65,455.01
42.57758,362.28,454.56
42.59806,360.65,455.15
42.61697,361.21,453.65
42.63661,360.92,454.29
42.65758,361.35,454.52
42.67672,357.74,454.68
42.69676,359.35,454.54
42.71792,359.22,456.04
42.73788,359.26,453.43
42.75733,361.74,456.12
42.77824,361.97,454.36
42.79654,361.79,454.02
42.81625,363.88,454.38
42.83810,361.70,453.11
42.85765,361.21,454.05
42.87803,360.50,456.33
42.89784,363.05,457.35
42.91746,360.57,454.75
42.93713,361.02,456.18
42.95802,360.44,456.30
42.97796,361.08,453.39
42.99709,362.62,456.47
43.01815,359.58,455.78
43.03803,361.19,456.14
43.05687,361.40,455.02
43.07774,361.02,456.00
43.09683,358.07,453.57
43.11695,359.61,455.49
43.13657,360.23,455.54
43.15786,361.09,453.95
43.17761,361.48,456.53
43.19815,360.09,455.38
43.21732,360.60,455.62
43.23825,360.05,454.87
43.25771,359.88,454.99
43.27684,361.26,455.27
43.29790,358.01,454.43
43.31800,358.11,453.99
43.33764,358.34,453.69
43.35762,360.67,453.57
43.37700,357.06,451.10
43.39815,358.68,451.33
43.41802,358.45,451.72
43.43739,358.23,453.89
43.45662,357.60,453.73
43.47742,357.03,454.02
43.49733,356.02,452.74
43.51754,357.04,453.28
43.53676,355.74,455.28
43.55764,359.82,453.12
43.57703,357.58,453.60
43.59672,357.38,454.01
43.61651,360.30,453.26
43.63663,357.26,452.72
43.65757,356.67,455.19
43.67802,357.79,452.28
43.69688,357.94,453.07
43.71826,357.82,455.03
43.73809,358.69,454.65
43.75663,358.05,454.98
43.77760,356.83,452.35
43.79660,355.96,453.04
43.81787,358.50,454.80
43.83782,357.91,452.40
43.85696,356.51,454.57
43.87653,357.58,451.85
43.89766,354.87,455.28
43.91673,356.39,452.97
43.93711,355.19,450.84
43.95739,356.05,452.25
43.97770,358.64,453.84
43.99829,357.02,452.52
44.01666,357.38,449.84
44.03663,357.19,450.80
44.05750,355.64,452.57
44.07782,355.34,449.81
44.09778,357.95,451.02
44.11690,356.10,452.92
44.13658,355.96,452.71
44.15703,357.87,449.94
44.17631,357.19,450.62
44.19767,357.75,452.13
44.21682,356.27,453.18
44.23732,354.81,450.04
44.25801,356.41,451.52
44.27671,355.64,449.74
44.29801,358.56,453.08
44.31781,358.13,449.34
44.33651,357.80,448.50
44.35746,356.09,448.68
44.37759,356.42,451.11
44.39674,356.08,452.44
44.41667,355.41,452.56
44.43624,356.86,452.86
44.45676,357.62,451.27
44.47639,356.43,451.01
44.49722,357.91,454.82
44.51767,357.13,451.42
44.53741,358.55,455.14
44.55794,355.89,453.26
44.57718,356.03,452.96
44.59672,355.46,451.92
44.61710,355.81,454.72
44.63781,356.40,452.57
44.65685,355.56,453.86
44.67663,354.64,451.54
44.69752,355.00,449.64
44.71633,356.13,450.80
44.73749,355.44,448.75
44.75631,355.17,450.32
44.77657,355.57,453.04
44.79774,355.80,450.98
44.81684,356.52,451.74
44.83759,354.67,447.89
44.85695,356.36,448.52
44.87746,355.35,448.29
44.89657,353.35,449.23
44.91741,354.88,451.56
44.93739,355.22,451.74
44.95722,354.82,450.41
44.97803,354.69,451.72
44.99831,356.56,451.43
45.01831,357.29,449.52
45.03718,353.91,451.02
45.05618,355.98,450.23
45.07759,357.03,451.09
45.09770,353.35,451.78
45.11741,353.98,453.13
45.13658,355.63,452.39
45.15664,353.52,452.11
45.17843,354.84,451.18
45.19695,354.24,451.45
45.21797,354.56,450.43
45.23733,356.44,450.45
45.25701,356.43,449.90
45.27654,353.81,450.79
45.29807,356.43,449.50
45.31650,355.98,451.37
45.33694,354.31,448.23
45.35705,353.28,450.34
45.37653,355.10,449.76
45.39712,352.74,450.62
45.41700,355.01,448.45
45.43683,354.75,450.91
45.45826,356.09,449.19
45.47633,355.73,449.35
45.49753,356.07,449.47
45.51646,353.11,449.05
45.53787,353.78,451.13
45.55678,357.14,449.17
45.57675,357.34,448.11
45.59735,353.82,452.28
45.61620,354.30,452.09
45.63612,355.24,450.86
45.65808,355.98,452.37
45.67654,354.03,452.08
45.69807,357.02,451.04
45.71803,356.33,450.98
45.73698,357.45,449.95
45.75703,367.51,452.29
45.77723,383.69,460.62
45.79681,399.90,465.40
45.81749,421.07,470.76
45.83756,441.89,473.24
45.85759,453.24,472.44
45.87819,461.22,468.95
45.89817,466.24,464.26
45.91677,464.99,463.55
45.93806,465.79,460.27
45.95786,460.71,455.24
45.97811,452.30,451.27
45.99635,447.50,451.69
46.01826,439.44,448.53
46.03692,431.67,446.41
46.05683,423.14,443.78
46.07810,414.73,445.42
46.09646,409.71,445.36
46.11725,401.90,443.82
46.13813,395.87,446.53
46.15701,390.85,449.16
46.17712,385.42,447.32
46.19754,381.57,448.52
46.21804,378.73,448.79
46.23783,377.83,447.29
46.25622,372.90,448.25
46.27805,372.67,447.52
46.29691,370.04,449.08
46.31741,365.90,451.54
46.33791,364.53,450.58
46.35720,363.51,449.59
46.37650,362.18,450.81
46.39795,361.00,449.21
46.41709,358.82,449.96
46.43761,360.83,450.31
46.45730,357.68,451.99
46.47724,358.69,451.95
46.49774,359.20,452.54
46.51819,359.23,452.15
46.53698,356.34,452.72
46.55788,357.30,451.43
46.57676,354.10,452.06
46.59891,347.57,453.19
46.61828,328.94,449.37
46.63895,311.72,446.72
46.65803,286.39,443.40
46.67745,268.82,434.24
46.69855,250.75,429.58
46.71866,236.26,422.45
46.73826,232.54,422.80
46.75869,234.83,421.68
46.77791,237.08,421.91
46.79783,244.15,424.50
46.81848,255.87,425.50
46.83827,264.81,428.25
46.85864,273.97,430.55
46.87838,281.08,435.53
46.89924,292.09,435.96
46.91933,298.11,438.14
46.93932,304.94,439.86
46.95846,313.30,443.54
46.97995,320.15,442.77
46.99836,323.14,443.14
47.01976,329.25,447.45
47.03975,333.22,446.45
47.05999,334.86,448.50
47.08031,336.26,446.93
47.09908,341.12,449.98
47.11968,341.93,447.98
47.13955,344.89,451.62
47.15856,345.77,450.79
47.17960,345.90,451.54
47.19979,351.17,451.33
47.21904,352.72,447.60
47.24019,353.60,450.26
47.25836,353.55,448.49
47.28016,354.68,451.40
47.29897,353.16,450.76
47.31967,354.99,452.30
47.33941,357.43,451.59
47.35954,358.37,449.25
47.38006,358.58,451.93
47.39982,359.86,453.11
47.41966,361.31,449.73
47.43839,361.97,450.46
47.45867,360.79,450.63
47.47862,361.29,450.98
47.49845,360.19,451.47
47.51882,360.50,453.21
47.53860,357.82,451.57
47.55977,360.57,452.15
47.57979,358.94,453.99
47.59915,359.38,454.18
47.61936,358.99,451.95
47.63922,358.84,454.94
47.65893,360.53,454.45
47.67998,356.94,453.74
47.70000,359.17,453.61
47.71844,355.50,453.79
47.73831,356.78,451.49
47.75892,356.93,451.31
47.77915,358.52,454.25
47.79947,357.51,450.47
47.81989,356.23,450.23
47.84007,356.21,451.49
47.85973,359.31,451.68
47.87960,356.71,453.23
47.89844,356.76,453.69
47.91852,357.05,456.78
47.94059,358.78,461.51
47.96082,357.79,471.36
47.97960,361.75,491.54
48.00067,366.19,519.44
48.02072,369.96,543.20
48.04054,369.33,553.93
48.05938,369.80,547.70
48.07993,368.48,527.14
48.09932,366.17,507.44
48.11971,365.12,485.06
48.14000,361.89,461.06
48.15967,359.99,443.89
48.17948,361.28,430.06
48.20105,360.28,418.59
48.22072,358.53,411.03
48.24086,356.30,405.93
48.25961,356.53,401.84
48.27921,357.23,401.20
48.29947,358.79,404.75
48.31968,360.15,405.62
48.34084,361.10,409.69
48.36082,358.16,414.85
48.38083,358.22,416.78
48.39948,358.03,418.27
48.41961,358.13,425.70
48.43988,358.89,429.24
48.45979,359.42,430.24
48.48021,360.10,432.89
48.50020,358.37,435.45
48.51986,360.31,440.46
48.54059,359.79,440.07
48.55945,358.92,443.95
48.58107,361.66,442.50
48.60076,360.95,443.68
48.61932,359.14,445.44
48.64010,361.98,446.39
48.65984,359.57,449.94
48.68113,359.94,451.05
48.70052,362.37,451.04
48.71955,359.21,452.17
48.74099,359.65,448.75
48.76112,360.47,452.90
48.77941,362.33,449.52
48.80114,362.32,450.66
48.82022,360.82,452.34
48.83984,361.80,451.30
48.86102,364.45,451.55
48.88046,362.97,453.60
48.90008,361.87,452.48
48.92127,360.27,451.00
48.93943,362.54,450.95
48.96005,363.73,452.47
48.98008,363.28,453.01
48.99922,362.75,449.94
49.01933,362.96,450.68
49.04058,364.48,452.34
49.06017,365.75,451.04
49.07996,363.90,451.02
49.09987,365.87,450.58
49.12111,366.18,451.94
49.14020,365.99,452.51
49.16039,365.75,451.31
49.17990,365.08,449.72
49.20110,362.63,449.02
49.21978,365.04,448.53
49.24000,362.89,449.81
49.25981,363.10,449.37
49.28044,363.15,448.54
49.29924,363.25,451.46
49.31954,363.67,449.13
49.33950,362.57,449.55
49.35925,363.89,451.76
49.38097,364.68,452.16
49.40007,365.79,451.37
49.41976,366.33,450.97
49.44019,366.10,452.03
49.46036,363.52,453.08
49.47977,365.65,449.46
49.50058,367.05,450.36
49.51980,365.55,450.47
49.53960,365.60,451.59
49.56016,364.36,453.03
49.58034,363.19,451.37
49.60055,365.19,452.97
49.61938,366.29,452.98
49.64004,365.48,453.15
49.66088,363.62,453.33
49.68188,362.47,454.57
49.70030,364.41,452.31
49.72103,364.45,451.97
49.74189,364.16,454.17
49.76140,364.04,453.71
49.78099,365.13,451.87
49.80070,365.17,453.36
49.82183,366.49,453.82
49.84027,365.41,452.24
49.86087,368.22,452.95
49.88158,369.22,450.51
49.90050,366.85,450.42
49.92108,369.04,451.91
49.94101,369.19,453.24
49.96063,368.82,451.12
49.98132,367.50,450.05
50.00139,366.82,450.27
50.02073,368.62,451.00
50.04208,368.90,450.24
50.06021,369.39,450.59
50.08189,369.86,453.62
50.10165,369.14,453.00
50.12061,369.81,451.11
50.14031,369.06,451.24
50.16210,369.12,451.39
50.18137,370.76,452.68
50.20130,369.30,454.34
50.22088,367.81,451.37
50.24179,369.36,451.56
50.26181,368.55,450.99
50.28096,368.94,452.64
50.30089,369.59,450.54
50.32210,368.46,452.50
50.34172,369.78,452.05
50.36167,367.80,452.77
50.38217,367.80,450.31
50.40056,370.11,449.86
50.42028,373.64,453.08
50.44186,383.00,453.98
50.46078,400.65,460.38
50.48188,418.27,468.12
50.50123,438.00,473.67
50.52067,452.72,478.51
50.54055,466.78,480.86
50.56166,474.54,478.14
50.58199,479.57,478.27
50.60152,481.14,476.18
50.62062,480.12,470.51
50.64018,477.92,470.00
50.66203,471.85,465.62
50.68037,462.51,465.28
50.70072,457.33,461.75
50.72064,450.78,457.23
50.74195,441.12,459.52
50.76085,435.14,454.72
50.78110,425.39,455.80
50.80123,421.20,456.81
50.82152,411.66,456.63
50.84008,406.61,455.41
50.86024,400.43,453.28
50.88077,398.56,453.83
50.90184,395.14,452.66
50.92185,391.44,453.04
50.94000,386.72,455.97
50.96065,384.11,454.89
50.98027,384.17,453.90
51.00154,382.80,454.76
51.02200,378.14,455.21
51.04138,377.56,456.88
51.06134,376.90,455.00
51.08104,372.28,456.21
51.10184,372.23,455.81
51.12093,373.51,455.91
51.14095,371.90,453.99
51.16044,371.83,456.87
51.18106,370.90,455.25
51.20065,370.18,456.31
51.22146,369.91,457.05
51.24035,369.48,457.54
51.26150,368.97,456.52
51.28163,369.62,454.29
51.30061,369.03,454.67
51.32030,369.98,454.24
51.34080,368.08,455.94
51.36087,366.13,455.27
51.38114,369.31,456.25
51.40051,369.55,455.38
51.42060,368.39,452.89
51.44094,362.35,456.95
51.46100,355.70,460.92
51.48115,339.14,460.17
51.50039,325.21,463.24
51.52052,307.03,462.46
51.54018,290.52,455.90
51.56069,274.15,452.04
51.58022,261.01,443.40
51.60179,256.89,441.72
51.62161,257.46,435.91
51.64028,260.86,434.44
51.66035,265.56,434.09
51.68030,276.28,433.08
51.70031,283.00,432.79
51.72053,292.12,434.16
51.74112,302.53,436.75
51.76115,311.69,438.53
51.78049,316.90,437.20
51.80130,325.05,442.47
51.82065,328.63,440.86
51.84075,333.63,444.05
51.86092,340.21,442.62
51.88135,342.25,446.98
51.90151,345.17,445.21
51.92172,351.21,444.05
51.94154,350.46,448.58
51.96021,355.29,449.04
51.98011,356.17,447.19
52.00099,359.19,449.18
52.02132,359.32,450.44
52.04209,360.50,448.24
52.06089,361.60,450.84
52.08144,361.31,450.71
52.10077,361.91,448.97
52.12025,363.59,450.36
52.14182,367.46,452.18
52.16067,367.54,453.27
52.18153,370.19,452.48
52.20150,366.86,453.86
52.22174,369.60,453.10
52.24156,368.86,451.39
52.26106,367.93,452.14
52.28132,370.16,450.71
52.30023,368.48,454.56
52.32137,369.69,451.67
52.34051,370.03,454.12
52.36175,369.22,451.84
52.38194,367.99,450.90
52.40177,369.43,451.19
52.42133,369.72,450.76
52.44061,370.92,453.08
52.46196,370.47,452.23
52.48198,370.67,452.38
52.50050,367.76,453.64
52.52168,369.30,454.34
52.54030,365.97,456.43
52.56196,368.33,452.56
52.58078,365.60,453.38
52.60101,368.52,452.99
52.62051,367.18,452.78
52.64169,368.98,451.69
52.66184,367.40,452.24
52.68245,365.76,451.41
52.70281,365.58,449.58
52.72274,368.56,450.21
52.74170,367.45,450.23
52.76120,368.19,452.06
52.78206,367.50,450.82
52.80264,368.03,450.28
52.82233,368.77,451.35
52.84147,366.24,450.96
52.86249,365.36,450.60
52.88250,367.78,448.25
52.90248,365.26,448.76
52.92139,366.21,450.61
52.94186,366.72,456.81
52.96133,366.93,462.05
52.98222,366.64,461.35
53.00295,365.24,461.04
53.02191,366.94,460.56
53.04129,364.50,461.08
53.06133,365.34,460.57
53.08307,367.16,458.31
53.10292,365.82,455.85
53.12275,365.13,453.03
53.14222,368.24,451.54
53.16172,367.59,451.54
53.18222,366.95,448.56
53.20208,366.69,448.70
53.22276,364.50,449.78
53.24107,364.62,446.90
53.26244,365.13,448.76
53.28224,367.36,448.40
53.30216,367.78,447.01
53.32158,364.45,449.83
53.34208,366.70,448.58
53.36196,364.44,448.57
53.38120,365.77,450.55
53.40205,365.00,453.84
53.42270,365.85,461.26
53.44291,364.23,476.04
53.46130,368.57,497.80
53.48297,371.58,522.69
53.50129,374.54,541.19
53.52120,373.94,543.53
53.54142,374.14,530.19
53.56172,369.03,512.43
53.58248,368.05,492.28
53.60135,364.56,472.40
53.62244,363.77,453.63
53.64146,363.93,443.03
53.66251,362.89,432.09
53.68163,362.67,422.28
53.70251,358.65,415.72
53.72373,361.76,412.47
53.74278,358.37,411.76
53.76349,360.98,413.88
53.78285,360.08,412.45
53.80394,357.62,416.79
53.82373,361.02,417.50
53.84302,360.22,419.90
53.86232,359.48,422.25
53.88413,359.06,426.27
53.90381,359.24,427.78
53.92325,362.12,430.43
53.94328,361.77,433.52
53.96233,363.76,438.24
53.98336,361.75,437.63
54.00267,360.30,441.86
54.02371,361.46,440.82
54.04315,360.27,442.56
54.06303,363.28,442.93
54.08335,359.93,446.61
54.10241,360.76,447.29
54.12381,362.10,450.07
54.14370,360.44,448.12
54.16354,360.32,450.98
54.18246,360.86,449.74
54.20322,362.08,450.71
54.22325,363.16,449.24
54.24329,362.24,451.33
54.26213,362.38,449.85
54.28255,359.42,448.95
54.30382,358.14,451.48
54.32378,360.42,450.26
54.34202,359.97,451.04
54.36322,361.38,451.14
54.38376,361.81,449.52
54.40389,358.59,450.01
54.42396,358.01,452.25
54.44386,361.03,452.15
54.46218,360.08,454.50
54.48391,358.34,451.76
54.50357,360.44,452.32
54.52380,361.40,455.99
54.54261,358.53,455.00
54.56238,360.56,451.58
54.58330,358.61,453.27
54.60397,360.49,455.08
54.62217,361.01,453.04
54.64334,358.54,453.27
54.66232,360.78,452.80
54.68400,359.13,456.24
54.70227,359.94,455.21
54.72217,359.10,454.24
54.74348,359.18,453.62
54.76320,358.70,454.83
54.78343,356.87,454.10
54.80404,358.97,451.92
54.82401,355.91,454.77
54.84407,357.66,451.07
54.86432,355.79,451.04
54.88371,354.88,451.33
54.90329,357.34,450.78
54.92459,355.44,453.46
54.94513,356.65,451.71
54.96433,358.04,452.63
54.98472,359.72,451.92
55.00545,370.99,454.45
55.02573,386.24,463.19
55.04420,405.73,471.77
55.06505,421.87,479.74
55.08578,439.90,483.82
55.10473,452.79,485.65
55.12498,461.20,486.56
55.14528,465.66,484.74
55.16388,464.78,482.76
55.18410,464.77,478.59
55.20487,459.92,476.73
55.22489,455.43,472.55
55.24608,447.38,466.60
55.26512,441.14,466.09
55.28580,436.41,461.15
55.30509,427.93,462.00
55.32514,422.07,457.81
55.34421,412.05,455.06
55.36407,405.15,455.58
55.38527,401.30,453.37
55.40437,392.82,456.31
55.42523,388.33,456.22
55.44558,385.90,453.25
55.46392,378.84,452.47
55.48519,377.41,454.22
55.50509,373.03,454.83
55.52411,368.42,453.17
55.54542,365.50,455.39
55.56420,367.34,452.67
55.58626,365.30,452.84
55.60539,364.13,452.54
55.62554,360.86,452.30
55.64592,359.73,452.49
55.66463,360.28,454.08
55.68480,358.68,450.79
55.70595,359.95,452.52
55.72556,356.08,452.86
55.74565,357.78,452.40
55.76631,356.83,453.56
55.78451,358.32,451.57
55.80500,357.34,451.16
55.82454,357.22,451.19
55.84471,355.89,452.21
55.86545,356.70,453.32
55.88403,355.79,453.26
55.90449,355.96,450.91
55.92536,356.32,454.87
55.94575,354.57,455.69
55.96577,352.78,457.29
55.98443,347.94,459.68
56.00459,337.49,462.11
56.02466,325.29,462.73
56.04483,312.13,463.35
56.06498,292.17,458.17
56.08422,276.01,450.36
56.10527,261.55,444.47
56.12587,250.84,435.80
56.14447,243.83,432.07
56.16491,245.37,426.63
56.18530,249.06,426.48
56.20530,254.42,423.53
56.22588,265.66,425.35
56.24517,272.46,425.71
56.26503,281.88,427.66
56.28526,291.07,427.03
56.30502,295.57,431.03
56.32559,301.07,432.08
56.34607,309.69,434.24
56.36579,315.79,437.22
56.38516,319.84,439.20
56.40619,325.14,438.80
56.42517,328.92,442.42
56.44438,332.41,440.01
56.46498,332.47,442.43
56.48528,336.34,445.02
56.50453,340.87,443.22
56.52550,340.84,443.68
56.54528,343.06,447.09
56.56558,343.83,446.77
56.58509,345.50,446.46
56.60501,347.02,448.13
56.62577,346.85,447.90
56.64590,348.90,446.94
56.66475,350.05,450.41
56.68507,349.28,447.45
56.70687,351.44,448.38
56.72789,352.50,447.92
56.74746,351.97,447.49
56.76745,354.93,449.78
56.78611,355.52,450.19
56.80696,353.86,447.86
56.82785,357.94,447.96
56.84835,356.83,450.98
56.86792,357.04,447.96
56.88819,357.91,449.56
56.90800,358.83,449.02
56.92883,360.09,450.64
56.94998,361.06,451.96
56.96871,358.09,452.48
56.98966,359.66,452.88
57.00962,359.28,453.57
57.03031,360.69,451.36
57.05021,359.65,451.34
57.06932,359.91,454.10
57.09013,360.10,452.01
57.10925,363.66,452.85
57.12957,361.36,451.22
57.14933,365.09,451.53
57.17117,363.12,451.79
57.18942,366.46,452.67
57.20965,363.17,452.81
57.22917,365.42,452.34
57.24976,364.43,450.56
57.27056,364.50,452.31
57.28936,366.78,451.70
57.31059,365.15,451.48
57.33021,365.11,452.34
57.35172,363.80,454.80
57.37072,364.41,453.74
57.39177,364.98,452.42
57.41077,364.76,451.18
57.43061,364.52,452.87
57.45034,363.81,452.70
57.47074,365.67,454.89
57.49044,366.29,453.08
57.51115,368.66,451.43
57.53111,366.05,452.58
57.55005,364.84,451.29
57.57078,367.01,450.85
57.59011,368.54,453.13
57.61116,367.67,450.68
57.63039,367.73,449.90
57.65193,365.35,449.75
57.67053,367.15,453.75
57.69063,365.59,451.71
57.71091,367.83,451.19
57.73300,367.52,454.22
57.75108,367.47,454.69
57.77397,370.14,455.97
57.79305,368.18,454.04
57.81358,366.77,454.64
57.83312,370.33,452.61
57.85288,366.68,453.52
57.87204,368.50,455.12
57.89489,367.52,453.64
57.91442,369.90,452.60
57.93399,366.36,454.57
57.95395,367.57,455.84
57.97300,369.75,455.05
57.99412,368.01,452.39
58.01532,367.00,453.44
58.03473,365.51,452.74
58.05546,366.92,454.19
58.07538,369.22,459.12
58.09451,375.15,462.06
58.11414,379.63,466.48
58.13393,383.70,467.01
58.15541,380.44,463.65
58.17718,380.54,462.02
58.19637,378.76,462.37
58.21488,378.64,463.52
58.23499,375.46,462.39
58.25587,373.95,460.89
58.27632,373.48,460.61
58.29577,372.13,460.21
58.31539,372.18,458.97
58.33620,369.73,456.62
58.35686,368.12,454.23
58.37507,366.33,452.22
58.39706,369.00,450.30
58.41592,366.12,449.63
58.43687,365.54,451.52
58.45491,368.05,451.02
58.47551,365.18,449.46
58.49543,366.05,453.38
58.51648,366.81,452.21
58.53606,363.78,451.63
58.55676,363.62,452.55
58.57546,363.26,450.72
58.59673,366.17,451.10
58.61491,364.72,450.48
58.63650,363.90,450.83
58.65591,365.43,451.83
58.67537,365.04,453.22
58.69579,364.72,449.94
58.71627,363.81,449.86
58.73649,363.87,452.60
58.75675,363.40,452.28
58.77581,366.35,452.66
58.79592,364.07,451.32
58.81592,366.16,451.62
58.83648,364.15,452.42
58.85599,364.48,451.75
58.87689,365.69,450.72
58.89605,366.23,450.78
58.91561,365.15,452.17
58.93501,364.81,450.56
58.95597,362.59,454.02
58.97543,363.68,450.78
58.99523,363.74,452.93
59.01679,366.00,453.02
59.03554,364.31,450.23
59.05664,364.07,449.74
59.07537,364.70,452.50
59.09592,364.42,451.19
59.11505,363.34,451.27
59.13515,366.35,452.75
59.15587,363.53,455.19
59.17631,364.76,457.81
59.19540,366.28,465.61
59.21517,369.70,482.25
59.23642,376.72,501.32
59.25647,380.20,520.50
59.27666,382.49,539.36
59.29655,387.46,549.50
59.31537,388.51,562.66
59.33614,391.65,564.57
59.35679,392.69,566.90
59.37690,390.15,569.57
59.39511,390.31,566.73
59.41690,389.38,564.21
59.43678,383.93,561.79
59.45544,381.83,557.39
59.47692,381.02,551.21
59.49599,379.36,551.22
59.51644,376.97,543.63
59.53662,375.81,541.46
59.55616,371.93,539.89
59.57674,370.92,533.56
59.59648,369.54,532.17
59.61561,369.08,527.28
59.63600,367.75,525.37
59.65692,365.20,520.90
59.67542,364.00,518.63
59.69667,365.68,516.28
59.71646,363.80,513.82
59.73505,362.65,510.26
59.75687,360.58,509.02
59.77531,355.69,503.86
59.79626,357.68,503.13
59.81597,354.35,500.33
59.83645,350.26,499.74
59.85654,348.98,497.19
59.87507,352.28,493.95
59.89579,352.62,490.55
59.91521,353.25,487.54
59.93531,352.71,485.33
59.95600,353.69,482.28
59.97566,354.80,481.16
59.99521,359.62,480.93
60.01559,362.31,478.60
60.03537,362.17,477.11
60.05627,361.18,474.03
60.07554,365.00,481.03
60.09545,361.43,478.48
60.11616,356.53,479.13
60.13598,356.18,477.38
60.15563,354.33,475.44
60.17643,352.86,474.14
60.19621,354.70,467.18
60.21576,358.62,466.43
60.23583,359.48,465.73
60.25691,354.83,460.67
60.27504,356.33,461.42
60.29502,360.48,450.53
60.31553,363.98,463.18
60.33495,366.48,471.12
60.35668,366.25,485.60
