Program Time [s],data 0,data 1
3.85563,505.06,565.62
3.87554,503.45,564.3
3.89556,503.96,564.84
3.91557,504.57,565.87
3.93571,502.66,565.1
3.95552,504.72,563.08
3.97559,500.38,559.06
3.99561,501.1,559.65
4.01575,503.68,562.12
4.03558,506.15,564.3
4.05574,506.32,560.84
4.07567,509.65,564.27
4.09558,509.12,565.62
4.11555,506.3,565.69
4.13573,504.64,566.55
4.1556,504.91,567.84
4.17561,503.73,565.27
4.19554,503.58,563.42
4.2156,502.47,562.54
4.23553,500.97,561.83
4.25559,503.38,561.86
4.27556,503.9,562.89
4.29554,504.52,563.51
4.31568,504.02,566.21
4.33555,502.21,566.77
4.35554,502.77,566.01
4.37562,502.62,565.41
4.39662,503.09,564.93
4.4168,503.87,561.74
4.43656,503.5,562.79
4.45657,503.8,561.84
4.47676,502.04,562.67
4.49661,501.83,563.53
4.5176,502.47,566.63
4.5376,502.17,565.5
4.55875,502.34,565.4
4.57854,501.87,563.52
4.59855,501.3,562.42
4.61862,502.04,559.93
4.63854,503.43,561.95
4.6586,504.54,559.76
4.67956,503.63,559.61
4.69975,503.31,558.48
4.71953,503.65,558.39
4.73956,502.52,557.71
4.75964,501.41,555.57
4.77959,499.93,555.65
4.79954,500.14,553.92
4.81964,501.92,552.94
4.83964,501.33,552.95
4.85963,501.47,551.76
4.87954,503.17,552.21
4.89966,501.54,553.17
4.91964,500.83,555.93
4.93961,501.66,555.55
4.96058,502.53,555.84
4.98063,503.63,556.47
5.00074,503.9,555.18
5.02055,504.92,555.14
5.04054,505.34,555.91
5.06083,504.47,557.33
5.08058,503.78,559.26
5.10072,503.62,558.21
5.12052,504.1,557.37
5.14055,508.68,559.1
5.16064,531.14,561.28
5.18063,566.51,567.82
5.20053,612.01,572.46
5.22049,655.41,575.17
5.2406,692.73,575.73
5.26052,718.98,575.19
5.28054,733.99,571.75
5.30061,738.79,569.2
5.32054,734.63,563.96
5.34056,723.9,559.77
5.36056,709.72,555.41
5.38055,691.58,553.33
5.40076,672.46,552.26
5.42055,655.17,552.01
5.44086,638.34,551.81
5.46062,622.47,551.25
5.48083,606.38,551.2
5.50074,593.5,549.96
5.52054,583.2,552.37
5.54055,573.56,552.69
5.56055,564.85,552.55
5.58086,557.68,553.84
5.60076,551.14,555.88
5.62052,544.71,555.3
5.64049,537.57,555.64
5.66057,534.66,556.71
5.68076,537.53,560.97
5.70062,537.62,566.18
5.72057,516.1,579.14
5.74076,477.88,594.71
5.76054,425.1,602.37
5.78062,367.68,599.1
5.80173,314.15,585.68
5.82159,279.72,568.14
5.84259,265.57,553.51
5.86373,265.06,542.41
5.88464,275.05,532.33
5.90475,290.84,523.06
5.92452,309.87,518.65
5.9446,326.9,515.12
5.96451,344.32,513.3
5.98463,362.85,513.84
6.0045,381.08,514.67
6.0246,396.67,518.34
6.04463,412.33,520.87
6.06464,424.07,524.49
6.08454,436.25,528.6
6.10461,447.2,532.88
6.1245,455.76,537.1
6.14464,462.61,541.28
6.16456,469.09,543.82
6.18448,475.27,546.06
6.20455,482.02,548.45
6.22484,486.21,551.16
6.24475,490.17,553.93
6.26463,500.74,558.54
6.28456,506.99,564.23
6.30475,510.99,570.39
6.32477,516.59,570.31
6.3445,516.87,571.25
6.36479,518.7,572
6.38483,519.16,573.4
6.40451,519.73,571.12
6.42453,520.18,570.29
6.44478,520.35,568.44
6.46488,518.08,566.35
6.48465,515.26,564.68
6.50481,513.21,561.54
6.52447,512.37,557.43
6.54461,511.69,556.95
6.56458,510.15,557.16
6.58465,512.72,557.73
6.6057,511.38,560.18
6.62553,509.1,559.74
6.64555,508.28,558.8
6.66652,510.03,560.84
6.68665,509.82,561.27
6.70692,508.06,563.62
6.72653,508.65,564.49
6.7465,510.72,564.79
6.76657,510.17,564.84
6.78674,509.54,565.07
6.80655,509.63,565.85
6.82663,508.3,566.08
6.84656,508.04,565.27
6.86756,507.63,563.61
6.88749,506.11,560.69
6.90758,508.09,557.75
6.92756,507.27,557.8
6.94766,507.42,557.04
6.96751,507.33,558.23
6.98751,507.07,559.59
7.00757,508.65,561.07
7.02754,508.92,562.86
7.04747,509.94,563.68
7.06751,508.95,567.55
7.08757,510.56,565.64
7.10746,510.45,565.71
7.12776,511.36,566.57
7.14756,510.89,565.05
7.16757,509.91,568.24
7.18758,509.13,569.19
7.20751,508.1,568.56
7.22781,505.48,564.24
7.24776,503.79,563.8
7.26775,503.23,562.44
7.28757,504.38,560.55
7.30817,505.11,560.84
7.32748,504.68,559.87
7.3477,503.35,560.9
7.36774,505.48,561.52
7.38749,503.98,560.61
7.40774,505.79,558.09
7.42755,507.83,560.27
7.44773,506.66,563.02
7.46749,506.53,562.61
7.48787,505.42,561.69
7.5075,504.54,559.95
7.52764,505.43,558.56
7.54758,505.15,557.65
7.56764,506.12,555.92
7.58779,507.49,555.34
7.60774,507.99,555.07
7.62863,508.4,556.86
7.64853,507.72,558.68
7.6688,507.37,558.75
7.68851,507.7,561.2
7.70855,507.96,561.36
7.72874,509.57,562.09
7.74864,508.85,561.67
7.76857,508.88,561.74
7.7885,510.71,562.59
7.80875,510.57,564.67
7.82853,509.45,564.74
7.84849,510.16,566.19
7.86855,510.13,565.75
7.88851,510.1,562.8
7.90856,509.28,562.44
7.92852,509.43,561.55
7.94856,507.94,563.04
7.96855,509.15,564.63
7.98851,508.72,563.31
8.00863,506.78,562.85
8.02851,505.62,562.48
8.04871,505.7,564.78
8.0685,508.76,562.82
8.0885,509.61,562.46
8.10858,511.29,562.77
8.12853,509.43,561.01
8.14863,510.14,559.41
8.16858,508.71,558.73
8.1885,508.77,557.58
8.20847,507.22,556.27
8.22865,507.37,553.61
8.24852,507.9,552.89
8.26854,507.52,551.31
8.28847,507.02,553.25
8.30851,506.01,555
8.32857,507.41,557.4
8.34857,509.73,562.12
8.36868,509.98,562.3
8.38853,509.59,563.44
8.40853,510.47,563.95
8.4285,511.97,565.96
8.44865,512.18,567.77
8.46856,529.34,571.41
8.48844,565.28,575.93
8.50849,609.22,580.55
8.52854,654.38,585.44
8.54851,694.3,587.95
8.56852,726.04,585.96
8.5885,743.63,579.37
8.60855,750.71,574.09
8.62853,749.16,567.88
8.64845,737.73,562.3
8.66856,723.39,556.44
8.68854,706.31,553.35
8.70855,687.45,549.08
8.7286,669.36,544.27
8.7485,652.49,545.01
8.76846,636.79,546.81
8.78851,622.83,547.85
8.80852,607.46,549.88
8.82854,594.37,549.9
8.8485,584.9,549.32
8.86854,575.12,550.26
8.88851,568.09,553.61
8.90871,544.88,552.48
8.9285,501.9,551.79
8.94852,443.32,547.43
8.96851,380.66,537.74
8.98853,322.33,526
9.00856,292.06,514.6
9.02845,279.05,508.08
9.04849,279.24,509.86
9.06849,287.19,510.69
9.08855,299.55,511.15
9.10856,314.44,514.12
9.12957,330.55,518.1
9.14959,347.44,523.68
9.16949,365.55,526.14
9.18953,379.64,531.11
9.20947,395.31,536.49
9.22961,407.45,540.59
9.2506,418.56,542.47
9.27058,429.45,542.58
9.29061,439.36,540.26
9.31056,448.29,540.61
9.33048,456.03,540.69
9.35048,461.42,542.75
9.37051,468.54,545
9.39062,471.83,546.2
9.41051,477.67,549.36
9.43047,480.73,554.09
9.45047,485.59,557.07
9.47045,489.27,559.86
9.49049,491.21,562.69
9.51048,493.97,564.15
9.53049,495.38,564.72
9.55053,495.9,564.77
9.57052,499.32,564.02
9.59058,502.06,566.62
9.61161,503.65,567.89
9.63152,504.12,568.91
9.65151,503.09,565.33
9.67151,502.47,563.67
9.69146,503.98,564.53
9.7115,505.18,565.23
9.7315,507.35,566.38
9.75148,507.68,568.9
9.77148,508.14,570.92
9.7916,507.31,572.54
9.81153,508.65,574.83
9.8315,507.52,572.86
9.85155,506.22,571.29
9.87159,505.57,570.83
9.89155,505.46,571.67
9.91161,507.17,567.53
9.93147,508.73,567.23
9.95146,510.79,563.18
9.97144,508.83,561.75
9.99147,508.26,560.8
10.0115,509.21,558.84
10.0315,507.97,557.27
10.0515,508.17,557.02
10.0715,508.34,558.81
10.0916,509.87,557.05
10.1116,508.5,558.04
10.1315,507.2,557.03
10.1515,508.96,555.83
10.1716,509.17,556.26
10.1916,507.53,555.81
10.2115,506.03,557.25
10.2315,505.42,558.6
10.2515,505.94,561.68
10.2716,505.15,562.54
10.2915,505.12,562.23
10.3116,504.7,561.19
10.3317,504.16,561.15
10.3515,503.73,560.52
10.3715,504.18,562.02
10.3916,504.74,559.61
10.4115,506,559.29
10.4317,506,557.23
10.4516,506,559.99
10.4716,506.6,558.79
10.4916,504.88,560.23
10.5116,504.3,561.38
10.5314,503.24,560.71
10.5515,503.79,559.17
10.5715,501.83,559.13
10.5916,501.87,560.11
10.6115,502.69,558.29
10.6316,503.16,558.23
10.6516,503.32,557.18
10.6716,503.26,554.95
10.6916,502.41,556.56
10.7116,501.73,556.45
10.7324,504.18,555.96
10.7525,505.14,553.37
10.7725,507.12,553.49
10.7926,508.69,553.79
10.8126,509.15,556.43
10.8326,507.52,556.95
10.8527,506.62,558.16
10.8726,505.49,556.93
10.8924,505.6,557.14
10.9125,504.68,559.11
10.9327,505.54,557.29
10.9526,506.03,559.63
10.9725,506.23,559.91
10.9926,506.98,559.52
11.0125,506.18,560.22
11.0326,507.75,559.18
11.0535,507.6,561.34
11.0734,506.68,563.07
11.0935,506.14,562.86
11.1136,507.51,563.09
11.1337,506.81,563.67
11.1545,506.05,564.14
11.1744,507.44,566.31
11.1946,511.35,568.45
11.2145,532.68,570.96
11.2346,571.94,574.77
11.2544,619.96,580.41
11.2744,666.56,583.53
11.2946,704.25,585.42
11.3145,730,584.74
11.3346,746.8,583.99
11.3555,749.24,580.39
11.3755,745.59,575.51
11.3955,733.27,569.81
11.4156,714.82,566.45
11.4355,698.86,563.36
11.4555,682.68,560.29
11.4755,663.35,556.43
11.4955,644.68,554.54
11.5157,626.54,554.44
11.5355,612.83,553.55
11.5554,598.87,553.64
11.5754,587.29,554.71
11.5955,576.83,559.57
11.6156,570.07,561.85
11.6355,549.25,565.88
11.6555,506.2,570.51
11.6754,447.56,575.61
11.6955,384.05,574.88
11.7157,326.04,569.11
11.7355,285.03,561.69
11.7555,264.63,553.75
11.7755,260.5,546.6
11.7955,266.6,543.28
11.8155,278.68,541.42
11.8355,295.54,540.74
11.8555,313.84,541.79
11.8755,333.67,542.43
11.8955,354.33,545.35
11.9156,372.87,546.88
11.9355,388.09,551.7
11.9556,401.48,551.56
11.9755,413.78,555.25
11.9955,427.22,556.6
12.0155,438.98,558.08
12.0356,447.58,559.06
12.0555,456.87,560.05
12.0755,461.89,560.64
12.0956,466.91,560.11
12.1155,472.13,559.49
12.1355,476.71,561.79
12.1556,479.76,562.23
12.1765,483.61,562.79
12.1965,487.29,563.23
12.2175,490.63,564.38
12.2374,492.91,563.91
12.2575,495.32,564.73
12.2775,496.86,564.18
12.2975,498.69,565.14
12.3175,505.55,564.52
12.3376,512.04,565.01
12.3574,516.43,566.81
12.3774,519.35,564.25
12.3976,520.68,568.4
12.4175,519.94,569.52
12.4375,520.75,569.81
12.4575,519.4,570.45
12.4775,518.72,569.96
12.4975,516.58,567.57
12.5175,514.46,567.06
12.5375,512.17,567.04
12.5575,511.14,567.84
12.5785,512.51,568.27
12.5985,512.01,569.21
12.6184,512.21,569.37
12.6386,511.36,567.7
12.6584,512.09,566.36
12.6786,510.47,564.29
12.6996,511.18,564.63
12.7197,510.14,563.3
12.7395,509.51,563.04
12.7594,509.41,562.23
12.7795,510.13,561.59
12.7996,509.9,562.47
12.8196,509.12,562.98
12.8396,510.7,563.38
12.8595,511.36,562.5
12.8795,511.69,562.8
12.8996,512.15,562.04
12.9196,510.92,562.23
12.9395,510.14,562.79
12.9595,510.11,562.83
12.9795,508.29,562.86
12.9994,506.63,564.49
13.0195,505.9,561.79
13.0395,505.12,562.83
13.0595,505.5,561.67
13.0794,505,560.13
13.0994,504.8,559.11
13.1195,503.44,560.69
13.1395,503.75,559.95
13.1595,503.2,559.76
13.1805,504.36,560.41
13.2005,503.69,558.93
13.2216,503.75,558.94
13.2418,506.8,559.55
13.2616,506.64,558.84
13.2818,507.11,558.47
13.3016,507.49,558.18
13.3217,506.19,557.34
13.3416,508.35,555.67
13.3616,508.08,554.74
13.3815,510.07,554.99
13.4016,509.05,556.99
13.4215,509.44,557.99
13.4415,508.15,557.4
13.4624,509.12,555.92
13.4825,510.1,557.73
13.5026,511.08,556.99
13.5228,512.26,556.79
13.543,512.41,556.23
13.5627,510.93,556.59
13.5824,510.74,555.27
13.6028,508.99,557.21
13.6228,507.4,558.77
13.6427,507.32,558.82
13.6626,509.25,558.25
13.6827,509.4,557
13.7027,511.12,555.6
13.7229,511.5,555.28
13.7426,510.4,552.03
13.7626,509.72,553.02
13.7828,508.77,552.22
13.8027,508.22,552.37
13.8226,510.18,551.7
13.8425,511.54,550.56
13.8625,511.83,550.85
13.8825,511.27,550.88
13.9026,510.01,553.3
13.9225,528.21,554.84
13.9427,564.77,554.87
13.9627,613.21,557.7
13.9827,662.77,559.36
14.0028,704.02,560.69
14.0226,732.41,559.75
14.0425,746.13,558.2
14.0626,747.7,556.56
14.0827,738.16,554.25
14.1027,723.53,551.2
14.1227,705.42,550.16
14.1426,685.74,547.73
14.1625,667.39,546.78
14.1825,652.51,546.03
14.2027,635.01,546.82
14.2228,619.61,546.46
14.2427,605.49,548.16
14.2626,592.59,549.13
14.2825,580.27,550.91
14.3027,572.42,551.32
14.3226,565.13,552.86
14.3424,547.51,554.89
14.3625,507.21,560.91
14.3826,448.96,568.53
14.4025,386.57,568.42
14.4226,339.06,564.94
14.4425,313.25,560.55
14.4626,301.4,557.04
14.4825,302.52,550.63
14.5028,309.61,546.51
14.5227,320.89,545
14.5426,336.31,544
14.5626,351.45,544.2
14.5825,367.76,544.96
14.6029,380.41,544.37
14.6227,395.73,545.5
14.6428,408.18,547.6
14.6625,420.34,547.88
14.6827,426.48,550.1
14.7028,429.38,551.88
14.7229,434.9,552.11
14.7426,441.92,551.48
14.7626,448.34,552.19
14.7825,455.07,551.55
14.8026,459.86,554.44
14.8228,465.89,553.75
14.8427,469.91,556
14.8628,472.53,556.6
14.8825,478.02,557.68
14.9025,481.82,557.54
14.9224,487.25,558.44
14.9426,488.4,559.95
14.9625,492.12,558.96
14.9826,493.5,559.77
15.0028,495.4,559.61
15.0229,496.12,560.29
15.0425,497.09,559.23
15.0625,498.88,560.79
15.0825,499.7,560.03
15.1026,501.16,559.62
15.1226,501.33,559.9
15.1428,502.66,560.52
15.1625,502.33,560.82
15.1824,501.46,562.05
15.2027,502.77,562.04
15.2228,502.82,560.63
15.2428,504.25,560.71
15.2627,504.2,561.37
15.2826,504.36,560.49
15.3028,504.09,559.79
15.3226,505.87,558.64
15.3427,506.3,558.31
15.3626,505.64,557.25
15.3826,509.11,558.2
15.4028,511.49,557.96
15.4228,511.99,557.97
15.4426,511.39,558.77
15.4625,511.11,560.02
15.4825,511.09,559.41
15.5026,512.07,561.53
15.5227,510.86,560.43
15.5426,510.89,560.74
15.5626,510.31,559.59
15.5827,510.85,558.47
15.6027,510.28,557.38
15.6228,509.62,557.5
15.6425,509.7,558.6
15.6626,510.96,559.08
15.6825,511.77,559.47
15.7026,510.41,562.37
15.7228,511.93,563.1
15.7426,510.94,561.88
15.7626,511.76,560.5
15.7825,510.8,560.6
15.8029,510.44,559.08
15.8225,509.55,559.07
15.8428,511.04,560.05
15.8627,509.84,559.84
15.8825,511.07,559.47
15.9026,511.65,559.38
15.9226,510.12,557.5
15.9426,508.7,557
15.9627,509.56,557.8
15.9825,509.25,559.04
16.0025,508.4,558.63
16.0224,508.32,558.31
16.0429,508.05,558.05
16.0631,508.44,559.04
16.0826,509.35,557.83
16.1025,506.48,556.06
16.1226,506.19,554.65
16.1424,506.95,553.52
16.1626,505.96,552.82
16.1825,506.57,553.85
16.2027,504.85,556.08
16.2225,505.08,556.87
16.2427,503.47,559.09
16.2626,505.57,560.07
16.2826,502.26,558.46
16.3025,502.21,555.17
16.3226,504.57,556.93
16.3425,504.65,556.95
16.3625,504.92,557.36
16.3826,507.34,556.69
16.4025,504.87,555.35
16.4226,505.3,556.68
16.4425,505.24,559.14
16.4625,505.59,561.91
16.4827,504.27,562.53
16.5029,505.42,563.63
16.5228,503.73,563.1
16.5425,502.99,564.28
16.5626,502.99,565.02
16.5825,504.19,563.82
16.6026,503.95,562.46
16.6225,504.76,562.36
16.6428,504.21,562.29
16.6624,504.57,562.03
16.6826,504.85,561.83
16.7029,504.88,559.86
16.7226,504.11,558.49
16.7427,506.09,560.19
16.7625,506.07,561.15
16.7825,506.05,562.72
16.8032,508.44,563.98
16.8228,508.16,563.98
16.8428,507.12,562.99
16.8627,508.9,562.99
16.8827,507.52,561.19
16.9026,505.02,560.55
16.9226,503.61,560.04
16.9428,503.09,559.63
16.9625,502.07,560.11
16.9825,502.46,559.49
17.0025,502.37,558.59
17.0234,502.89,560.87
17.0436,502.11,562.1
17.0637,502.89,563.28
17.0836,502.91,564.42
17.1036,502.13,562.54
17.1234,503.3,561.83
17.1436,504.84,562.66
17.1634,505.67,560.93
17.1836,505.54,561.54
17.2035,504.63,559.84
17.2236,504.11,562.07
17.2435,502.28,562.65
17.2634,509.23,563.32
17.2834,539.18,565.46
17.3035,584.15,566.57
17.3237,633.12,565.85
17.3434,675.09,565.88
17.3634,707.07,565.31
17.3835,726.46,567.05
17.4035,732.97,565.44
17.4236,729.77,563.75
17.4435,718.62,558.6
17.4634,706.3,556.88
17.4838,691.04,553.7
17.5035,675.23,554.16
17.5234,658.38,557.13
17.5434,643.91,559.9
17.5637,627.33,563.52
17.5834,611.86,564.02
17.6035,599.69,563.61
17.6245,588.35,566.49
17.6446,578.28,570.59
17.6645,570.02,571.87
17.6846,538.62,578.7
17.7045,484.7,586.76
17.7245,420.36,599.41
17.7455,359.09,599.33
17.7654,315.07,593.26
17.7856,293.45,582.01
17.8055,287.56,569.21
17.8254,291.65,557.97
17.8456,300.72,549.17
17.8654,312.98,542.74
17.8854,327.58,534.99
17.9054,343.67,530.99
17.9254,362.53,529.79
17.9455,378.43,527.44
17.9654,395.14,528.95
17.9854,410.31,528.36
18.0054,421.25,530.29
18.0254,429.6,534.43
18.0454,439.48,536.54
18.0654,446.98,536.23
18.0855,455.79,539.59
18.1054,461.63,540.67
18.1254,466.7,540.94
18.1455,471.16,539.15
18.1654,476.73,542.92
18.1855,479.18,543.54
18.2054,481.35,545.63
18.2255,486.88,548.7
18.2455,486.9,548.56
18.2655,489.72,550.65
18.2858,490.78,550.12
18.3055,493.22,552.7
18.3254,495.58,554.36
18.3458,496.86,556.89
18.3656,497.69,558.71
18.3855,500.95,559.97
18.4056,503.36,561.57
18.4254,505.69,562.46
18.4455,505.55,564.17
18.4655,504.44,566.13
18.4854,506.15,567.31
18.5055,506.72,568.05
18.5254,508.58,568.64
18.5456,508.46,569.71
18.5654,507.77,568.77
18.5855,507.22,568.61
18.6055,508.57,569.09
18.6255,506.86,569.47
18.6454,505.89,569.98
18.6656,505.11,570.18
18.6856,504.89,569.95
18.7054,505.11,569.96
18.7254,504.69,569.97
18.7453,505.15,570.17
18.7658,505.12,567.54
18.7854,505.5,568.83
18.8054,504.6,567.26
18.8254,503.88,565.61
18.8456,504.1,564.89
18.8657,506.28,565.91
18.8855,504.63,566.73
18.9054,504.1,566.58
18.9255,502.88,566.27
18.9456,502.7,564.01
18.9657,501.96,564.41
18.9855,500.37,564.73
19.0053,502.9,568.38
19.0255,505.12,569.51
19.0454,504.29,567.4
19.0655,502.84,568.52
19.0854,503.67,569.62
19.1054,506.13,567.5
19.1254,503.51,566.6
19.1458,502.41,565.68
19.1657,501.52,564.94
19.1854,501.62,562.95
19.2054,499.5,562.16
19.2254,499.6,562.13
19.2454,497.88,559.5
19.2655,497.7,558.6
19.2855,496.76,558.08
19.3054,500.61,558.27
19.3257,501.09,558.41
19.3454,498.07,557.53
19.3654,496.46,555.42
19.3855,497.16,555.34
19.4054,499.53,557.07
19.4258,501.03,560.46
19.4455,502.62,562.37
19.4654,506.7,562.89
19.4855,507.36,561.51
19.5055,512.09,560.81
19.5254,511.87,563.25
19.5455,513.89,561.6
19.5655,512.32,563.48
19.5854,512.65,563.38
19.6054,513.72,565.11
19.6254,513.58,564.49
19.6454,513.66,561.39
19.6657,510.73,560.91
19.6855,511.58,558.33
19.7054,510.27,554.86
19.7254,511.21,555.29
19.7455,508.57,556.03
19.7655,506.46,556.03
19.7857,506.37,556.22
19.8055,504.89,557.18
19.8255,505.91,559.94
19.8455,504.53,561.75
19.8654,502.42,562.2
19.8858,502.74,560.76
19.9054,501.59,559.21
19.9254,502.47,559.77
19.9454,504.98,560.21
19.9656,504.18,560.37
19.9855,501.75,560.1
20.0056,501.8,559.88
20.0255,504.24,559.3
20.0455,503.19,560.64
20.0656,503.55,559.31
20.0855,503.04,560.45
20.1055,504.23,560.76
20.1255,503.39,563.41
20.1454,504.11,561.73
20.1656,505.29,559.58
20.1854,505.23,558.47
20.2055,507.78,557.77
20.2254,509.03,556.22
20.2455,508.42,554.77
20.2655,508.74,552.42
20.2855,508.79,552.54
20.3054,510.63,552.03
20.3254,510.11,551.02
20.3458,509.08,551.82
20.3655,509.27,553.25
20.3855,507.21,552.6
20.4054,509.97,553.48
20.4254,509.58,553.79
20.4455,507.86,553.63
20.4655,507.89,552.5
20.4854,506.91,554.2
20.5054,507.73,555.76
20.5254,507.98,554.61
20.5455,507.79,559.69
20.5653,508.23,557.35
20.5854,507.58,557.28
20.6056,510.07,559.02
20.6265,509.05,559.02
20.6466,505.44,558.82
20.6666,515.75,560.25
20.6866,545.4,559.4
20.7068,583.72,560.52
20.7267,628.58,562.42
20.7469,670.66,561.33
20.7664,703.53,563.67
20.7865,725.42,564.33
20.8064,734.94,562.87
20.8274,732.55,559.89
20.8474,721.84,557.91
20.8675,706.87,556.53
20.8876,689.1,554.23
20.9077,672.28,551.38
20.9274,654.22,549.1
20.9477,637.58,548.68
20.9675,622.86,545.95
20.9874,608.89,545.16
21.0075,595.31,545.13
21.0275,582.65,542.9
21.0475,571.32,542.92
21.0674,566.06,544.14
21.0874,557.04,548.11
21.1075,550.04,548.29
21.1275,534.43,547.83
21.1474,493.74,551.46
21.1675,437.99,557.57
21.1874,378.8,559.06
21.2076,332.84,557.05
21.2277,307.47,551.64
21.2474,298.58,547.51
21.2674,297.86,545.61
21.2874,304.89,545.09
21.3074,316.11,542.47
21.3276,331.49,542.37
21.3476,345.99,541.1
21.3674,360.99,542.28
21.3875,375.99,542.02
21.4076,393.8,544.82
21.4275,410.64,549.06
21.4474,424.31,548.64
21.4674,435.25,546.92
21.4875,443,547.93
21.5078,452.8,548.15
21.5275,460.84,551.12
21.5473,466.87,551.09
21.5676,475.7,552.67
21.5875,480.96,551.94
21.6074,485.37,552.35
21.6274,490.09,550.48
21.6473,490.27,550.59
21.6676,491.22,551.67
21.6875,493.38,551.33
21.7075,495.5,550.27
21.7277,499.6,550.41
21.7475,500.48,551.13
21.7674,501.78,553.3
21.7874,502.43,552.24
21.8074,501.94,554.8
21.8278,504.35,557.04
21.8475,506.08,556.23
21.8675,506.27,556.18
21.8875,506.81,554.95
21.9075,508.45,554.16
21.9275,509.56,555.93
21.9475,508.85,558.14
21.9674,509.88,557.51
21.9874,510.7,556.01
22.0075,510.76,553.81
22.0274,511.81,555.85
22.0475,510.65,556.28
22.0675,509.72,556.82
22.0876,511.97,555.66
22.1077,510.98,556.13
22.1278,508.38,556.1
22.1475,507.11,558.68
22.1675,506.69,556.94
22.1873,505.75,554.96
22.2076,503,554.76
22.2274,501.8,558.21
22.2476,500.04,560.57
22.2674,499.03,561.06
22.2874,501.43,562.24
22.3075,501.34,559.6
22.3277,503.07,556.68
22.3475,502.06,557.14
22.3674,502.85,556.31
22.3873,505.08,556.05
22.4076,504.66,555.64
22.4276,503.73,552.71
22.4474,503.38,553.57
22.4675,503.71,554.06
22.4874,503.37,552.44
22.5073,503.49,551.16
22.5274,504.99,551.92
22.5474,504.4,550.94
22.5675,504.32,550.75
22.5874,506.85,552.4
22.6075,506.88,551.52
22.6274,506.11,551.42
22.6475,507.68,550.93
22.6675,506.55,553.35
22.6874,509.44,554.08
22.7075,510.15,554.66
22.7274,509.32,555.93
22.7474,508.26,557.14
22.7675,508.61,556.71
22.7874,506.68,559.17
22.8074,505.75,559.74
22.8274,504.6,560.39
22.8474,504.68,560.91
22.8675,503.94,563.33
22.8874,506.95,562.26
22.9075,507.36,562.01
22.9275,506.69,561.01
22.9474,507.35,561.01
22.9674,507.28,561.41
22.9875,507.83,559.12
23.0076,508.26,558.7
23.0273,508.61,558.76
23.0474,505.49,559.21
23.0674,504.79,558.77
23.0874,504.23,560.01
23.1074,504.79,560.61
23.1275,505.63,560.89
23.1475,506.3,560.31
23.1675,505.44,558.05
23.1876,503.75,557.84
23.2075,501.2,558.67
23.2273,502.96,559.54
23.2473,507.57,559.43
23.2676,532.06,557.34
23.2873,575.64,556.07
23.3076,623.32,555.06
23.3278,671.25,556.45
23.3475,710.4,556.16
23.3675,735.92,557.33
23.3874,752.54,558.66
23.4076,754.63,558.33
23.4278,746.1,555.66
23.4476,733.28,555.53
23.4675,717.43,552.82
23.4877,698.34,552.86
23.5078,679.27,554.09
23.5275,660.62,552.47
23.5474,644.09,551.18
23.5677,627.88,550.94
23.5873,612.9,553.15
23.6074,600.12,553.32
23.6274,587.7,552.46
23.6475,577.36,554.77
23.6684,567.89,561.61
23.6885,555.71,570.69
23.7083,531.17,580.15
23.7285,490.33,583.72
23.7484,438.47,584.98
23.7685,381.37,574.58
23.7884,323.5,560.67
23.8086,275.6,546.73
23.8287,248.08,533.99
23.8485,239.06,525.99
23.8687,241.05,520.59
23.8885,252.64,517.47
23.9083,268.71,516.78
23.9286,287.77,518.62
23.9485,309.62,523.5
23.9683,329.29,525.6
23.9885,353.83,532.08
24.0088,387.27,547.06
24.0284,420.21,560.25
24.0485,442.97,568.2
24.0684,461.98,571.16
24.0885,475.38,573.53
24.1083,485.11,572.82
24.1284,494.08,572.86
24.1484,499.47,572.89
24.1683,503.77,573.31
24.1885,506.82,572.05
24.2086,510.06,571.64
24.2286,511.84,570.31
24.2485,512.08,569.05
24.2683,513.26,569.84
24.2883,514.21,570.47
24.3084,513.17,570.18
24.3286,511.93,569.94
24.3484,510.95,569.15
24.3684,509.96,567.12
24.3885,509.17,565.9
24.4085,508.13,564.92
24.4286,509.31,564.13
24.4484,508.84,562.91
24.4684,508.28,563.93
24.4884,507.62,564.34
24.5086,506.5,564.67
24.5284,505.8,564.54
24.5483,506.04,563.83
24.5685,505.83,562.86
24.5885,505.06,563.69
24.6084,502.85,562.15
24.6284,502.28,563.32
24.6484,502.62,563.26
24.6684,503.9,562.01
24.6884,505.32,562.01
24.7095,504.06,559.6
24.7294,503.64,559.48
24.7493,502.32,558.39
24.7696,500.65,557.71
24.7894,500.32,555.97
24.8094,501.26,555.17
24.8295,502.41,554.14
24.8494,503.12,553.91
24.8695,503.7,553.53
24.8895,504.76,553.62
24.9094,505.81,554.5
24.9294,506.65,556.8
24.9493,507.12,556.64
24.9693,506.89,555.91
24.9895,507.51,556.53
25.0095,510.21,556.22
25.0294,509.37,557.58
25.0494,506.5,557.26
25.0694,507.8,559.61
25.0895,506.84,560.69
25.1094,509.67,562.75
25.1294,509.74,563.2
25.1493,508.39,563.16
25.1694,508.71,562.33
25.1894,508.37,562.66
25.2093,508.49,562.53
25.2294,507.6,563.82
25.2495,508.08,563.46
25.2693,508.26,563.17
25.2895,507.21,564.53
25.3095,506.77,562.43
25.3294,506.21,561.34
25.3493,507.57,562.47
25.3695,507.26,563.18
25.3895,509.21,562.34
25.4095,508.36,563.07
25.4295,509.69,564.46
25.4493,510.55,565.57
25.4694,508.64,566.65
25.4905,508.11,565.92
25.5104,508.49,566.34
25.5304,508.59,565.47
25.5503,509.87,565.38
25.5704,509.1,566.5
25.5905,509.28,566
25.6105,510.22,565.2
25.6303,508.78,567.16
25.6503,508.02,566.33
25.6703,507.62,565.66
25.6904,506.49,565.33
25.7104,506.6,564.46
25.7304,505.68,563.77
25.7503,505.54,565.02
25.7704,505.63,563.41
25.7904,504.31,562.53
25.8105,502.05,563.22
25.8303,517.24,564.18
25.8504,551.59,564.54
25.8713,596.47,562.24
25.8916,641.38,560.39
25.9113,680.7,559.31
25.9314,711.96,556.65
25.9524,731.37,555.32
25.9724,736.1,554.45
25.9923,734.88,552.16
26.0124,725.3,551.73
26.0324,710.84,550.58
26.0524,695.67,551.47
26.0723,678.54,550.97
26.0924,660.43,548.98
26.1134,642.54,549.38
26.1333,626.84,548.91
26.1533,612.27,549.33
26.1735,599.21,549.66
26.1933,587.77,549.93
26.2134,564.02,550.94
26.2333,517.21,552.15
26.2533,457.17,557.12
26.2734,390.74,557.9
26.2935,340.99,559.72
26.3133,312.59,556.98
26.3334,300.87,552.78
26.3533,301.7,550.22
26.3733,308.56,547.98
26.3934,320.25,547.58
26.4133,332.6,548.67
26.4333,347.88,547.33
26.4533,365.1,549.47
26.4733,381.08,549.97
26.4934,395.27,549.18
26.5134,408.81,551.94
26.5333,422.45,551.75
26.5533,432.16,553.2
26.5733,441.33,553.36
26.5933,448.86,552.89
26.6133,455.69,553.31
26.6335,461.95,555.05
26.6534,469.16,557.24
26.6733,474.33,556.99
26.6933,476.66,558.19
26.7133,476.73,559.35
26.7333,477.78,560.28
26.7535,479.83,561.43
26.7733,484.26,562.14
26.7933,485.81,560.71
26.8134,489.25,562.17
26.8334,493.4,561.94
26.8535,496.92,562.15
26.8733,497.93,561.12
26.8933,498.95,560.7
26.9133,500.16,560.76
26.9335,500.53,560.41
26.9535,501.82,560.72
26.9735,504.66,559.98
26.9933,506.93,560.38
27.0133,508.14,561.71
27.0335,509.51,561.97
27.0534,509.61,561.77
27.0735,509.89,560.82
27.0934,510.11,560.45
27.1133,511.29,560.76
27.1333,513.03,560.81
27.1535,515.42,562.05
27.1733,516.54,561.44
27.1933,519.03,561.95
27.2134,517.83,562.56
27.2334,518.06,561.85
27.2535,517.65,559.48
27.2734,517.92,558.38
27.2933,515.93,556.91
27.3135,514.75,554.73
27.3335,515.4,553.18
27.3536,515.12,552.14
27.3735,515.69,552.32
27.3933,516.16,552.05
27.4135,513.92,550.64
27.4334,514.14,551.51
27.4533,512.11,553.41
27.4733,510.89,553.33
27.4933,510.71,552.66
27.5133,512.77,552.13
27.5333,512.82,551.7
27.5536,512.25,551.56
27.5735,512.4,552.85
27.5935,512.72,552.48
27.6135,513.98,552.78
27.6333,510.78,552.23
27.6536,510.63,552.58
27.6735,511.5,551.27
27.6933,509.2,551.61
27.7133,508.36,552.49
27.7334,509.69,552.59
27.7534,510.95,552.27
27.7735,510.96,552.02
27.7934,511.37,552.42
27.8143,510.69,552.73
27.8344,509.76,552.39
27.8544,508.2,553.31
27.8745,507.96,554.85
27.8943,508.37,555.68
27.9145,508.3,557.34
27.9344,507.04,558.27
27.9545,507.03,558.02
27.9743,512.62,558.62
27.9945,537.7,562.89
28.0145,576.76,567.31
28.0343,626.41,579.25
28.0543,676.33,592.4
28.0744,715.06,598.12
28.0945,740.65,597.9
28.1145,756.92,594.12
28.1345,761.94,586.29
28.1544,756.35,578.43
28.1743,747.08,571.75
28.1945,732.46,564.8
28.2145,714.97,557.24
28.2347,693.78,552.39
28.2543,673.62,548.31
28.2746,656.9,544.65
28.2945,640.52,545.72
28.3143,624.21,543.38
28.3345,610.77,542.5
28.3545,598.42,542
28.3753,588.73,542.8
28.3954,563.99,542.64
28.4155,521.19,542.11
28.4353,463.75,539.49
28.4553,399.2,534.99
28.4753,339.76,529.99
28.4956,302.21,523.79
28.5154,282.37,521.04
28.5355,279.09,521.03
28.5554,282.87,521.42
28.5755,294.7,522.34
28.5954,308.76,525.27
28.6153,325.81,529.22
28.6353,344.25,534.17
28.6553,362.4,537.14
28.6753,378.72,541.51
28.6954,391.97,545.41
28.7153,405.98,549.33
28.7353,417.98,551.06
28.7553,428.79,553.25
28.7753,439.83,554.2
28.7955,448.26,555.96
28.8155,457.41,556.57
28.8354,465.73,557.45
28.8553,472.58,557.76
28.8755,473.67,559.21
28.8954,476.33,559.17
28.9153,479.67,558.53
28.9353,482.33,560.63
28.9554,487.07,561.7
28.9753,489.45,562.76
28.9964,491.56,562.61
29.0163,492.85,563.09
29.0363,493.68,563.87
29.0565,492.74,564.5
29.0763,492,564.8
29.0967,494.2,566.04
29.1165,494.16,565.23
29.1366,496.13,564.38
29.1564,496.5,563.31
29.1763,497.4,563.85
29.1963,497.52,563.68
29.2163,498.42,562.54
29.2363,498.53,560.83
29.2563,497.63,559.47
29.2763,500.3,558.37
29.2963,501.64,559.9
29.3163,504.91,559.52
29.3363,505.93,560.02
29.3565,504.94,558.61
29.3764,504.96,557.69
29.3974,504.56,557.55
29.4174,503.25,557.84
29.4376,503.8,558.27
29.4573,502.84,559.42
29.4773,502.07,558.53
29.4973,498.66,558.03
29.5172,497.53,557.82
29.5373,496.22,558.06
29.5573,494.98,558.05
29.5773,493.18,557.44
29.5974,490.95,558.95
29.6173,489.36,560.96
29.6373,487.88,565.17
29.6574,488.91,565.93
29.6775,490.13,568.15
29.6973,490.9,568.12
29.7174,493.52,569.49
29.7374,493.42,568.2
29.7574,494.13,567.36
29.7773,495.31,565.49
29.7973,496.85,563.99
29.8175,498.08,562.59
29.8373,497.46,562.27
29.8576,498.57,562.82
29.8775,498.66,561.85
29.8973,497.72,562.68
29.9174,499.58,561.95
29.9373,500.86,561.16
29.9574,500.29,561.13
29.9774,500.63,562.7
29.9974,502.11,561.76
30.0173,502.68,562.01
30.0374,502.35,563.61
30.0574,500.88,563.49
30.0773,501.3,564.59
30.0973,502.84,563.27
30.1172,503.47,562.42
30.1375,503.58,563.33
30.1575,503.26,563.47
30.1774,521.61,563.97
30.1973,559.29,564.58
30.2174,607.23,567.26
30.2373,653.58,574.01
30.2575,694.47,578.81
30.2772,722.37,577.65
30.2974,735.9,576.32
30.3172,741.12,572.65
30.3375,736.7,568.52
30.3584,725.76,564.22
30.3785,710.61,561.37
30.3984,692.68,557.5
30.4184,673.75,556.2
30.4384,656.2,554.56
30.4583,638.76,553.45
30.4786,625.21,555.36
30.4983,610.37,555.69
30.5182,595.69,557.55
30.5382,584.15,557.44
30.5585,573.52,558.35
30.5784,563.22,559.48
30.5984,555.77,559.39
30.6184,549.42,560.51
30.6385,543.94,563.21
30.6582,519.15,567.97
30.6783,474.52,578.97
30.6984,415.62,585.98
30.7184,355.69,586.38
30.7385,309.15,580.71
30.7584,284.92,573.96
30.7784,276.94,566.17
30.7984,279.35,559.54
30.8182,288.68,554.43
30.8383,303.14,551.14
30.8583,319.72,549.12
30.8785,336.57,547.89
30.8982,353.26,545.91
30.9183,368.61,547.53
30.9383,384.69,547.22
30.9584,399.15,546.78
30.9788,413.92,547.82
30.9986,426.53,549.06
31.0183,435.83,548.25
31.0384,445.86,549.4
31.0583,453.69,550.72
31.0787,461.55,551.17
31.0984,467.24,552.34
31.1184,473.59,552.87
31.1384,477.67,553.3
31.1583,482.34,554.44
31.1783,486.47,557.55
31.1983,488.98,558.64
31.2183,491.58,558.31
31.2383,493.07,559.65
31.2583,494.85,560.32
31.2794,495.28,560.06
31.2994,496.83,559.44
31.3193,498.46,560.16
31.3393,499.97,560.52
31.3593,500.97,560.62
31.3796,501.38,561.1
31.3994,500.1,561.68
31.4193,501.28,560.34
31.4393,501.43,560.07
31.4594,502.74,559.66
31.4793,503.39,557.73
31.4994,503.71,557.78
31.5193,502.57,556.83
31.5394,503.06,557.06
31.5593,501.25,557.05
31.5795,501,558.64
31.5993,502,559.31
31.6193,502.8,558.45
31.6394,505.04,558.16
31.6593,506.83,559.13
31.6794,505.66,558.1
31.6993,506.53,557.28
31.7193,505.23,560.23
31.7395,505.98,558.78
31.7593,504.38,557.62
31.7794,503.71,557.3
31.7994,504.97,555.84
31.8194,504.57,555.47
31.8396,504.66,554.58
31.8594,504.13,553.86
31.8793,506.5,554.09
31.8994,506.6,554.07
31.9194,506.48,553.66
31.9395,506.38,553.53
31.9594,505.91,552.82
31.9794,504.53,553.06
31.9996,505.02,553.25
32.0195,506.82,552.6
32.0393,507.65,552.48
32.0594,504.92,553.78
32.0802,505.94,554.03
32.1003,504.55,555.02
32.1203,504.64,553.42
32.1403,503.11,553.33
32.1603,503.69,552.87
32.1803,504.95,553.69
32.2005,505.36,553.35
32.2203,507.29,553.68
32.2405,507.83,554.55
32.2603,507.47,555.24
32.2805,506.37,554.39
32.3003,504.9,555.31
32.3203,504.32,555.25
32.3403,505.65,555.2
32.3604,505.72,554.36
32.3803,507.38,553.29
32.4005,508.5,553.43
32.4205,507.2,553.54
32.4404,506.56,553.44
32.4604,507.45,553.35
32.4803,506.96,553.68
32.5003,507.17,556.14
32.5203,505.53,555.31
32.5403,506.03,556.05
32.5604,506.22,554.44
32.5803,505.38,552.95
32.6002,507.3,551.96
32.6203,507.24,551.77
32.6403,506.59,551.62
32.6603,506.27,549.89
32.6804,507.02,550.71
32.7013,516.42,551.57
32.7222,548.33,552.66
32.7423,593.67,556.33
32.7623,641.73,557.86
32.7824,687.99,559.89
32.8032,723.59,560.91
32.8232,744.67,562.13
32.8435,754.14,563.1
32.8633,753.51,562.08
32.8834,743.21,559.67
32.9033,729.57,556.73
32.9233,713.05,554.79
32.9432,693.64,552.23
32.9634,675.51,551.18
32.9833,658.61,549.35
33.0034,641.69,549.48
33.0233,624.55,548.18
33.0433,608.84,548.75
33.0633,594.87,547.6
33.0834,583.7,548.68
33.1033,573.36,549.14
33.1234,563.69,549.11
33.1433,555.35,552.49
33.1632,539.88,557.79
33.1833,505.3,572.23
33.2032,453.64,595.99
33.2234,393.51,611.39
33.2434,337.41,610.31
33.2632,297.33,598.25
33.2834,277.66,583
33.3034,272.93,566.8
33.3233,278.54,551.84
33.3433,291.04,539.87
33.3634,307.83,532.3
33.3834,325.66,525.64
33.4043,342.53,523.31
33.4242,359.02,521.65
33.4442,375.42,522.72
33.4643,390.34,524.77
33.4842,402.87,528.22
33.5046,415.69,531.18
33.5245,425.56,532.34
33.5444,435.84,534.87
33.5643,444.48,537.9
33.5845,453.18,540.52
33.6045,460.34,542.21
33.6244,465.68,543.57
33.6442,470.74,546.06
33.6642,475.99,547.45
33.6842,479.59,548.36
33.7042,484.08,548.69
33.7244,487.46,549.55
33.7445,490.17,551.04
33.7643,491.93,551.63
33.7843,494.55,554.5
33.8054,495.64,554.6
33.8253,495.91,554.88
33.8452,497.93,556.31
33.8654,499.34,557.45
33.8855,498.47,559.16
33.9052,498.98,562.12
33.9254,499.78,562.7
33.9454,501.03,564.36
33.9654,501.42,566.09
33.9854,501.34,566.07
34.0052,502.47,565.86
34.0253,501.38,564.89
34.0453,502.3,564.11
34.0656,503.04,562.09
34.0853,503.03,562.27
34.1053,503.63,563.22
34.1254,503.9,562.17
34.1453,504.52,563.14
34.1652,505.62,562.91
34.1854,505.69,563.53
34.2053,504.55,563.62
34.2252,504.44,564.5
34.2455,505.35,564
34.2653,504.68,565.6
34.2854,504.75,564.68
34.3052,505,564.34
34.3255,504.6,564.47
34.3453,504.28,562.78
34.3653,504.42,563.42
34.3853,503.94,563.74
34.4053,504.75,564.79
34.4253,504.2,563.03
34.4454,503.76,564.23
34.4656,504.21,563.58
34.4852,503.77,564.46
34.5053,504.61,564.57
34.5253,505.29,565.06
34.5457,505.43,565.85
34.5654,505.95,565.68
34.5852,506.16,565.94
34.6054,506.93,565.75
34.6253,505.34,565.6
34.6454,505.67,565.88
34.6653,504.74,564.51
34.6853,504.39,566.6
34.7055,504.51,566.08
34.7253,505.21,565.47
34.7455,505.97,566.37
34.7653,505.17,565.9
34.7854,503.94,567.52
34.8055,504.35,568.22
34.8254,504.28,567.37
34.8452,504.62,567.5
34.8654,504.9,566.8
34.8853,504.32,566.84
34.9052,503.66,566.07
34.9254,503.92,566.26
34.9454,502.94,566.81
34.9652,502.95,566.04
34.9853,503.56,565.64
35.0054,503.25,566.51
35.0255,504.8,566.61
35.0463,505.24,566.69
35.0662,505.99,566.95
35.0864,504.99,566.76
35.1065,512.19,567.01
35.1264,538.36,568.21
35.1465,579.88,567.76
35.1664,628.51,569.61
35.1864,673.01,572.89
35.2064,709.8,574.91
35.2266,737.64,577.73
35.2463,750.72,576.78
35.2672,752.97,574.23
35.2872,745.78,573.38
35.3073,732.02,570.11
35.3273,715.42,566.88
35.3474,696.93,564.71
35.3673,678.35,563.57
35.3872,660.48,561.65
35.4075,644.58,560.32
35.4272,628.67,559.66
35.4473,614.33,558.33
35.4672,599.47,556.66
35.4873,586.97,557.13
35.5073,576.78,556.7
35.5273,567.82,556.36
35.5472,558.46,557.29
35.5672,551.17,557.43
35.5872,547.13,558.55
35.6072,542.11,559.84
35.6274,538.29,561.27
35.6474,516.83,562.42
35.6672,476.06,564.73
35.6873,422.85,569.99
35.7077,365.68,572.19
35.7274,313.94,568.55
35.7473,283.76,562.04
35.7672,271.2,554.83
35.7873,271.16,549.67
35.8084,281.33,546.93
35.8285,295.66,544.55
35.8483,312.33,543.04
35.8683,330.47,543.63
35.8882,348.77,544.1
35.9082,365.82,545.88
35.9293,382.85,545.91
35.9493,396.88,547.73
35.9693,409.91,549.18
35.9893,423.53,550.14
36.0092,433.82,553.12
36.0294,444.26,554.09
36.0493,451.8,556.07
36.0693,458.04,557.66
36.0892,463.84,559.13
36.1093,469.07,559.7
36.1293,473.45,560.16
36.1495,479.56,561.93
36.1692,484.25,561.94
36.1893,487.8,563.75
36.2102,491.44,564
36.2302,493.55,563.6
36.2504,492.24,563.68
36.2702,491.19,564.15
36.2904,490.95,565.12
36.3103,491.16,564.69
36.3303,491.93,564.35
36.3505,491.34,564.28
36.3702,492.08,564.03
36.3903,493.46,562.22
36.4113,494.57,561.18
36.4324,497.45,558.74
36.4532,499.36,557.99
36.4732,501.49,558.19
36.4933,502.59,557.76
36.5132,503.27,558
36.5333,504.02,556.8
36.5533,505.82,556.24
36.5732,505.85,554.79
36.5933,506.68,555.44
36.6143,506.15,554.95
36.6342,505.32,555.36
36.6542,503.85,555.29
36.6743,502.88,555.43
36.6942,502.91,555.34
36.7144,502.52,555.07
36.7353,502.62,554.66
36.7564,503.5,554.73
36.7774,503.4,554.78
36.7983,504.72,556.03
36.8194,505.17,557.02
36.8402,503.54,557.22
36.8601,503.63,557.37
36.8803,503.91,557.3
36.9012,502.92,556.44
36.9212,503.54,557.75
36.9422,504.83,559.4
36.9622,505.27,559.32
36.9822,505.21,559.86
37.0024,504.77,559.69
37.0222,504.42,560.75
37.0422,503.93,561.8
37.0623,504.35,563.44
37.0823,504.68,564.55
37.1023,504.14,565.04
37.1222,506.11,566.63
37.1422,507.69,567.31
37.1623,507.35,567.04
37.1834,507.28,567.24
37.2033,507.03,567.79
37.2243,506.82,567.23
37.2444,505.46,567.78
37.2642,505.17,566.63
37.2844,505.33,564.9
37.3043,505.27,564.92
37.3242,504.81,563.34
37.3442,504.45,564.07
37.3642,506.36,564.26
37.3842,506.29,564.2
37.4042,506.63,564.56
37.4244,507.1,564.85
37.4443,505.48,564.48
37.4642,504.59,564.78
37.4842,504.67,565.23
37.5043,503.34,565.38
37.5244,503.27,566.51
37.5443,502.41,566.4
37.5643,503.33,566.12
37.5842,503.07,566.9
37.6043,503.85,566.12
37.6243,505.28,566.1
37.6442,504.63,565.48
37.6642,506.9,564.98
37.6842,507.12,564.38
37.7042,507.5,562.51
37.7242,509.4,563.41
37.7443,508.92,562.93
37.7642,508.13,563.34
37.7842,511.51,564.47
37.8043,514.61,565.78
37.8253,517.68,567.02
37.8453,520.75,566.82
37.8655,520.8,566.65
37.8854,520.64,565.32
37.9064,521.11,565.26
37.9263,520.89,563.21
37.9473,519.51,560.77
37.9672,520.21,558.41
37.9872,518.17,557.73
38.0072,516.53,555.58
38.0272,512.83,555.47
38.0473,510.06,555.37
38.0672,509.25,552.9
38.0872,508.6,552.72
38.1073,510.48,553.78
38.1272,511.98,556.42
38.1473,510.79,553.54
38.1672,509.03,551.23
38.1872,508.42,549.98
38.2072,501.34,548.59
38.2272,497.47,547.47
38.2472,495.78,546.98
38.2672,493.02,543.38
38.2872,494.42,548.5
38.3072,493.53,549
38.3272,493.63,546.6
38.3472,495.5,546.68
38.3672,495,547.55
38.3872,494.6,546.64
38.4072,495.28,547.91
38.4273,495.82,547.93
38.4472,498.46,547.54
38.4673,501.57,548.03
38.4872,503.45,548.23
38.5075,506.16,549.38
38.5273,505.33,550.31
38.5473,506.26,550.44
38.5673,506.61,549.56
38.5873,507.89,548.84
38.6072,507.51,548.48
38.6273,506.41,548.58
38.6474,506.53,547.86
38.6672,506.62,549.09
38.6872,507.1,547.67
38.7072,506.08,546.74
38.7273,505.26,546.99
38.7473,507.41,548.59
38.7672,507.93,548.67
38.7872,507.74,549.74
38.8072,508.19,550.79
38.8273,506.96,550.23
38.8473,507.56,547.79
38.8672,506.05,547.83
38.8872,505.84,548.06
38.9072,506.47,548.45
38.9273,507.98,549.96
38.9473,509.18,550.57
38.9672,510.35,550.25
38.9872,514.28,550.8
39.0073,503.82,545.24
39.0274,479.46,530.79
39.0473,454.37,517.24
39.0673,438.29,506.39
39.0872,428.43,499.11
