Program Time [s],data 0,data 1
4.45104,476.4,544
4.47112,480.12,543.6
4.49124,483.1,543.08
4.51103,486.68,544.26
4.53141,488.34,544.61
4.55119,490.87,543.49
4.57113,490.5,543.19
4.59109,490.4,541.95
4.61094,492.32,543.76
4.63123,492.06,545.21
4.65102,493.04,547.77
4.67105,495.84,548.81
4.69095,495.67,546.85
4.71108,497.73,545.28
4.73205,500.99,545.82
4.75302,499.39,547.46
4.77296,500.51,548.17
4.79299,499.41,546.13
4.813,499.13,549.31
4.83307,498.7,559.85
4.85306,497.36,570.08
4.87295,497.49,572.66
4.89298,497.59,572.13
4.91309,496.27,572.7
4.934,494.22,570.96
4.95409,495.57,566.57
4.97397,495.06,560.66
4.99402,494.65,560.32
5.01396,493.32,556.46
5.03418,492.45,554.57
5.05409,493.36,554.25
5.07393,492.69,551.8
5.09411,491.55,553.64
5.11399,493.64,552.51
5.13401,492.91,552.01
5.15409,495.53,552.21
5.17406,494.82,551.77
5.19397,493.66,551.61
5.21396,494.53,549.49
5.23409,497.42,545.79
5.25401,498.14,542.83
5.27418,498.91,543.27
5.29407,498.93,541.61
5.31495,502.54,537.09
5.33495,504.63,526.87
5.35495,506.31,518.9
5.37512,506.85,518.72
5.39506,508.68,519.97
5.41506,507.54,521.18
5.43595,507.83,522.74
5.45597,508.27,524.6
5.47614,509.41,528.08
5.49609,510.93,530.46
5.51595,509.94,532.77
5.53604,509.76,533.81
5.55605,508.4,534.45
5.57606,509.32,537.36
5.59613,510.26,540.69
5.61613,509.21,540.95
5.63595,508.77,542.76
5.65607,510.41,547.41
5.6771,511.13,548.33
5.69708,507.5,549.86
5.71701,507.4,550.09
5.737,505.92,549.67
5.757,505.74,549.74
5.77807,506.59,551.59
5.79794,507.27,551.87
5.8182,506.22,551.7
5.83799,503.97,549.96
5.858,503.58,548.97
5.878,504.46,547.57
5.89807,504.17,547.86
5.91797,500.94,547.89
5.938,498.95,546.71
5.95796,500.36,547.37
5.97808,500.49,546.89
5.99795,500.99,545.52
6.01802,499.39,545.81
6.03805,499.11,544.45
6.05806,497.09,542.36
6.07899,497.27,541.09
6.09896,497.62,540.67
6.11899,496.69,538.34
6.13906,499.16,538.87
6.15901,501.12,538.3
6.17895,501.1,539.04
6.19896,501.28,538.03
6.21902,501.22,537.62
6.24014,499.78,535.5
6.26113,498.02,533.8
6.2821,498.62,532.04
6.30295,499.09,532.43
6.32308,497.28,532.74
6.34404,498.22,532.8
6.36398,497.58,534.04
6.38397,498.06,533.83
6.404,498.45,534.66
6.42396,496.56,536.33
6.44398,496.65,537.26
6.46403,496.32,537.41
6.48395,495.05,537.73
6.50396,497.04,537.58
6.52407,500.23,536.07
6.54414,499.99,537.25
6.565,501.39,536.8
6.58595,501.31,537.04
6.60609,501.25,537.83
6.62599,501.8,538.47
6.64603,501.84,539.77
6.666,502.87,538.02
6.68593,501.3,537.42
6.7061,502.04,536.93
6.72611,501.83,537.15
6.74703,502.86,537.92
6.76712,502.89,538.53
6.788,501.91,538.03
6.80804,501.73,538.62
6.82797,500.98,538.5
6.84805,501.39,540
6.86795,500.71,539.4
6.88799,500.17,539.32
6.90898,501.33,539.25
6.93021,502.07,541
6.95001,501.05,541.8
6.97002,502.84,542.04
6.99002,502.87,542.23
7.01009,501.9,542.39
7.02999,501.72,543.31
7.04994,500.38,544.65
7.07002,500.1,544.92
7.08999,499.68,545.13
7.10996,498.74,546.11
7.13005,499.4,546.69
7.14998,498.52,547.35
7.17101,499.21,547.68
7.19103,498.37,547.54
7.21103,498.7,547.63
7.23096,499.16,546.51
7.25097,499.13,546.81
7.27105,499.7,546.84
7.29096,498.76,547.48
7.31097,499.21,547.18
7.331,499.97,545.34
7.35097,499.57,544.08
7.37101,500.26,544.66
7.39094,500.21,545.33
7.41096,500.37,545.66
7.431,499.29,545.13
7.451,498.83,546.1
7.471,499.67,544.88
7.492,499.53,544.91
7.51195,501.23,545.13
7.53194,500.78,545.9
7.55211,500.63,545.12
7.57205,500.1,546.7
7.59213,500.28,546.96
7.61196,500.62,546.57
7.63212,500.5,546.65
7.65195,502.2,547.32
7.67223,502.36,546.46
7.69218,501.69,545.77
7.71208,501.75,546.21
7.733,502.2,546.77
7.75295,501.76,546.02
7.77312,502.81,544.61
7.79293,502.65,547.09
7.81299,502.52,546.27
7.83295,502.61,545.22
7.85306,501.89,544.37
7.87307,501.51,544.5
7.89297,500.61,544
7.913,501.09,542.8
7.93291,500.47,542.44
7.95295,501.38,541.95
7.97296,501.7,541.96
7.99315,501.16,543.77
8.01342,501.53,544.02
8.03405,501.02,543.41
8.054,501.02,543.33
8.07414,499.81,544.66
8.09398,499.45,544.33
8.11399,499.56,544.86
8.13396,499.25,545.49
8.15401,498,545.59
8.17393,498.8,546.67
8.19395,498.44,548.14
8.21396,498.95,547.91
8.234,498.96,548.33
8.25401,499.37,548.46
8.27399,499.7,548.37
8.29395,500.56,547.7
8.31414,499.84,547.96
8.33409,500.48,548.17
8.35391,501.38,547.73
8.37399,501.1,547.19
8.39402,501.48,547.35
8.41403,501.39,546.88
8.43399,501.31,545.9
8.45396,502.05,545.32
8.474,502.24,546.06
8.49416,502.79,545.25
8.51416,502.83,544.6
8.53411,502.87,543.08
8.55396,501.89,543.06
8.57395,501.91,543.25
8.59408,501.13,544
8.61411,500.71,544.4
8.63394,501.36,543.92
8.65419,501.89,542.74
8.67421,501.11,542.59
8.69425,500.29,543.27
8.71416,501.03,542.02
8.73416,501.03,542.61
8.75409,500.22,543.29
8.77411,500.98,542.43
8.79403,500.18,542.95
8.81413,500.54,543.56
8.83395,500.24,544.45
8.85398,499.99,543.76
8.87418,500.39,542.61
8.89399,499.91,542.68
8.91412,499.93,540.95
8.93403,500.14,540.56
8.95403,500.52,540.85
8.9741,500.01,541.88
8.99396,499.81,542.5
9.01398,501.05,543.6
9.03397,502.64,543.48
9.05395,502.91,543.38
9.07425,502.93,542.91
9.09397,503.54,541.93
9.11411,502.43,542.14
9.13393,502.95,543.31
9.15402,508.16,544.65
9.17397,531.73,546.52
9.19398,573.18,548.62
9.21395,625.14,548.69
9.23397,673.92,544.95
9.25397,712.33,539.36
9.27399,738.47,532.09
9.29403,753.57,525.67
9.31393,755.46,521.74
9.33399,746.37,518.59
9.35405,730.69,515.47
9.37404,711.55,513.78
9.39404,691.84,513.62
9.41404,671.47,514.1
9.43411,653.58,515.68
9.45395,637.06,517.74
9.47399,621.05,520.39
9.49411,605.24,522.32
9.51399,592.39,524.85
9.53403,579.31,526.68
9.55409,569.65,527.75
9.57405,560.12,529
9.59404,551.5,529.8
9.61405,545.2,530.04
9.634,539.96,531.43
9.65409,533.97,532.74
9.67496,522.97,534.8
9.69499,487.38,544.44
9.71496,431.1,565.95
9.73504,365.28,580.96
9.75495,304.63,584.57
9.77504,267.3,582.45
9.79497,252.04,573.76
9.81503,249.83,564.81
9.83493,256.47,556.85
9.85497,269.57,549.28
9.87491,286.46,546.02
9.89502,304.97,543.82
9.91512,323.57,543.45
9.93508,342.26,542.76
9.95494,360.01,541.61
9.97493,375.61,542.49
9.99508,390.68,542.19
10.0151,404.75,542.95
10.0352,418,541.96
10.055,429.4,541.77
10.0749,438.52,541.22
10.0949,445.61,542.57
10.1151,451.69,541.66
10.1351,457.75,542.53
10.1551,462.8,543.02
10.175,469.64,542.02
10.195,474.51,541.21
10.2151,478.21,541.17
10.235,481.17,541.54
10.2552,482.74,541.03
10.2753,485.79,540.22
10.295,487.63,539.58
10.3155,488.5,539.86
10.335,490.2,539.69
10.3552,490.76,538.95
10.3752,491.01,539.56
10.395,491.61,539.45
10.4151,491.49,540.56
10.4351,492.79,540.25
10.4551,493.63,540
10.4751,494.51,541.2
10.495,496.2,541.16
10.5151,496.16,541.13
10.5359,495.53,540.1
10.556,496.02,539.48
10.5759,496.42,541.39
10.5961,495.94,540.51
10.6171,496.35,540.41
10.638,495.88,539.73
10.658,497.7,538.98
10.678,497.76,538.18
10.6979,497.81,538.15
10.718,496.45,536.72
10.738,497.16,536.97
10.7581,497.33,537.18
10.7791,497.46,537.54
10.7989,496.97,537.83
10.8189,497.38,538.07
10.839,497.5,538.25
10.859,496.8,539.6
10.879,497.44,539.08
10.899,498.15,537.47
10.919,498.32,538.17
10.939,498.66,537.34
10.959,498.93,536.87
10.979,498.14,537.3
10.999,497.91,537.24
11.02,498.93,537.19
11.0402,499.54,537.55
11.0609,499.64,538.64
11.0811,499.31,540.11
11.101,500.45,540.69
11.121,500.16,540.95
11.141,500.73,542.16
11.161,500.78,541.93
11.1809,501.42,540.94
11.201,501.14,540.95
11.2221,500.91,541.36
11.2419,500.33,542.89
11.2621,499.26,544.91
11.283,497.61,545.93
11.303,498.09,545.14
11.323,498.47,546.32
11.343,498.38,546.85
11.3629,499.7,546.88
11.383,500.76,546.11
11.403,499.61,545.88
11.423,499.29,545.91
11.4431,499.83,546.73
11.463,499.46,545.98
11.483,499.37,544.38
11.5038,500.1,543.91
11.5229,499.88,543.33
11.5431,499.3,543.66
11.5632,498.04,543.53
11.583,497.03,544.22
11.6032,496.63,544.58
11.6231,495.7,545.46
11.6434,506.56,546.37
11.6633,537.05,546.5
11.6829,582.24,541.8
11.7029,631.59,540.24
11.7232,678.47,536.39
11.7433,718.58,533.51
11.7632,746.66,530.61
11.7831,759.33,528.69
11.803,761.66,528.15
11.8229,755.53,527.12
11.8431,743.03,527.1
11.8629,726.22,527.48
11.883,707.38,526.58
11.903,688.5,525.47
11.9232,668.8,526.77
11.9431,649.24,528.22
11.963,631.99,529.37
11.983,615.79,530.5
12.0031,602.44,531.8
12.0229,587.95,534.84
12.0431,576.76,536.87
12.0629,566.01,539.7
12.0829,556.81,542.16
12.103,546.04,547.73
12.123,513.24,564.78
12.1431,463.39,592.02
12.1629,402.31,611.62
12.1829,340.25,619.5
12.2031,288.6,614.6
12.223,259.08,603.28
12.243,247.86,590.22
12.263,249.89,577.38
12.283,259.51,565.5
12.303,275.21,555.2
12.3232,291.57,546.96
12.3431,310.85,541.57
12.3631,328.08,537.46
12.3829,341.47,532.96
12.4029,355.77,531.17
12.4229,370.42,529.34
12.443,384.93,528.67
12.4631,396.55,528.94
12.4839,408.84,530.15
12.5042,420.07,530.12
12.524,431.06,532.3
12.544,441.25,534.04
12.564,448.4,537.03
12.5849,456.12,537.22
12.6049,461.69,538.78
12.6249,468.15,540.22
12.645,472.72,539.78
12.6649,476.78,539.82
12.685,480.22,539.46
12.705,483.18,538.17
12.725,485.34,537.33
12.745,487.07,536.07
12.7649,489.06,536.65
12.7851,490.05,536.12
12.8049,492.84,537.1
12.8249,493.67,538.68
12.8451,495.54,539.14
12.8649,495.43,539.71
12.8849,495.94,539.97
12.9049,497.15,541.98
12.9251,497.92,542.98
12.9449,498.74,545.19
12.965,499.19,547.15
12.985,499.75,546.32
13.0051,499.2,547.85
13.025,499.56,545.88
13.0451,500.65,545.31
13.0651,500.12,544.85
13.0849,499.7,543.28
13.105,499.36,542.22
13.1249,498.89,539.98
13.1449,499.31,541.78
13.1649,499.85,543.23
13.1851,499.48,541.98
13.2051,499.78,541.58
13.2251,499.43,541.07
13.2449,498.94,543.05
13.265,498.15,543.44
13.2849,498.92,543.95
13.305,500.14,545.36
13.325,499.91,547.29
13.345,499.53,548.83
13.3653,500.42,548.87
13.385,499.94,548.29
13.4049,501.35,548.83
13.4249,501.68,548.07
13.445,502.34,548.25
13.465,502.68,548.8
13.485,502.54,548.64
13.5051,501.63,548.11
13.5249,501.91,547.49
13.545,502.52,548.19
13.5651,501.02,548.55
13.5849,500.42,548.64
13.6051,500.93,547.91
13.6249,499.75,548.93
13.645,499.4,547.55
13.6649,499.52,547.24
13.6852,499.81,545.59
13.7051,499.65,545.87
13.7249,499.32,545.7
13.7449,500.46,545.16
13.765,500.17,545.53
13.785,500.13,544.82
13.8049,498.71,544.06
13.825,499.56,543.25
13.8449,498.05,543.8
13.8649,499.04,544.44
13.8849,498.23,545.35
13.9052,499.19,545.28
13.9251,498.95,544.62
13.9451,500.56,544.3
13.9649,500.25,543.84
13.985,500.4,545.07
14.005,500.92,546.66
14.0249,500.33,547.53
14.0449,501.87,548.62
14.0649,499.29,549.7
14.0849,516.44,551.96
14.1052,553.35,553.37
14.1249,602.08,555.69
14.1449,655.66,553.95
14.1649,701.33,550.96
14.1849,738.06,546.97
14.2051,759.85,544.18
14.2249,767.48,537.94
14.2449,761.98,532.15
14.2649,748.59,529.12
14.2849,732.07,527.1
14.305,711.46,525.28
14.3249,689.77,523.82
14.3449,671.61,523.26
14.3651,654.89,522.01
14.385,637.91,523.81
14.4051,621.73,524.84
14.4249,607.18,525.08
14.4451,594.95,526.86
14.4649,583.96,527.49
14.4849,573.77,530.59
14.5052,565.41,533.07
14.5251,557.53,534.86
14.545,550.22,534.89
14.565,544.38,535.31
14.5851,539.5,536.85
14.6054,534.6,536.48
14.625,530.88,537.38
14.6452,530.91,538.51
14.6653,507.72,540.8
14.6854,460.18,547.44
14.7051,400.34,561.76
14.7251,339.87,573.6
14.7451,290.3,577.48
14.765,265.64,578.59
14.785,256.31,573.67
14.8051,258.45,567.14
14.825,268.36,560.51
14.8452,283.29,556.21
14.8652,302.03,552.77
14.8852,321.02,549.21
14.905,339.62,546.57
14.9251,356.7,544.66
14.945,368.96,542.72
14.965,382.57,541.98
14.9851,395.25,540.58
15.0051,407.8,540.27
15.0249,420.24,539.61
15.045,430.39,539.49
15.0649,439.11,540.79
15.085,447.69,539.23
15.1051,454.75,538.39
15.1249,461.8,536.11
15.145,468.24,537.29
15.1651,472.79,537.03
15.1849,477.03,537.22
15.2049,480.63,537.58
15.2251,484.7,538.26
15.245,486.36,538.61
15.2651,487.89,538.89
15.2849,489.11,540.31
15.3049,490.29,542.25
15.3249,491.63,542
15.3451,493.11,541.4
15.365,496.28,541.12
15.3849,497.03,541.1
15.4049,495.82,542.48
15.425,498.06,543.98
15.4451,498.65,544.78
15.4649,497.72,545.23
15.4849,497.97,546.78
15.5049,497.98,547.43
15.525,500.18,548.94
15.5452,501.35,549.15
15.5649,500.68,549.72
15.5849,500.94,549.58
15.605,501.55,549.26
15.6249,502.44,548.81
15.645,503.15,548.25
15.6649,504.32,547.6
15.685,506.86,547.48
15.7051,508.09,546.38
15.7252,508.47,544.91
15.7452,506.98,543.73
15.7651,507.38,542.78
15.7851,507.3,541.42
15.8053,507.24,540.54
15.825,506.59,539.83
15.845,506.48,539.67
15.8649,505.78,540.73
15.8849,504.02,540.39
15.905,504.62,540.51
15.9249,505.3,539.81
15.9449,505.64,539.45
15.9649,506.31,539.16
15.9851,506.45,538.53
16.0052,506.16,540.22
16.0249,506.53,540.38
16.046,506.62,540.5
16.0659,506.9,540.8
16.0861,506.92,540.64
16.1059,506.13,541.11
16.1261,505.71,540.29
16.1461,504.37,542.03
16.1661,503.29,541.43
16.1862,503.03,540.54
16.206,505.23,539.63
16.2261,506.18,539.91
16.246,506.15,540.32
16.2659,505.52,540.06
16.2859,505.81,541.45
16.3059,505.45,541.36
16.3261,504.76,542.29
16.3462,505.21,541.03
16.366,504.57,541.02
16.3859,505.65,541.42
16.407,505.52,541.14
16.4279,506.02,542.11
16.4483,505.41,542.09
16.4679,504.93,542.07
16.4884,505.75,541.26
16.5081,504.8,539.2
16.5281,505.24,538.36
16.5483,506.99,536.69
16.568,508.19,537.15
16.5881,507.15,537.72
16.6079,507.32,539.78
16.6281,507.86,541.42
16.648,509.49,540.54
16.6682,508.99,542.63
16.6881,508.59,542.5
16.708,514.87,544.2
16.7291,545.7,549.16
16.7494,590.56,560.53
16.7694,642.65,572.82
16.7891,695.12,581.06
16.8091,735.49,577.65
16.829,764.6,564.92
16.8493,779.08,548.33
16.869,779.06,531.27
16.8892,770.25,516.21
16.9089,755,502.77
16.9288,734,496.42
16.949,714.6,492.93
16.9689,692.48,492.35
16.9893,670.98,492.88
17.0091,651.79,495.3
17.0289,633.23,497.64
17.049,618.98,499.71
17.0689,604.19,503.97
17.0889,593.15,506.98
17.109,580.52,509.78
17.1288,570.22,512.62
17.1489,559.97,515.5
17.1689,551.58,517.8
17.1897,545.46,520.84
17.2089,539.17,523.07
17.2293,534.74,525.46
17.249,529.99,528.37
17.2689,525.39,530.89
17.2891,523.31,532.51
17.309,521.85,535.81
17.3288,502.28,542.65
17.3489,458.22,553.12
17.3689,399.78,569.5
17.389,337.62,584.2
17.4089,284.3,593.16
17.429,252.64,597.33
17.4493,240.11,596.06
17.4689,240.49,587.45
17.4889,248.59,579.16
17.509,266.47,569.53
17.5289,286.18,558.42
17.5489,305.94,553.54
17.569,325.55,548.83
17.59,346.24,544.66
17.61,365.19,540.13
17.6313,381.16,540.1
17.6509,398.12,536.48
17.6709,411.7,533.79
17.6909,422.56,533.63
17.7109,434.65,533.5
17.7312,442.72,533.2
17.7512,449.37,532.36
17.7713,457.7,531.89
17.7914,466.76,530.51
17.8111,470.81,528.61
17.8309,475.45,527.69
17.8514,479.16,529.15
17.8709,481.13,527.52
17.8911,483.7,526.62
17.9111,484.96,526.69
17.931,487.37,523.35
17.952,488.89,523.88
17.9719,489.72,524.51
17.9919,489.97,528.21
18.0122,492.18,528.56
18.0322,493.14,527.45
18.052,495.71,528.76
18.0724,499.37,529.41
18.092,499.3,529.33
18.1118,501.24,533.26
18.132,499.59,533.81
18.1519,500.07,535.45
18.1723,500.46,536.16
18.1923,498.57,538.13
18.2123,497.65,537.9
18.2322,500.12,537.52
18.2522,502.7,537.82
18.2722,501.76,538.65
18.2921,501.81,537.72
18.3119,503.25,539.18
18.332,502,538.74
18.3519,502.4,539.19
18.372,503.52,540.56
18.3922,504.01,541.64
18.4119,504.61,544.12
18.4319,504.69,543.49
18.452,505.75,541.59
18.4719,506,541.88
18.492,506,541.3
18.512,505.2,542.24
18.532,505.96,545.19
18.5519,505.17,546.75
18.572,504.53,548.8
18.592,505.63,548.44
18.612,505.9,548.75
18.632,507.32,545.2
18.652,507.06,543.96
18.6718,505.25,544.37
18.692,505,545.1
18.712,504.6,544.28
18.732,505.68,542.22
18.7521,504.94,538.38
18.772,504.55,537.9
18.792,503.04,540.52
18.8121,503.83,539.02
18.832,503.67,535.81
18.8522,504.13,536.25
18.8722,504.31,534.2
18.8919,502.45,536.96
18.9118,501.56,537.77
18.932,500.05,549.21
18.9519,500.04,540.77
18.9719,499.43,537.82
18.9921,499.14,535.45
19.0121,500.31,534.16
19.032,502.05,532.53
19.052,501.24,531.02
19.072,500.59,531.42
19.0923,500.27,533.74
19.1119,500.42,533.79
19.1319,501.14,534.83
19.152,503.51,537.86
19.172,503.41,544.09
19.192,503.33,544.27
19.2119,502.86,545.62
19.232,500.69,547.89
19.252,503.35,542.72
19.272,504.88,540.17
19.2921,507.7,540.14
19.312,506.76,541.31
19.332,505.61,541.45
19.3519,507.49,542.96
19.3719,507.79,543.57
19.392,508.23,542.65
19.4118,506.19,541.92
19.4319,506.95,543.34
19.452,507.16,542.47
19.4721,506.33,542.98
19.492,507.66,540.58
19.5119,527.53,537.66
19.5319,567.02,537.93
19.5521,619.42,536.35
19.5719,675.94,535.88
19.5919,720.55,534.7
19.6119,753.44,534.16
19.6319,772.55,533.73
19.6519,779.84,532.18
19.672,772.87,529.95
19.692,759.7,527.36
19.7121,742.96,526.69
19.732,721.97,528.15
19.7519,700.17,528.92
19.7719,680.14,528.34
19.7919,659.71,527.47
19.8119,640.97,528.57
19.832,624.58,528.86
19.8518,609.26,530.09
19.8719,595.21,531.87
19.892,579.57,533.7
19.9121,565.25,534.36
19.9321,555.4,534.29
19.9521,547.52,534.83
19.9719,541.42,537.26
19.9919,535.93,540.81
20.0119,532.35,541.85
20.0319,528.68,539.48
20.052,526.54,539.18
20.072,525.63,539.75
20.0919,519.91,543.2
20.1119,517.33,543.16
20.132,514.06,545.13
20.152,507.45,547.9
20.1719,475.96,561.32
20.1919,424.17,578.26
20.212,363.53,586.81
20.2322,304.23,588.64
20.252,260.38,583.12
20.2722,238.91,575.69
20.2922,232.12,567.95
20.3122,235.7,558.76
20.3323,250.56,553.01
20.352,270.65,544.41
20.3718,291.72,538.93
20.3919,310.77,536.94
20.4118,333.22,533.95
20.4321,351.78,534.76
20.452,372.82,533.01
20.4719,389.86,531.81
20.492,405.89,533.85
20.512,417.91,537.48
20.5319,431.53,540.78
20.5519,442.22,541.83
20.572,451.18,540.86
20.592,457.74,541.09
20.6118,464.79,537.67
20.6319,470.63,539.94
20.652,477.51,538.75
20.6718,481.61,538.8
20.6921,487.28,536.04
20.7121,490.83,536.03
20.7319,494.66,534.23
20.7519,496.73,534.38
20.7729,497.78,535.3
20.7931,497.63,534.24
20.8131,495.7,532.79
20.8329,493.16,534.64
20.8528,495.13,535.31
20.873,496.3,536.85
20.893,496.44,539.88
20.9129,495.55,545.1
20.933,495.44,547.08
20.953,497.35,548.27
20.973,498.88,547.01
20.9929,499.71,550.01
21.0128,499.77,549.61
21.033,501.01,550.29
21.0529,501.01,549.43
21.0729,500.41,550.54
21.0929,500.13,551.83
21.1129,500.3,553.67
21.1339,502.24,551.93
21.1539,503.39,551.55
21.1739,504.31,551.44
21.1939,504.45,548.95
21.2141,505.36,546.76
21.2342,505.09,547.41
21.2538,505.47,546.73
21.274,506.58,543.58
21.2939,506.26,545.86
21.3139,504.61,547.69
21.334,504.49,549.55
21.354,505.59,548.84
21.374,504.07,548.67
21.394,503.46,547.54
21.414,504.17,545.83
21.434,503.73,545.27
21.4541,503.79,544.41
21.4739,503.23,544.93
21.4939,503.18,546.54
21.5143,502.15,546.44
21.5338,500.92,545.55
21.5539,503.93,544.84
21.5738,503.55,545.07
21.5939,503.84,545.86
21.6139,503.67,549.09
21.6339,503.94,548.27
21.6539,504.55,547.81
21.6739,504.84,547.45
21.694,504.27,549.16
21.714,504.42,549.53
21.7339,504.33,547.02
21.7538,504.87,547.42
21.7738,504.89,547.33
21.794,504.91,547.47
21.8139,504.13,546.57
21.834,503.71,547.06
21.8541,502.56,546.85
21.8739,504.85,545.88
21.8938,505.08,546.7
21.9141,504.86,546.76
21.9339,506.09,546.01
21.9539,506.67,544.41
21.9742,505.94,544.93
21.9938,506.15,544.54
22.0139,506.92,543.03
22.0339,505.54,544.63
22.054,506.23,545.7
22.074,515.58,548.56
22.0939,547.27,552.05
22.1139,594.21,553.44
22.1343,650.77,555.15
22.1541,704.02,553.32
22.1743,746.01,552.66
22.194,772.01,551.33
22.2138,785.01,548.66
22.2338,785.41,546.33
22.2539,773.33,548.46
22.274,755.26,545.97
22.294,736.41,543.78
22.3142,715.33,541.62
22.334,695.26,540.7
22.3539,674.81,539.76
22.3742,655.65,538.61
22.3938,637.12,537.88
22.4141,620.49,539.51
22.4351,604.8,540.21
22.455,593.84,540.76
22.4748,581.87,539.81
22.495,571.7,540.85
22.515,564.36,542.68
22.5349,529.68,545.14
22.5551,473.95,554.31
22.5748,409.16,560.45
22.595,341.53,562.16
22.6148,287.22,559.13
22.6351,257.38,550.3
22.6548,245.7,543.84
22.6748,246.96,538.87
22.695,257.97,537.7
22.7149,274.98,535.96
22.735,291.78,534.57
22.755,311.82,533.05
22.7748,329.86,533.24
22.795,349.09,534.99
22.8149,368.27,535.4
22.835,385.62,534.72
22.855,400.89,536.37
22.875,414.31,535.7
22.8949,426.25,536.16
22.9152,437.2,537.53
22.935,447.56,536.82
22.9549,456.65,536.46
22.9748,464.32,535.97
22.9949,469.46,537.37
23.0149,474.16,537.7
23.035,478.33,536.76
23.055,480.67,537.01
23.0749,483.13,536.21
23.0948,486.51,536.96
23.115,487.4,536.97
23.135,490.32,536.18
23.1549,491.86,536.54
23.1749,493.49,537.43
23.1948,494.39,537.75
23.2152,496.11,537.8
23.2349,498.09,538.44
23.2549,499.27,538.15
23.2749,499.62,539.12
23.2948,500.69,538.9
23.3152,501.96,536.12
23.3349,501.56,537.89
23.3551,505.05,536.31
23.3749,504.24,536.65
23.3951,504.59,535.92
23.4151,504.07,535.74
23.4352,506.86,536.19
23.4548,508.09,534.95
23.4749,506.47,535.76
23.4948,504.58,536.01
23.5149,506.66,535.41
23.5349,508.13,535.73
23.5549,506.7,536.18
23.5749,507.36,536.94
23.5948,507.89,537.76
23.6154,506.11,538.6
23.6349,506.29,538.48
23.6551,507.03,540.59
23.6749,507.63,542.27
23.6959,508.3,541.82
23.716,507.64,541.25
23.736,507.11,542.6
23.7559,506.69,540.08
23.776,505.75,536.27
23.7958,506,535.81
23.816,506.2,534.25
23.836,505.36,534
23.856,505.49,534
23.876,505.59,531.6
23.8959,506.47,533.08
23.9159,506.18,532.66
23.9362,505.14,531.93
23.956,505.51,533.14
23.9761,506.21,534.92
23.9959,506.17,534.73
24.0171,505.74,535.79
24.0371,504.59,536.83
24.0569,503.27,536.66
24.077,503.82,535.93
24.0968,503.25,537.34
24.1168,503.4,538.08
24.1368,504.12,538.66
24.157,504.3,539.13
24.1768,505.24,539.7
24.1969,505.39,539.16
24.2168,506.31,538.73
24.2368,507.65,539.38
24.257,507.92,539.91
24.2768,507.54,538.73
24.2971,507.03,538.78
24.317,506.42,539.22
24.337,506.34,539.58
24.3569,507.07,539.26
24.3768,508.26,539.21
24.397,508.01,538.37
24.4172,507.4,538.49
24.4369,508.72,538.2
24.4568,507.78,537.96
24.4769,506.42,538.17
24.497,506.94,537.13
24.517,504.95,536.51
24.5368,504.16,536
24.5571,520.13,536.4
24.5768,555.9,537.72
24.5969,604.12,539.38
24.617,655.1,540.5
24.637,702.88,540.8
24.6569,739.9,537.24
24.6771,763.32,534.19
24.697,772.46,530.35
24.7172,772.77,526.28
24.7368,765.21,524.03
24.7569,747.77,522.22
24.7769,729.22,520.78
24.797,709.17,519.82
24.8169,687.94,520.46
24.8368,668.95,520.57
24.8568,651.36,520.85
24.877,633.69,522.28
24.8971,616.55,525.43
24.9172,600.24,526.14
24.9371,588.39,527.91
24.9569,576.71,527.73
24.9768,567.57,528.38
24.9971,558.66,528.51
25.017,551.13,530.21
25.0369,544.7,531.36
25.057,539.36,531.89
25.0769,535.89,533.91
25.0969,508.71,536.93
25.1168,460.17,547.74
25.1368,399.13,560.8
25.1571,334.91,571.44
25.177,281.13,576.75
25.1974,251.5,575.6
25.2173,240.6,569.68
25.2372,243.88,562.54
25.2569,253.3,555.43
25.2768,268.24,551.35
25.2982,286.99,546.88
25.3182,306.6,543.9
25.3382,328.28,541.92
25.358,349.42,538.94
25.3781,367.14,538.95
25.3978,385.31,538.56
25.4183,402.25,538.65
25.4382,416.2,538.12
25.4581,426.76,537.89
25.4778,437.21,536.52
25.498,447.37,534.41
25.5179,454.29,534.33
25.5379,460.43,534.66
25.5579,466.35,535.73
25.5781,472.08,534.59
25.5979,476.66,535.07
25.6178,481.13,536.45
25.6379,484.3,536.76
25.658,487.44,536.41
25.6778,487.95,535.93
25.6978,490.56,535.54
25.7182,492.25,535.63
25.7383,493.6,535.91
25.7581,495.08,535.53
25.778,496.26,536.02
25.798,497.41,536.22
25.8179,497.73,537.57
25.838,497.58,538.46
25.8578,498.27,539.17
25.878,497.61,539.33
25.8978,498.69,540.07
25.9178,498.95,541.65
25.9379,500.76,540.32
25.9578,501.61,541.46
25.978,501.49,541.17
25.9978,501.59,539.73
26.0178,500.87,539.59
26.038,501.7,537.87
26.0579,501.56,538.1
26.0781,502.65,537.88
26.0978,501.92,537.3
26.1183,502.53,537.64
26.138,501.83,537.51
26.1578,502.46,537.21
26.1781,503.17,536.57
26.1981,504.74,536.45
26.218,504.79,536.56
26.2382,506.63,536.65
26.2578,506.9,537.52
26.278,507.12,538.02
26.2981,506.9,537.41
26.3179,506.72,536.13
26.3379,506.78,534.7
26.358,506.02,535.56
26.3781,506.02,535.65
26.3981,507.41,536.92
26.4182,504.13,537.54
26.438,504.9,540.03
26.4578,505.72,540.22
26.4779,507.78,541.38
26.4978,508.02,542.7
26.5178,508.22,542.16
26.5379,509.37,540.53
26.5579,510.3,539.02
26.5782,510.04,538.62
26.5978,510.03,537.5
26.6179,510.83,537.6
26.6378,509.66,537.48
26.658,509.13,538.38
26.678,507.7,539.71
26.6979,505.36,540.36
26.7179,504.49,540.09
26.7378,503.39,540.47
26.7582,502.71,539.78
26.7781,503.17,538.22
26.7979,502.74,536.58
26.8185,501.99,536.86
26.838,501.19,537.09
26.8579,502.15,537.87
26.878,499.92,538.9
26.8979,500.34,539.32
26.9182,499.07,539.25
26.938,498.06,539
26.958,499.45,540.4
26.9782,501.16,540.12
26.998,501.32,541.7
27.018,500.66,541.76
27.0381,519.33,541.21
27.0581,553.26,534.97
27.0781,595.61,529.37
27.0978,644.29,525.5
27.1181,689.43,522.2
27.1381,730.14,521.76
27.1578,757.92,521.81
27.1779,771.73,526.05
27.198,773.79,524.04
27.218,767.63,530.63
27.2379,753.5,527.9
27.2579,734.2,528.32
27.2778,712.96,528.06
27.298,692.57,528.65
27.318,672.66,530.12
27.3379,652.72,528.49
27.3579,636.38,529.4
27.3779,621.7,529.32
27.3978,608.16,529.85
27.418,596.73,530.48
27.4381,584.78,530.39
27.4577,572.83,530.91
27.4778,563.06,532.53
27.4978,554.05,533.02
27.5178,546.44,533.42
27.5382,531.15,537.93
27.558,490.92,550.55
27.5781,433.94,574.04
27.598,369.75,595.83
27.6179,309.8,601.66
27.6379,266.64,595.33
27.6579,242.71,585.47
27.6781,235.17,571.17
27.6979,238.94,559.74
27.7179,251.15,547.19
27.7379,267.72,536.75
27.7579,287.98,529
27.7782,309.18,523.6
27.7979,328.34,520.08
27.8178,348.68,516.46
27.8383,366.94,516.17
27.8578,383.55,518.14
27.878,399.04,518.11
27.8981,412.23,518.89
27.9179,425.59,521.31
27.938,436.27,523.65
27.9578,446.02,523.92
27.9778,454.21,525.73
27.9979,460.57,528.19
28.0181,466.66,529.95
28.0382,472.72,530.16
28.0581,477.18,531.93
28.078,482.14,533.94
28.0978,485.92,534.75
28.118,489.13,537.6
28.138,492.71,537.08
28.1583,494.36,539.07
28.1778,495.89,541.85
28.1979,495.11,541.28
28.218,497.69,541.43
28.2378,499.75,540.74
28.2579,500.2,541.79
28.2778,502.16,542.83
28.2979,501.93,542.07
28.3181,502.14,541.25
28.3378,503.11,537.8
28.3579,503.29,536.24
28.3782,504.03,534.99
28.3979,506.83,536.4
28.4184,507.46,537.52
28.4379,509.17,536.41
28.458,511.54,534.53
28.4778,511.23,536.02
28.4978,510.18,536.22
28.518,507.75,535.18
28.538,504,534.74
28.5582,503.4,535.99
28.578,501.72,537.39
28.5978,501.57,537.72
28.6182,505.66,541.97
28.6381,507.33,545.98
28.6582,506.46,546.58
28.6781,506.17,547.87
28.6979,503.94,548.49
28.7178,502.95,546.99
28.7378,504.96,546
28.7577,506.57,548
28.7779,506.25,546.2
28.7978,505.2,547.76
28.8178,504.76,548.61
28.8377,503.81,547.48
28.858,503.05,544.79
28.8779,502.44,543.23
28.8981,501.55,539.58
28.918,501.44,539.47
28.9378,501.55,539.17
28.9579,502.24,538.74
28.978,502.79,540.19
28.9979,502.83,541.75
29.0181,502.67,540
29.0381,503.13,541.6
29.0581,502.71,542.68
29.0779,502.57,541.35
29.0978,501.65,541.08
29.118,503.32,540.66
29.138,503.86,540.13
29.1581,504.29,539.9
29.1778,505.43,540.92
29.1979,506.94,540.94
29.2178,506.55,543.15
29.2379,508.44,543.72
29.2578,508.55,543.38
29.278,508.64,544.5
29.298,508.12,546.6
29.3179,507.49,547.88
29.3382,506.39,548.1
29.358,506.51,547.08
29.3779,506.21,547.87
29.3978,505.17,547.69
29.4178,503.94,548.95
29.4378,509.35,550.16
29.4578,535.68,550.13
29.4778,580.14,549.7
29.498,633.51,549.56
29.5179,688.61,548.85
29.5378,736.69,547.68
29.5579,766.95,546.34
29.5779,783.96,543.48
29.5978,786.57,540.78
29.6177,777.86,537.22
29.6377,763.48,533.98
29.6578,744.19,532.38
29.6778,722.95,532.51
29.6979,701.76,529.61
29.7181,680.61,528.08
29.7379,660.69,529.07
29.758,642.55,529.05
29.7778,625.04,530.64
29.7978,611.03,531.51
29.8177,597.43,532.61
29.838,585.54,532.69
29.8578,574.63,534.75
29.8783,565.51,537.4
29.8978,556.8,536.92
29.9179,550.04,539.34
29.9378,543.63,540.07
29.958,537.11,541.46
29.9778,535.09,543.16
29.9978,505.27,547.73
30.0178,455.22,559.39
30.0378,393.77,576.91
30.0578,329.62,583.73
30.0778,275.09,582.38
30.0978,247.88,576.9
30.1179,239.7,568.52
30.138,243.16,561.02
30.1583,255.53,554.82
30.178,273.22,549.85
30.1978,292.38,544.28
30.2181,313.5,540.63
30.2377,332.2,539.1
30.2582,352.56,536.48
30.2779,363.45,534.38
30.2979,373.76,531.71
30.3178,385.01,530.77
30.3379,396.41,531.21
30.3578,408.72,531.57
30.3778,418.58,532.06
30.398,428.06,531.64
30.418,436.05,531.52
30.438,444.24,533.41
30.4581,452.39,533.53
30.478,459.91,534.02
30.4981,465.73,534.62
30.5184,470.39,533.7
30.5379,474.51,535.36
30.5578,477.61,536.29
30.578,482.49,537.43
30.5979,484.79,536.94
30.6182,487.63,537.75
30.638,489.7,539.2
30.658,492.76,540.36
30.6777,496.21,541.49
30.6977,498.77,542.39
30.7178,500.81,542.31
30.738,502.65,542.05
30.7582,504.92,543.84
30.7777,505.74,542.47
30.7979,506.59,543.18
30.8177,509.07,542.34
30.8378,509.86,541.47
30.858,509.29,541.38
30.8779,508.83,539.1
30.8979,507.46,539.48
30.9178,506.37,538.59
30.9378,504.7,536.47
30.9577,503.76,536.78
30.9778,504.21,537.82
30.9977,504.56,540.66
31.018,504.05,543.32
31.0378,503.84,545.66
31.0578,504.47,546.73
31.078,504.58,546.98
31.0978,504.66,547.59
31.1179,505.93,547.47
31.1378,507.94,550.17
31.1578,508.16,549.14
31.1778,507.12,545.91
31.198,508.3,545.93
31.2178,508.24,544.14
31.2378,506.59,543.51
31.2578,508.07,541.81
31.2778,510.86,541.65
31.2978,510.69,542.92
31.3178,511.15,544.34
31.3377,509.92,545.67
31.3577,508.74,545.53
31.3778,508.39,544.63
31.3978,508.11,544.7
31.4178,507.89,544.96
31.4378,507.71,544.57
31.4578,506.57,545.26
31.4778,506.05,544.6
31.4978,504.64,545.28
31.5178,504.52,544.23
31.5378,504.61,543.58
31.5578,504.09,541.87
31.5777,504.67,541.09
31.598,505.54,540.67
31.6178,504.83,541.54
31.6378,505.86,540.83
31.6578,506.69,541.06
31.6778,506.35,539.45
31.6978,505.68,540.16
31.7178,504.75,542.13
31.7379,504.4,543.3
31.7579,504.32,542.44
31.7778,502.45,542.35
31.7978,503.96,543.68
31.8181,504.17,543.35
31.8378,504.54,544.08
31.8581,503.83,544.86
31.878,504.06,545.29
31.8979,504.25,544.83
31.9181,503.8,544.07
31.9378,503.84,545.25
31.9578,504.27,546
31.9779,503.42,547
31.9977,503.93,546.2
32.0181,505.95,545.96
32.0381,506.36,546.77
32.0581,507.09,545.61
32.0779,506.07,544.69
32.0979,506.06,545.95
32.1178,510.04,548.16
32.1377,532.44,550.13
32.1578,574.55,552.5
32.1779,627.44,553
32.1979,679.95,553.2
32.2181,728.36,552.36
32.2381,762.89,550.29
32.2579,785.71,546.83
32.278,789.97,543.47
32.2979,786.37,541.57
32.3178,775.3,539.26
32.3379,758.84,537.61
32.3577,738.47,535.49
32.3778,716.98,533.39
32.3978,694.98,533.51
32.4178,675.19,533.41
32.4378,655.55,534.33
32.458,637.84,534.66
32.4781,621.47,535.53
32.4979,607.18,536.02
32.5181,595.54,536.42
32.538,584.23,535.93
32.5577,574.39,536.15
32.5781,564.91,536.32
32.5982,557.13,536.85
32.6177,549.5,537.08
32.638,544,536.67
32.6578,540.4,536.73
32.6778,535.92,537.99
32.6978,531.94,540.39
32.7179,528.55,543.71
32.7379,527.44,548.17
32.7579,505.75,559.74
32.7779,467.8,584.19
32.7981,417.24,607.15
32.8179,359.79,619.12
32.8378,303.43,617.5
32.8579,257.35,606.8
32.8777,230.88,588.84
32.8979,223.7,572.27
32.9177,228.36,557.62
32.9377,242.89,544.29
32.9578,260.31,532.83
32.9778,281.25,523.47
32.9987,302.6,517.37
33.0191,322.68,515.3
33.0391,341.74,513.04
33.0587,360.59,513.63
33.0792,379.48,513.91
33.099,396.58,513.32
33.1187,410.66,515.26
33.1388,423.13,517.41
33.1589,433.91,518.93
33.1787,442.72,521.94
33.199,451.18,524.35
33.2189,460.74,526.88
33.239,467.59,530.11
33.2589,474.28,532.68
33.2787,479.62,533.75
33.299,483.1,535
33.3188,484.88,535.8
33.3397,486.5,537.04
33.36,488.2,538.03
33.3798,490.96,538.22
33.3998,493.37,540.58
33.4208,495.1,540.66
33.4409,497.28,539.93
33.4608,497.82,540.94
33.4809,499.06,540.36
33.5009,500.65,540.08
33.5207,501.72,540.67
33.5407,502.17,541.13
33.5608,503.14,541.51
33.581,502.51,540.81
33.6009,502.41,540.84
33.6208,502.53,541.08
33.6409,502.42,540.66
33.6609,504.74,539.93
33.681,506.59,539.34
33.7007,506.47,539.67
33.7207,506.58,539.94
33.7407,505.66,540.95
33.7609,505.13,541.76
33.7808,504.7,543.21
33.8009,504.96,542.77
33.8207,504.77,541.81
33.8407,504.02,541.05
33.8609,503.41,540.24
33.8808,504.73,540.59
33.9007,503.38,540.67
33.9207,502.31,541.54
33.9408,502.25,542.43
33.9608,502,541.95
33.9808,503,542.76
34.0007,503.6,541.8
34.0207,503.88,541.24
34.0407,503.9,539.8
34.0608,504.12,538.64
34.081,503.5,538.71
34.1008,504.8,538.37
34.1208,505.04,538.29
34.1409,504.63,537.63
34.1609,505.3,536.11
34.1809,506.04,536.49
34.2009,506.83,536.59
34.2207,507.07,536.27
34.2408,506.65,536.82
34.261,507.32,537.25
34.2809,506.46,539
34.301,506.57,541.2
34.3207,506.25,540.76
34.341,506,540.01
34.3608,506,540.01
34.3807,506.6,539.81
34.4007,506.08,539.44
34.4209,506.07,538.96
34.4408,505.05,538.16
34.4609,504.84,537.33
34.4808,505.87,536.67
34.5009,504.3,536.73
34.5208,504.04,536.79
34.541,504.43,537.83
34.5607,504.34,538.46
34.581,504.08,539.77
34.6009,505.46,539.82
34.6207,506.57,540.25
34.641,506.05,539.4
34.6607,505.84,539.32
34.6807,506.68,539.06
34.7008,505.94,538.85
34.721,507.55,538.88
34.7408,508.84,537.9
34.7607,508.67,538.12
34.7809,508.14,537.7
34.8007,507.11,539.56
34.8209,505.09,540.25
34.8408,521.87,540.4
34.8607,560.7,538.92
34.8812,612.96,533.93
34.9008,668.37,533.35
34.9208,721.09,532.48
34.941,759.87,532.18
34.961,784.1,530.75
34.9807,794.68,528.4
35.0009,791.34,527.92
35.0207,780.67,527.93
35.0407,762.34,525.75
35.0607,741.87,524.4
35.0811,719.9,524.12
35.1007,699.12,523.29
35.1207,678.29,523.84
35.1407,658.24,523.47
35.1607,639.79,523.57
35.1807,622.43,524.06
35.2007,607.74,523.85
35.2208,594.4,525.48
35.241,581.32,527.38
35.2608,571.45,528.51
35.2809,564.36,529.8
35.301,544.09,532.84
35.3209,499.47,543.88
35.3409,439.18,567.9
35.3607,370.34,591.52
35.3807,309.47,601.42
35.4008,264.58,598.93
35.4208,245.06,589.15
35.4407,242.65,576.12
35.4608,249.72,562.09
35.4809,263.38,549.07
35.5009,282.1,537.86
35.5206,301.28,528.89
35.5407,320.82,522.71
35.5607,340.06,519.17
35.5809,358.65,517.13
35.6009,375.32,517.31
35.6209,386.25,516.65
35.6408,397.2,516.32
35.6608,408.96,515.05
35.6809,420.97,515.44
35.7007,430.58,517.35
35.7207,438.66,520.28
35.7407,446.73,522.23
35.7607,455.18,524.78
35.781,461.95,527.23
35.8008,467.76,527.58
35.821,473.81,528.86
35.8409,478.04,528.49
35.8609,482.24,528.99
35.8808,485.19,528.59
35.9007,487.15,527.88
35.9208,490.32,527.7
35.9408,492.46,528.76
35.9608,494.77,529.41
35.9808,495.61,530.73
36.0008,496.09,532.58
36.0207,496.27,533.07
36.0407,497.22,533.45
36.0609,498.77,534.16
36.0809,501.02,534.13
36.1008,501.62,534.3
36.1207,502.29,532.64
36.141,503.63,533.31
36.1609,503.31,534.45
36.1811,501.25,534.96
36.2007,502.2,535.37
36.2208,501.56,536.1
36.2407,502.05,536.28
36.2607,502.04,535.62
36.2807,501.23,535.7
36.3007,501.18,536.16
36.3208,500.95,535.73
36.3409,501.76,536.38
36.3608,501.41,536.5
36.3808,502.12,535
36.4007,502.7,535.4
36.421,501.96,536.32
36.4407,502.57,536.66
36.4609,502.05,536.33
36.4808,502.64,535.86
36.5007,502.31,536.69
36.5207,503.05,537.55
36.5406,505.04,537.44
36.5607,505.23,536.75
36.581,504.39,536.2
36.6007,503.31,535.76
36.6208,503.85,535.21
36.6407,504.28,534.17
36.6608,503.02,534.33
36.6809,502.82,535.27
36.7007,503.45,535.61
36.721,503.16,536.89
36.7407,503.73,537.31
36.7608,504.18,538.05
36.7807,504.35,538.64
36.8007,504.68,539.91
36.8208,503.54,539.73
36.8407,502.63,539.98
36.8607,502.11,540.19
36.881,503.49,540.35
36.9008,503.79,539.68
36.9208,503.83,539.54
36.9408,503.86,538.43
36.9607,503.09,538.15
36.9808,502.27,539.12
37.0009,502.02,538.89
37.0209,502.21,539.12
37.0407,502.57,538.89
37.0608,502.86,538.51
37.0807,503.29,539.01
37.1009,503.03,540.21
37.1208,503.62,540.77
37.1408,503.3,542.01
37.1609,504.04,541.61
37.181,504.63,541.09
37.2008,505.7,541.27
37.2207,506.56,541.42
37.2407,506.25,542.33
37.2607,507.2,542.87
37.2807,506.76,543.49
37.3007,508.21,544.79
37.3207,527.57,547.84
37.3407,565.65,555.27
37.3608,614.72,568.01
37.3807,668.38,581.41
37.4008,715.1,593.93
37.4208,749.48,594.94
37.4407,772.59,586.15
37.4608,783.47,573.92
37.4811,783.77,559.34
37.5007,777.62,545.67
37.5206,763.1,532.34
37.5408,744.48,522.87
37.5608,724.98,516.3
37.5809,703.79,512.04
37.6009,684.03,510.23
37.6207,663.82,509.18
37.6407,643.86,508.95
37.6608,625.69,509.16
37.6809,610.15,510.33
37.7007,597.52,511.46
37.7207,584.22,514.17
37.7408,572.37,516.53
37.761,563.1,519.23
37.7811,554.88,522.78
37.8007,545.9,526.63
37.8208,512.32,531.9
37.8407,457.46,542.52
37.8607,389.57,554.62
37.8809,323.85,563.89
37.9008,271.68,564.71
37.9207,245.95,560.37
37.9407,238.96,554.1
37.9609,243.97,545.88
37.9808,254.97,541.1
38.0008,271.78,535.88
38.0208,291.82,530.71
38.0407,311.26,526.56
38.0607,330.81,524.65
38.0807,350.85,523.52
38.1008,362.68,523.02
38.1208,374.54,521.81
38.1408,387.63,522.65
38.1609,401.11,524.12
38.1814,412.88,524.7
38.2009,423.51,525.56
38.2209,432.81,526.65
38.2407,441.05,527.32
38.2609,449.64,528.65
38.2807,455.91,528.72
38.3009,462.73,529.58
38.3208,468.38,532.06
38.3408,472.31,533.25
38.3607,476.44,534.4
38.3809,480.16,535.72
38.4007,483.52,536.78
38.4209,486.62,537.22
38.4407,489.9,537.98
38.4608,492.52,537.38
38.4809,494.21,536.71
38.5007,496.37,536.56
38.5207,496.5,537.45
38.5407,496,538.96
38.5607,495.8,539.37
38.5808,496.24,539.7
38.6007,497.19,539.16
38.6209,497.35,540.32
38.641,497.28,540.46
38.6609,498.43,539.97
38.6808,498.74,538.97
38.7008,499.79,541.18
38.7207,500.43,540.94
38.7409,500.15,542.15
38.7608,500.32,542.32
38.7809,501.25,542.06
38.8008,501.6,542.65
38.8208,502.28,543.12
38.8407,501.63,543.89
38.8609,502.7,544.72
38.8808,502.76,544.77
38.9008,503.41,544.22
38.9208,502.13,543.57
38.9408,501.9,543.46
38.9609,501.32,543.97
38.9808,501.86,543.37
39.0007,502.29,542.3
39.0208,502.23,542.44
39.0407,502.98,542.55
39.0607,502.59,542.44
39.0807,502.07,543.15
39.1007,501.66,542.52
39.1207,500.92,542.42
39.1408,501.14,541.73
39.1609,502.71,540.79
39.1807,502.77,539.43
39.201,502.22,538.94
39.2208,501.97,536.96
39.2409,502.98,535.36
39.2609,503.58,531.69
39.2807,503.67,528.95
39.3008,503.13,526.76
39.3207,504.31,525.61
39.3409,503.44,526.29
39.3608,503.36,527.83
39.3809,503.48,528.86
39.4007,504.79,529.09
39.4208,503.63,529.47
39.4408,503.3,531.18
39.4607,504.04,532.34
39.4807,504.43,533.47
39.5007,503.15,536.38
39.5206,502.12,539.3
39.5407,499.89,540.64
39.5608,500.12,542.11
39.5817,500.49,542.89
39.6017,499.99,543.51
39.6217,500.6,545.41
39.6417,500.88,545.73
39.6617,501.3,547.78
39.6827,502.04,548.43
39.7026,503.03,549.14
39.7228,503.23,550.11
39.7427,503.78,549.49
39.7627,502.42,550.59
39.7837,502.34,550.47
39.8037,503.07,549.98
39.8238,503.66,550.78
39.8438,503.53,551.03
39.8637,504.42,551.02
39.8837,504.34,551.42
39.9047,503.47,551.73
39.9248,503.98,551.39
39.9456,503.98,551.11
39.9657,504.58,551.09
39.9858,504.87,551.07
40.0057,503.69,550.86
40.0256,503.96,549.28
40.0458,504.76,550.43
40.0657,503.81,549.94
40.0857,503.65,550.15
40.1056,504.12,550.92
40.1257,504.5,550.34
40.1458,502.2,550.07
40.1658,503.36,550.46
40.1856,504.09,550.77
40.2057,505.07,551.21
40.2257,505.45,551.77
40.2458,505.36,551.22
40.2656,504.29,551.57
40.2857,503.83,551.46
40.3058,503.67,551.37
40.3257,505.53,551.29
40.3457,505.03,550.63
40.3666,505.82,550.31
40.3868,505.86,548.65
40.4068,506.29,548.72
40.4268,506.23,548.97
40.4469,507.58,549.38
40.4666,508.07,548.9
40.4866,508.25,549.32
40.5066,507.8,549.86
40.5267,506.84,548.89
40.5466,507.27,549.71
40.5667,507.62,548.97
40.5867,507.3,547.37
40.6066,507.24,547.9
40.6267,507.79,545.92
40.6467,508.23,546.14
40.6667,508.18,544.51
40.6866,507.75,544.01
40.7067,507.4,544.21
40.7269,507.12,543.96
40.7467,505.89,542.97
40.7666,506.12,543.58
40.7867,506.89,543.86
40.8066,505.91,543.49
40.8266,505.73,543.39
40.8469,504.59,544.31
40.8667,504.47,544.05
40.8867,504.77,543.84
40.9078,504.82,542.87
40.9288,504.06,541.1
40.9487,503.84,539.48
40.9687,504.28,538.18
40.9886,505.42,537.15
41.0087,513.74,536.32
41.0286,533.19,539.85
41.0486,549.15,541.28
41.0687,557.52,540.43
41.0888,562.42,538.34
41.1088,563.53,533.67
41.1297,563.83,529.14
41.1497,561.26,524.71
41.1706,557.61,521.77
41.1906,553.49,518.81
41.2106,550.59,516.25
41.2307,547.87,514
41.2507,544.3,515.4
41.2706,540.64,517.72
41.2906,537.11,527.78
41.3106,528.69,554.02
41.3309,523.55,595.62
41.3507,519.84,652.69
41.3707,514.87,710.35
41.3906,523.3,746.28
41.4107,533.44,767.63
41.4309,544.95,775.3
41.4507,556.36,756.04
41.4707,560.49,718.83
41.4907,556.39,675.27
41.5107,547.91,625.21
41.5308,541.93,572.57
41.5507,536.34,523.86
41.5707,532.68,484.49
41.5906,529.94,455.99
41.6106,527.55,435.59
41.6309,525.04,424.27
41.6509,523.23,419.82
41.6707,522.79,420.45
41.6907,520.23,424.16
41.7106,521.98,429.73
41.7309,527.79,435.98
