Program Time [s],data 0,data 1
3.75222,504.19,557.15
3.77216,504.35,556.52
3.79227,505.48,555.42
3.81219,507.19,554.13
3.83226,506.35,554.31
3.8524,505.88,554.24
3.87238,505.1,555
3.89229,504.68,555.6
3.91221,504.15,556.08
3.93233,504.52,554.66
3.95219,503.41,553.93
3.97208,503.33,554.94
3.9922,502.86,556.15
4.01316,501.29,557.12
4.03316,502.23,557.1
4.05317,501.99,558.68
4.07315,501.99,561.94
4.09311,503.39,570.55
4.11305,487.71,583.44
4.13325,456.77,596.96
4.15322,420.22,607.36
4.17331,381.97,615.29
4.1931,347.58,617.43
4.2132,324.46,610.55
4.23311,317.97,593.44
4.25318,331.78,569.15
4.27317,357.02,541.32
4.29314,382.02,516.06
4.31309,403.01,495.04
4.33323,421.01,478.64
4.35317,437.41,466.31
4.37329,450.13,458.85
4.39326,460.5,455.68
4.41318,469,456.14
4.43405,476.4,457.31
4.45408,481.72,460.85
4.47417,485.58,464.08
4.49419,488.26,468.26
4.51517,490.21,472.81
4.53506,491.97,477.05
4.5552,493.37,483.04
4.57619,494.1,487.83
4.59718,495.88,493.07
4.61823,496.9,498.45
4.6392,497.92,505.36
4.66012,498.94,511.69
4.68131,499.55,517.15
4.70217,499.84,520.92
4.72215,499.67,525.34
4.74219,500.14,528.07
4.76216,500.51,532.66
4.7822,499.61,537.52
4.80307,499.29,541.22
4.82308,498.83,544.58
4.84318,499.86,548.46
4.86316,500.29,550.57
4.88321,500.83,552.65
4.90443,505.67,558.32
4.92413,508.93,564.06
4.9442,511.75,566.85
4.96517,512.2,567.68
4.98517,512.76,568.74
5.00609,510.81,569.39
5.02623,509.84,570.12
5.04622,509.88,569.29
5.06611,509.1,568.83
5.08616,508.48,568.67
5.1061,507.58,567.73
5.12607,506.67,566.79
5.14607,504.33,566.43
5.16606,503.87,564.54
5.18616,503.69,563.23
5.20618,504.76,562.39
5.22616,504.4,560.91
5.24618,504.52,558.73
5.26614,505.02,558.58
5.28619,505.41,557.67
5.3062,505.13,558.73
5.32608,503.71,558.39
5.3463,503.96,557.51
5.36627,504.37,557.01
5.38619,504.3,556.41
5.40632,503.04,556.92
5.42617,503.23,555.94
5.44614,501.78,557.15
5.46626,501.03,557.52
5.48613,501.22,557.42
5.50617,500.38,558.93
5.52614,501.7,559.55
5.5461,501.76,560.04
5.56616,501.01,559.63
5.58619,500.41,558.5
5.60615,500.73,558
5.62612,501.58,557.2
5.6461,500.86,557.36
5.66617,501.09,557.29
5.68626,500.47,558.23
5.70619,499.78,557.99
5.72626,499.62,558.79
5.74609,501.5,558.83
5.76612,501.6,559.26
5.78617,501.48,558.81
5.80618,500.58,558.25
5.82616,497.87,560.6
5.84615,512.29,562.48
5.86642,546.83,564.98
5.88618,593.67,570.99
5.90624,642.33,574.99
5.9272,687.27,574.99
5.9474,721.21,574.19
5.96714,744.77,570.95
5.98717,755.82,568.36
6.00743,755.65,565.69
6.02718,748.32,562.55
6.0473,734.46,558.64
6.06719,716.37,555.51
6.08713,696.49,552.61
6.10738,677.19,551.09
6.12826,658.36,549.47
6.14818,640.48,548.58
6.16815,624.99,548.26
6.18817,610.19,549.41
6.20814,597.15,548.53
6.22823,586.92,548.22
6.24826,575.54,548.78
6.26814,565.03,549.62
6.28815,556.62,549.5
6.30817,548.9,549.6
6.32813,542.32,550.48
6.34814,538.06,550.58
6.36814,533.24,551.87
6.38824,530.4,552.49
6.40815,512.92,551.19
6.42821,472.73,551.56
6.44814,416.39,552.64
6.46816,355.11,550.72
6.48814,299.29,545.57
6.50813,264.83,540.06
6.5282,250.66,535.25
6.54813,248.93,532
6.56814,255.94,529.8
6.5882,269.76,529.64
6.60811,285.4,530.51
6.62823,304.12,531.81
6.64926,324.9,532.85
6.66915,342.72,535.28
6.68924,359.98,538.22
6.70913,375.58,540.38
6.72915,390.26,542.9
6.74926,405.21,544.12
6.76926,418.37,545.3
6.7892,428.7,547.64
6.8092,433.96,550.51
6.82929,440.36,552.21
6.84914,446.49,554.77
6.86928,452.59,556.01
6.88915,459.27,556.41
6.90914,466.22,556.73
6.92916,470.98,556.38
6.94922,474.98,556.91
6.96917,478.98,555.72
6.98921,482.59,555.38
7.00914,485.47,555.1
7.02918,487.38,555.68
7.0494,490.1,554.35
7.06914,492.08,554.48
7.08927,494.06,554.98
7.10925,495.65,553.19
7.12933,496.92,552.15
7.14928,497.34,551.52
7.16953,496.47,552.41
7.18917,497.58,551.33
7.20926,497.86,550.47
7.22914,498.09,550.57
7.24935,498.47,551.06
7.26938,498.38,550.85
7.28913,499.1,551.68
7.30913,499.28,552.34
7.32916,499.42,552.67
7.34916,500.74,552.94
7.36927,502.59,551.55
7.38913,502.47,549.84
7.40915,502.18,549.67
7.42916,502.54,549.54
7.44915,502.23,550.63
7.46922,502.19,552.1
7.48915,504.55,552.68
7.50915,505.64,552.95
7.52924,505.51,552.56
7.54925,506.01,551.65
7.56917,506.61,550.72
7.58934,506.69,549.57
7.60916,505.95,548.86
7.62924,505.16,548.69
7.64922,504.53,548.15
7.66915,503.82,548.52
7.68921,503.66,548.82
7.7092,503.93,548.25
7.7293,503.54,547.2
7.74927,502.83,545.16
7.76946,503.07,545.73
7.78913,502.85,544.98
7.80917,502.48,545.79
7.82927,503.39,545.03
7.84925,504.11,546.42
7.86927,502.29,545.54
7.88915,501.63,544.63
7.9092,502.3,544.1
7.92939,502.84,543.88
7.94937,502.87,544.11
7.96914,503.3,545.89
7.98949,504.64,546.11
8.00914,504.11,546.69
8.0292,502.89,548.35
8.04944,502.31,549.28
8.06928,501.65,548.82
8.08913,502.32,548.66
8.1092,502.06,549.73
8.12938,502.84,549.78
8.1494,503.28,550.43
8.1692,503.82,549.54
8.18917,504.26,550.23
8.20914,505.01,550.79
8.22913,505,551.83
8.24941,504.4,552.26
8.26913,504.92,553.21
8.28919,524.14,556.77
8.30914,564.71,562.01
8.32924,615.17,567.21
8.3492,666.13,570.77
8.36921,710.91,570.62
8.38924,745.73,568.89
8.40915,767.98,566.11
8.43025,778.18,562.89
8.4501,777.55,559.51
8.47021,766.64,555.61
8.49107,749.71,551.29
8.51108,729.97,549.23
8.53107,708.17,546.98
8.55116,687.54,545.19
8.57115,667.23,542.95
8.59124,646.19,541.76
8.6121,629.15,541.21
8.63212,613.52,540.77
8.65209,600.21,542.01
8.67213,586.77,541.41
8.6921,576.02,541.53
8.71219,564.61,541.62
8.73218,555.49,541.9
8.75322,546.39,546.12
8.77312,516.71,554.69
8.79317,469.77,569.76
8.81328,410.62,583.2
8.83322,349.89,582.96
8.85423,294.52,571.77
8.87418,259.01,556.22
8.89424,246.81,542.77
8.91406,246.45,531.22
8.93423,255.36,523.17
8.95434,270.09,517.54
8.97514,287.67,514.43
8.99521,306.54,514.35
9.01621,326.63,515.28
9.03616,345.7,519.62
9.05606,363.96,522.5
9.07635,381.17,525.4
9.09634,393.14,528.72
9.11629,403.11,531.17
9.13617,413.29,531.34
9.15604,423.23,532.47
9.17618,432.78,533.58
9.19611,441.43,536.26
9.21617,448.74,539.81
9.23609,454.99,542.25
9.25605,461.99,543
9.27631,468.2,543.8
9.29609,473.36,545.24
9.31612,476.89,545.99
9.33619,481.11,546.39
9.35621,484.69,547.71
9.37609,487.35,549.37
9.39612,488.68,552.5
9.41611,489.54,553.6
9.4362,491.43,555.08
9.45719,492.35,557.66
9.47708,493.08,559.13
9.49705,494.66,558.9
9.51707,495.33,558.52
9.53709,497.46,559.02
9.55712,498.37,559.41
9.57711,499.9,559.73
9.59709,499.32,560.79
9.6172,498.45,561.83
9.63816,498.56,562.66
9.65826,499.45,563.33
9.67919,498.16,563.66
9.6993,497.13,563.33
9.72024,498.1,561.27
9.74019,499.28,561.61
9.76016,500.03,560.29
9.78115,499.62,559.63
9.80107,499.3,559.51
9.82113,500.44,558.2
9.84117,501.75,556.76
9.86111,501.8,556.81
9.88122,502.84,555.65
9.90119,503.67,555.32
9.92123,504.34,555.66
9.94208,504.47,555.32
9.96232,504.98,553.86
9.98316,504.78,552.69
10.0042,504.62,551.75
10.0241,504.1,551.4
10.0442,503.48,550.72
10.0641,501.58,550.38
10.0841,502.47,549.9
10.1041,502.97,549.52
10.1242,504.38,548.62
10.1441,504.9,548.09
10.1642,504.52,547.67
10.1841,503.62,548.14
10.2041,502.89,548.71
10.2242,502.92,549.77
10.2441,502.73,549.02
10.2641,503.59,549.41
10.2841,503.67,549.53
10.3042,503.74,548.82
10.3242,502.39,548.26
10.3441,503.31,547.81
10.3642,503.85,547.45
10.3841,502.68,547.16
10.4042,503.54,546.33
10.4251,503.83,545.46
10.4451,503.07,546.57
10.4653,503.25,547.25
10.485,504,547
10.5051,504.4,546.6
10.5251,503.32,547.68
10.5451,502.86,547.75
10.5651,502.89,548.2
10.5851,502.11,547.96
10.6051,501.89,548.57
10.6251,501.71,549.65
10.6453,501.57,550.52
10.6651,502.25,550.62
10.685,503.6,550.29
10.7051,504.08,549.24
10.7251,504.67,547.39
10.7452,504.53,546.51
10.7651,503.63,546.61
10.7851,503.5,548.69
10.8051,503,550.35
10.8252,504,550.28
10.8462,509.8,553.22
10.8672,536.24,558.18
10.8882,577.99,564.14
10.9081,627.39,569.51
10.9283,677.12,575.41
10.9482,722.89,580.53
10.9681,755.71,584.62
10.988,774.57,584.9
11.0082,779.46,579.52
11.0291,774.37,571.62
11.0492,759.09,563.49
11.0694,739.67,556.79
11.0895,717.94,551.23
11.1093,695.75,548.59
11.1292,674,546.07
11.1491,652.6,543.86
11.1691,633.08,542.89
11.1893,615.06,542.11
11.2092,599.45,542.29
11.2296,587.36,542.43
11.2493,577.69,542.54
11.2691,567.35,543.23
11.2891,559.88,544.79
11.3092,553.7,547.63
11.3293,528.16,550.5
11.3494,483.73,552
11.3694,425.38,550.6
11.3891,363.71,540.88
11.4092,307.17,526.71
11.429,268.33,514.56
11.4491,250.47,507.25
11.4691,247.97,502.8
11.4892,255.18,501.84
11.5091,267.54,504.27
11.5294,285.23,504.42
11.5492,302.99,508.33
11.5691,321.99,512.47
11.5891,342.19,516.57
11.609,361.15,521.06
11.6291,377.32,527.45
11.6492,391.26,533.16
11.6692,406.01,536.73
11.6891,419.01,540.18
11.7091,422,544.34
11.7292,427.8,547.28
11.7492,433.84,550.42
11.7692,439.67,552.74
11.7891,447.14,554.59
11.8091,454.51,556.27
11.8291,460.21,556.42
11.8491,465.37,557.73
11.8691,470.29,558.39
11.8893,474.84,559.71
11.9091,479.47,558.77
11.9291,482.57,559.81
11.9492,485.06,560.25
11.9701,487.85,560.4
11.9901,490.68,559.12
12.01,491.54,559.1
12.03,495.03,558.88
12.0501,497.83,558.3
12.0702,501.06,557.24
12.0903,501.25,556.39
12.1101,502,555.31
12.1301,502.2,555.85
12.1501,502.76,556.28
12.1702,502.81,557.43
12.1901,503.65,558.94
12.21,505.72,558.75
12.2301,505.97,558.8
12.2501,506.98,559.44
12.2703,507.58,558.35
12.2902,507.27,558.08
12.31,506.41,557.07
12.3301,505.53,557.05
12.3501,505.02,556.44
12.3701,503.62,556.75
12.3901,502.3,557
12.4101,502.44,557
12.4301,502.35,557
12.4501,502.28,557.2
12.4701,502.82,557.96
12.4901,503.26,557.97
12.51,503.81,558.58
12.5301,504.45,558.06
12.5501,505.16,557.05
12.5703,504.53,556.64
12.5902,504.02,556.71
12.6101,504.22,556.97
12.6301,504.77,556.17
12.6501,505.02,554.54
12.6701,505.21,554.63
12.6901,504.57,554.91
12.7102,504.26,554.52
12.7301,504.61,553.62
12.7501,503.28,554.5
12.7703,503.03,554.4
12.7902,503.42,555.32
12.8101,502.14,555.05
12.8301,501.71,554.84
12.8501,501.37,555.47
12.87,501.29,555.98
12.8901,502.44,555.18
12.9102,503.55,554.95
12.9304,503.84,554.56
12.9503,503.07,554.65
12.9702,502.86,554.32
12.9903,503.09,554.25
13.0103,503.87,554.2
13.0302,504.29,554.16
13.0505,504.64,555.93
13.0705,502.51,555.34
13.0903,503.01,554.88
13.1103,503.61,554.1
13.1302,504.28,554.28
13.1502,502.23,555.02
13.1702,501.98,556.62
13.1902,502.59,556.1
13.2102,502.87,555.88
13.2302,503.49,555.7
13.2508,504,554.56
13.2703,504.2,554.45
13.2904,505.16,554.16
13.3102,504.73,554.33
13.3305,504.78,555.26
13.3501,504.22,556.01
13.3702,503.38,556.61
13.3903,503.7,557.89
13.4103,503.36,558.11
13.4304,503.09,558.49
13.4504,503.47,558.59
13.4704,503.78,558.47
13.4904,504.02,558.18
13.5103,504.42,557.54
13.5302,504.93,556.83
13.5503,504.55,556.87
13.5703,503.64,557.09
13.5904,503.31,557.47
13.6102,502.05,556.98
13.6302,502.84,556.38
13.6502,503.47,556.11
13.6703,503.38,556.49
13.6903,500.5,558.19
13.7102,517.4,561.95
13.73,552.52,569.36
13.7501,599.42,576.49
13.7701,653.93,581.59
13.7902,703.75,584.27
13.8102,742.6,584.02
13.83,767.48,581.21
13.8502,779.38,576.57
13.8701,779.71,573.06
13.8902,772.56,568.85
13.91,759.85,563.48
13.9301,742.68,559.78
13.9502,724.75,557.03
13.9702,705.8,555.62
13.9901,686.84,555.3
14.01,666.87,553.24
14.0304,648.1,551.99
14.05,630.08,551.39
14.0703,614.26,550.31
14.0901,601.01,550.05
14.1101,588.61,550.84
14.1301,577.89,551.67
14.1501,567.51,551.14
14.1701,553.41,551.71
14.1904,521.73,552.17
14.2102,474.58,554.13
14.231,413.86,553.31
14.251,351.49,545.25
14.271,293.39,534.2
14.2912,251.91,523.76
14.3111,233.73,517.01
14.331,231.19,513.2
14.3511,239.15,513.76
14.3712,252.72,514.41
14.3912,270.17,516.13
14.4112,290.54,518.3
14.4311,311.23,521.64
14.4511,332.39,526.31
14.471,351.51,529.25
14.4912,368.01,533.6
14.5113,385.01,536.88
14.531,397.4,538.7
14.5512,406.92,541.96
14.5713,417.94,543.57
14.5913,427.35,545.86
14.6112,436.68,547.29
14.631,445.74,549.23
14.651,452.8,550.98
14.671,458.84,552.39
14.6911,465.07,552.31
14.7112,470.86,552.25
14.731,475.08,552.8
14.751,479.47,553.04
14.771,481.77,553.83
14.7911,483.62,554.86
14.8112,485.7,555.69
14.8312,488.56,554.55
14.8511,489.65,554.44
14.8711,491.72,554.35
14.8912,495.17,554.48
14.9111,496.34,554.99
14.931,498.07,554.19
14.9511,498.86,554.15
14.9712,500.09,554.12
14.9911,501.47,553.7
15.0112,501.57,553.16
15.0311,501.46,552.53
15.0513,502.57,553.22
15.0712,503.65,552.98
15.0914,504.32,553.38
15.1115,504.66,553.71
15.1314,504.73,553.56
15.1513,505.98,553.65
15.171,506.79,553.32
15.1911,506.83,552.86
15.2113,507.06,552.49
15.2313,507.45,552.39
15.2512,506.16,552.11
15.2713,505.13,552.69
15.2914,504.5,552.35
15.3112,506.2,550.48
15.3313,506.16,548.98
15.3512,506.13,547.39
15.3714,506.3,545.91
15.3913,506.64,544.73
15.4114,508.11,544.98
15.4311,509.29,545.39
15.4512,510.63,545.31
15.4712,509.11,544.65
15.4913,508.89,544.92
15.5114,508.51,544.93
15.531,507.81,544.35
15.5511,506.85,543.88
15.5712,506.68,543.7
15.5912,505.74,542.96
15.6114,505.79,543.37
15.6311,504.83,543.3
15.651,504.87,543.04
15.671,504.89,542.83
15.6913,505.12,542.66
15.711,506.89,543.73
15.731,506.11,544.58
15.7511,506.29,545.07
15.771,505.63,545.45
15.7912,506.31,545.96
15.811,506.44,546.17
15.8311,505.96,545.34
15.8512,505.16,545.67
15.8711,505.13,544.74
15.8912,504.71,545.59
15.9112,505.16,544.47
15.931,504.53,545.18
15.951,504.23,544.34
15.9711,503.78,544.87
15.9911,503.82,544.1
16.0112,504.06,543.48
16.0311,503.85,543.98
16.0511,503.88,544.39
16.0713,503.5,545.71
16.0911,503.6,545.97
16.111,503.48,545.97
16.1311,502.79,546.18
16.1511,503.43,546.54
16.1712,504.14,546.23
16.1911,503.71,545.99
16.211,504.77,546.59
16.2312,505.22,546.87
16.2511,505.37,546.9
16.2711,504.5,546.72
16.2912,504.6,547.37
16.3111,505.08,545.7
16.3313,504.26,545.56
16.3511,503.61,546.45
16.3714,503.29,546.96
16.3913,502.63,546.57
16.4111,502.7,545.45
16.431,502.76,546.16
16.451,504.01,546.53
16.4711,502.61,548.02
16.4911,516.29,549.22
16.5112,547.03,555.18
16.531,587.62,567.14
16.5512,632.9,581.11
16.571,677.32,587.09
16.5912,713.46,585.67
16.6111,740.56,580.14
16.631,757.45,571.91
16.6511,765.76,564.33
16.6711,765.61,556.86
16.6912,758.69,549.89
16.7114,745.95,544.31
16.7312,729.56,540.25
16.7512,712.25,535.8
16.7711,692.8,532.84
16.7913,673.24,529.87
16.8111,655.19,528.3
16.831,637.95,527.24
16.851,621.16,526.39
16.871,605.93,527.31
16.8912,593.14,528.65
16.9112,580.72,531.32
16.9312,565.97,533.26
16.951,534.98,535.8
16.9713,486.58,539.64
16.9912,429.07,541.91
17.0112,369.25,538.73
17.031,313.6,532.39
17.0511,277.08,524.71
17.0712,260.67,518.37
17.0911,259.93,514.49
17.1112,267.55,511.79
17.131,279.84,512.24
17.151,298.47,513.39
17.171,316.38,515.71
17.1911,333.7,518.97
17.211,351.96,522.17
17.2312,369.77,526.94
17.2514,385.81,531.15
17.271,401.05,534.32
17.2912,414.04,537.06
17.3111,421.43,540.25
17.3311,426.55,543.2
17.352,433.04,545.16
17.3721,438.23,546.53
17.392,445.38,547.22
17.4123,451.91,548.58
17.4324,458.93,548.06
17.452,464.54,548.05
17.472,469.43,548.64
17.4922,473.35,549.11
17.5121,477.48,549.89
17.5323,480.98,549.91
17.5521,483.39,550.73
17.5721,484.91,550.98
17.5922,485.93,551.59
17.6121,488.34,551.87
17.6323,489.27,550.7
17.6521,492.02,548.96
17.6721,493.81,548.97
17.6921,495.25,549.37
17.7122,496.8,549.3
17.7321,496.64,548.64
17.7522,496.31,548.11
17.772,497.85,548.09
17.7922,498.88,547.67
17.8121,499.5,547.34
17.8323,499.8,547.47
17.8522,500.04,548.18
17.873,500.83,548.14
17.8931,501.27,548.51
17.9132,502.01,547.81
17.9332,503.41,547.65
17.9532,504.53,546.52
17.9731,503.22,546.41
17.9933,502.98,546.33
18.0131,503.38,544.87
18.0334,503.31,544.49
18.0532,501.64,544.79
18.0732,502.52,545.24
18.0932,502.61,545.99
18.1131,502.49,545.99
18.133,503.39,546.59
18.1532,502.11,546.27
18.173,503.49,546.22
18.1931,503.39,546.58
18.2133,503.11,547.46
18.2333,503.09,547.17
18.2532,503.27,548.53
18.273,503.02,548.43
18.2931,503.61,548.34
18.3131,504.29,549.47
18.3331,505.43,549.58
18.3531,503.95,549.46
18.373,504.36,549.57
18.393,504.69,548.86
18.413,504.75,548.09
18.4331,504.2,548.07
18.4532,503.76,548.85
18.4732,503.41,548.08
18.4933,504.13,547.87
18.5131,502.3,548.29
18.5331,501.84,549.03
18.553,501.27,549.43
18.5732,501.42,549.94
18.593,500.93,549.75
18.6132,500.15,549.2
18.6332,499.92,548.76
18.6531,500.53,548.01
18.673,501.03,548.41
18.6932,502.02,548.93
18.7131,502.82,548.54
18.7332,502.25,548.63
18.7532,503.2,548.31
18.7733,503.16,547.05
18.793,502.53,546.84
18.8132,502.22,547.27
18.8331,502.98,547.62
18.8536,503.78,547.09
18.8731,504.83,547.87
18.893,504.26,549.1
18.913,503.21,549.68
18.9332,503.77,550.34
18.9534,503.61,550.87
18.9731,502.69,550.3
18.9931,502.35,550.24
19.013,502.48,551.19
19.0331,502.79,550.75
19.0533,502.03,551
19.0732,501.62,551.8
19.0932,500.7,551.84
19.113,512.36,552.27
19.1332,543.69,551.62
19.1534,588.15,550.69
19.1732,635.32,552.36
19.1934,680.46,555.28
19.2132,717.76,557.83
19.233,742.61,560.86
19.253,757.89,562.49
19.2731,761.91,561.59
19.2931,757.33,560.27
19.313,745.66,558.82
19.3332,729.93,557.46
19.3532,712.54,554.36
19.3732,694.04,551.89
19.3933,674.43,549.51
19.413,655.94,547.61
19.4333,638.55,546.29
19.4533,622.64,546.03
19.4733,608.11,545.22
19.4933,595.89,545.38
19.5133,584.51,545.7
19.5335,573.61,546.76
19.5534,553.69,547.61
19.573,515.35,549.69
19.5931,463.68,553.55
19.613,403.94,556.64
19.633,344.56,552.51
19.6535,295.44,545.41
19.6735,270.96,538.93
19.6931,262.16,534.54
19.7133,266.33,531.43
19.733,276.87,529.55
19.7531,291.49,528.84
19.773,309.19,529.27
19.7931,327.16,529.62
19.8131,344.52,531.29
19.8332,360.22,533.03
19.853,376.78,535.63
19.8732,392.22,537.7
19.8932,406.18,539.56
19.9132,418.94,541.85
19.933,428.95,543.88
19.9533,437.96,546.5
19.9734,446.77,549.4
19.9933,453.62,552.12
20.0132,461.49,554.7
20.0331,463.39,557.96
20.0532,466.12,559.37
20.0732,468.69,559.89
20.093,471.95,559.31
20.113,476.36,559.05
20.1332,479.09,559.04
20.1531,481.27,558.03
20.1734,482.82,558.83
20.193,485.05,559.66
20.2133,486.64,559.33
20.233,487.31,559.06
20.2533,488.85,558.85
20.2732,490.68,558.68
20.2932,491.15,558.34
20.3132,492.72,557.48
20.333,494.77,557.38
20.3533,496.22,555.7
20.3731,497.37,555.16
20.393,498.1,554.93
20.413,498.68,554.14
20.434,498.74,553.12
20.4542,498,554.09
20.4743,499.2,553.87
20.4943,499.96,553.9
20.5145,500.77,554.12
20.5341,500.81,554.1
20.5543,501.85,553.88
20.574,501.28,554.7
20.594,500.82,555.56
20.614,501.06,555.45
20.634,500.45,555.16
20.654,501.36,555.93
20.6742,502.29,555.74
20.6942,503.03,555.59
20.7141,502.62,556.27
20.7342,502.3,556.02
20.7541,501.64,557.42
20.7739,501.71,557.53
20.7941,501.97,558.43
20.8144,502.18,556.14
20.8341,502.74,555.11
20.8542,502.59,554.89
20.8742,502.67,553.71
20.8942,501.74,553.17
20.9142,501.79,554.34
20.9341,502.43,553.87
20.954,503.15,552.69
20.9742,502.52,552.36
20.9941,502.21,552.08
21.014,502.37,552.47
21.0342,503.7,552.57
21.0541,503.56,553.66
21.075,503.05,553.73
21.095,502.84,553.78
21.1151,503.47,554.63
21.1353,502.38,555.1
21.1551,502.5,555.08
21.175,502.8,555.06
21.1952,504.04,554.25
21.2154,503.03,553
21.2352,502.83,553.4
21.255,501.86,553.52
21.2749,501.29,554.42
21.295,502.23,553.73
21.3151,501.38,554.39
21.3349,502.31,554.11
21.3549,502.25,553.49
21.3751,502.2,553.59
21.3951,501.96,553.47
21.4149,501.77,552.58
21.435,501.81,551.46
21.4552,501.65,551.57
21.4751,501.92,551.46
21.4952,502.34,550.56
21.5151,503.67,548.65
21.5353,504.74,548.32
21.5553,503.59,548.46
21.575,504.67,548.17
21.5951,505.14,549.13
21.6151,505.91,549.51
21.6349,504.93,549.8
21.6552,503.94,550.84
21.675,503.15,550.08
21.6953,502.72,550.26
21.7151,502.98,551.81
21.7351,503.38,552.45
21.755,503.91,551.56
21.7751,503.52,550.25
21.7951,502.42,551.6
21.8151,502.14,552.28
21.8351,500.51,553.22
21.8553,501.81,552.98
21.875,501.45,553.18
21.895,507.96,554.95
21.915,535.17,560.56
21.9351,575.73,572.05
21.9551,622.79,588.04
21.9752,667.63,596.43
21.9953,708.9,594.94
22.0153,738.52,588.95
22.0352,756.62,580.16
22.0549,764.09,570.33
22.075,759.88,561.26
22.0951,749.3,552.81
22.1152,731.44,546.05
22.1351,712.75,539.84
22.1552,692.8,534.87
22.175,672.04,533.7
22.1951,652.23,532.36
22.2151,634.59,531.89
22.2351,618.67,531.51
22.2554,604.74,531.81
22.2751,591.39,533.05
22.2952,579.91,533.44
22.315,569.33,533.75
22.3352,559.86,535.4
22.3551,552.89,536.92
22.375,546.71,537.94
22.3952,541.77,538.75
22.4152,537.02,540.2
22.435,522.81,541.36
22.455,489.65,547.69
22.476,438.12,559.35
22.4961,380.1,565.08
22.5162,325.28,560.46
22.5362,280.62,551.97
22.5561,256.3,541.38
22.576,250.64,531.7
22.597,255.51,525.36
22.6172,268.21,519.29
22.637,283.97,516.63
22.657,301.97,515.1
22.6772,321.58,514.08
22.6972,340.06,515.47
22.718,359.85,516.77
22.7379,377.68,519.22
22.758,392.34,522.38
22.7783,405.48,525.7
22.7982,418.98,528.16
22.8181,430.18,528.73
22.838,440.55,530.78
22.858,449.44,532.63
22.8781,456.95,534.3
22.898,464.16,535.84
22.9182,469.93,536.67
22.9381,474.94,537.94
22.9581,479.55,538.95
22.9779,482.44,540.76
22.9981,484.95,542.01
23.0181,487.56,542.21
23.0381,490.65,543.37
23.0581,492.92,543.09
23.0783,494.54,542.27
23.0981,497.03,543.02
23.1182,498.02,543.42
23.138,500.42,543.33
23.158,500.93,544.87
23.178,501.95,544.09
23.198,503.56,543.87
23.2182,504.65,543.3
23.2383,506.52,542.84
23.2582,506.21,542.67
23.2784,505.17,544.14
23.2981,505.14,543.51
23.3181,505.11,542.61
23.3383,505.09,542.69
23.358,506.07,542.35
23.3781,506.66,542.48
23.3982,507.12,542.18
23.4182,507.5,542.15
23.4382,506.2,542.92
23.4582,506.36,544.13
23.4781,505.49,545.11
23.4984,504.59,545.89
23.518,504.47,545.31
23.5381,504.58,545.25
23.5581,505.06,545.4
23.578,503.85,546.52
23.598,505.68,548.01
23.6179,506.14,547.61
23.638,504.52,548.09
23.658,503.81,547.87
23.678,504.05,547.7
23.698,505.04,546.96
23.7182,504.63,546.97
23.7381,504.91,546.97
23.7584,504.72,547.78
23.778,504.98,547.22
23.798,504.78,546.98
23.8179,503.63,547.18
23.8381,504.1,547.75
23.8582,503.68,546.2
23.8781,503.34,546.36
23.8981,503.88,546.69
23.918,502.5,546.95
23.938,500.6,546.76
23.9581,501.08,546.61
23.978,501.06,546.69
23.9979,500.65,546.35
24.018,500.52,546.28
24.0381,500.62,546.82
24.0592,501.09,547.26
24.079,500.87,548.41
24.0991,501.1,548.93
24.1191,500.28,549.54
24.1392,500.62,549.23
24.159,501.1,549.99
24.1791,500.68,550.19
24.1989,501.14,550.95
24.2191,501.91,550.56
24.2391,503.33,549.65
24.2591,504.47,548.72
24.279,504.97,547.98
24.299,505.78,547.98
24.3192,506.62,548.58
24.3391,505.3,548.87
24.359,506.44,549.09
24.3792,505.15,549.68
24.399,504.32,550.54
24.4191,503.26,551.83
24.439,502.81,551.67
24.4592,502.44,551.33
24.4792,507.76,552.07
24.499,533,556.45
24.519,575.8,561.76
24.539,628.04,568.21
24.559,678.03,572.57
24.5789,721.23,572.85
24.5991,754.98,568.68
24.619,773.79,564.15
24.639,780.43,557.72
24.6591,777.14,551.97
24.6791,767.31,546.58
24.699,751.05,541.66
24.7189,730.24,538.53
24.739,708.79,536.22
24.7589,688.23,535.78
24.7789,666.99,535.02
24.7989,648.59,534.22
24.8191,632.67,533.98
24.8391,617.14,534.58
24.8592,602.91,535.46
24.879,590.13,535.97
24.8991,578.1,537.38
24.919,568.68,540.1
24.9399,537.35,542.88
24.96,487.08,549.31
24.9801,425.66,554.24
24.9999,359.53,554
25.0201,301.42,548.2
25.0401,259.94,541.36
25.0601,240.35,536.29
25.08,235.88,533.23
25.1001,243.5,531.18
25.1199,255.8,530.95
25.1401,273.64,531.36
25.16,294.51,532.89
25.1801,315.21,536.11
25.2012,335.57,540.49
25.221,354.46,544.59
25.2411,372.96,547.87
25.2612,389.17,550.1
25.281,402.94,551.88
25.3011,415.75,554.9
25.3209,427,555.72
25.341,436.8,556.98
25.3611,446.44,557.18
25.3812,458.15,557.55
25.4009,471.72,557.84
25.4211,482.18,558.87
25.4409,490.14,558.7
25.4609,496.31,559.36
25.481,500.85,561.09
25.501,504.08,562.67
25.5213,506.46,562.93
25.5413,507.77,562.15
25.5611,508.02,561.12
25.581,508.21,560.29
25.601,506.57,560.04
25.621,505.46,559.83
25.641,505.37,558.26
25.6611,504.69,557.21
25.6809,502.35,560.57
25.701,501.48,562.05
25.722,500.79,558.24
25.7419,498.83,559.59
25.7622,497.26,555.28
25.7821,498.01,557.62
25.8019,495.41,559.3
25.822,494.53,560.84
25.842,496.82,560.87
25.8621,497.86,562.1
25.882,498.69,561.88
25.9021,499.15,562.7
25.9219,499.12,561.96
25.942,501.3,560.37
25.9622,502.44,558.3
25.9819,503.15,557.44
26.0019,502.32,557.75
26.022,501.46,557.2
26.042,500.76,557.16
26.0622,501.21,555.93
26.0822,502.57,555.34
26.1019,503.26,554.47
26.1219,503,555.18
26.142,502.6,554.94
26.1621,501.48,554.35
26.1822,501.79,553.68
26.202,501.43,552.75
26.222,500.54,548.6
26.242,501.63,547.48
26.2621,501.51,547.78
26.282,500.21,547.63
26.302,498.96,549.1
26.3219,497.97,550.08
26.3421,498.58,551.66
26.362,499.06,552.93
26.3821,500.05,554.75
26.4022,499.64,556.4
26.4221,500.51,557.32
26.4421,501.61,558.85
26.4622,503.89,558.88
26.482,503.11,558.31
26.502,503.69,558.85
26.5219,504.75,558.28
26.542,504.6,556.62
26.5619,504.68,556.1
26.582,504.94,555.48
26.602,505.56,554.98
26.6219,505.64,554.19
26.642,505.72,555.75
26.662,504.57,555.6
26.6821,503.06,556.68
26.702,502.25,557.74
26.722,503.6,559.39
26.742,503.28,559.32
26.7621,502.02,560.05
26.7819,503.42,560.44
26.8019,504.13,560.75
26.822,503.71,562
26.8421,503.57,562.4
26.862,503.65,563.32
26.882,503.72,563.66
26.902,504.18,564.13
26.922,504.54,563.9
26.942,504.63,562.72
26.9621,503.71,561.18
26.9819,504.37,560.14
27.0019,504.09,561.11
27.0219,502.87,561.69
27.0422,501.3,560.95
27.062,500.44,560.16
27.082,518.95,561.13
27.1019,557.96,561.5
27.1219,607.97,562.2
27.1422,658.98,562.76
27.162,703.38,561.41
27.1819,734.1,558.33
27.2019,750.88,555.66
27.2219,756.51,554.33
27.2421,753.61,552.86
27.2619,746.28,551.49
27.282,734.43,548.99
27.302,718.94,547.19
27.3229,702.55,544.36
27.343,685.84,542.48
27.3632,668.07,540.39
27.3829,650.86,538.91
27.4029,633.29,538.33
27.4229,619.03,538.26
27.4428,603.82,537.21
27.4629,591.06,538.37
27.4831,579.05,538.89
27.503,567.64,540.12
27.5234,558.71,541.49
27.5429,550.57,541.59
27.563,535.25,542.28
27.5833,501.2,551.02
27.6029,452.96,564.22
27.6229,393.77,569.97
27.643,332.22,567.58
27.6632,279.57,558.46
27.683,251.66,547.17
27.703,243.13,539.14
27.7229,246.1,532.71
27.743,256.28,529.37
27.7631,271.22,526.29
27.783,291.58,525.63
27.8029,311.26,526.91
27.823,330.61,526.93
27.8429,349.69,528.74
27.863,367.15,530.79
27.8829,384.12,533.23
27.9031,399.9,536.39
27.923,413.52,538.91
27.943,425.41,541.73
27.963,436.73,544.38
27.983,445.18,546.51
28.003,451.55,548.6
28.0229,457.64,551.08
28.0431,463.51,551.67
28.0629,468.61,553.13
28.0829,472.89,554.31
28.103,477.31,554.65
28.1229,481.25,556.52
28.1431,484,557.41
28.1631,486.6,558.13
28.1831,488.28,557.9
28.203,489.22,558.12
28.2231,491.58,558.1
28.243,492.06,558.28
28.263,494.25,557.22
28.2829,496.2,555.98
28.303,498.96,554.18
28.323,496.97,552.75
28.3431,497.17,550.2
28.3629,498.34,548.36
28.3831,498.27,547.29
28.4029,498.42,545.63
28.423,497.73,545.1
28.443,498.19,543.88
28.463,498.35,543.51
28.4831,498.68,543.8
28.5031,499.34,544.04
28.523,499.68,543.84
28.5429,500.94,543.27
28.5631,501.55,544.41
28.5835,501.04,544.93
28.6029,501.23,545.35
28.6231,501.99,544.68
28.6429,502.59,544.34
28.6629,503.27,545.27
28.6831,504.02,546.02
28.7031,503.61,546.81
28.7232,503.49,546.65
28.7431,503.59,546.52
28.763,502.47,546.82
28.7829,502.98,547.25
28.8029,502.98,547.8
28.8231,503.19,548.44
28.8429,503.35,547.35
28.8629,502.88,546.28
28.883,500.9,545.63
28.9031,501.12,545.7
28.9229,500.9,544.76
28.9431,500.12,544.81
28.9632,500.69,543.85
28.983,499.36,544.08
29.0031,499.08,544.46
29.0229,502.07,544.57
29.0429,501.65,544.66
29.063,500.92,544.12
29.083,501.94,543.9
29.1032,502.35,543.72
29.1229,502.48,544.18
29.1429,501.98,543.14
29.1629,502.19,541.71
29.1831,502.95,540.97
29.2031,503.76,538.58
29.2229,503.01,538.66
29.243,502.01,537.13
29.2629,503.41,535.5
29.2832,504.52,535.2
29.3031,505.62,536.56
29.323,504.1,536.05
29.3429,502.88,532.64
29.3629,502.3,531.11
29.383,502.04,528.09
29.403,502.83,529.07
29.4229,502.47,529.86
29.4429,503.77,533.49
29.4633,502.42,535.39
29.4831,501.93,538.31
29.5031,500.55,541.45
29.523,503.64,543.56
29.5431,504.11,543.05
29.5631,504.29,543.04
29.583,504.63,544.23
29.6029,505.3,543.78
29.6231,504.84,544.03
29.6429,505.47,543.62
29.6629,505.38,543.3
29.6831,504.7,543.04
29.7029,505.56,543.03
29.723,504.65,542.82
29.7432,503.52,543.26
29.763,503.42,543.01
29.783,501.73,542.61
29.8032,500.99,543.68
29.823,507.99,545.95
29.8429,534.99,552.36
29.8629,579.19,563.09
29.8829,631.35,576.27
29.903,682.88,585.22
29.9229,726.71,584.77
29.9429,757.17,577.42
29.9629,774.13,566.93
29.983,776.91,556.75
30.0033,770.72,547.2
30.0229,756.98,539.36
30.0429,739.38,533.09
30.063,719.31,528.07
30.0832,699.85,524.46
30.103,679.88,523.16
30.1231,660.1,522.13
30.1432,642.28,521.31
30.1628,626.42,522.04
30.183,611.34,523.04
30.203,595.87,524.63
30.2229,584.3,526.7
30.243,574.04,528.36
30.2629,553.23,531.69
30.2831,509.38,535.95
30.3029,451.11,540.16
30.323,384.69,542.13
30.343,321.55,541.1
30.3629,277.44,537.08
30.3832,255.95,531.87
30.4032,250.56,528.09
30.4229,255.05,526.07
30.4429,265.84,525.66
30.4629,280.87,525.73
30.4829,300.1,525.98
30.503,318.68,528.19
30.523,337.94,528.15
30.5429,354.95,530.12
30.5631,371.76,532.1
30.5833,386.81,533.48
30.6029,401.85,534.18
30.6229,415.28,535.14
30.6429,426.22,536.32
30.6631,436.18,536.65
30.6831,446.14,536.92
30.703,454.51,537.14
30.7231,460.81,537.91
30.7431,466.85,538.73
30.7629,470.68,539.18
30.783,474.54,540.35
30.8029,478.63,541.88
30.8228,481.11,543.7
30.8429,484.69,544.56
30.8629,487.35,544.65
30.8829,488.68,546.12
30.903,489.54,546.1
30.9231,491.43,546.48
30.9429,492.75,547.18
30.9629,493.2,547.34
30.983,496.36,547.28
31.0031,496.89,547.42
31.0229,498.11,547.94
31.0431,498.89,548.55
31.0628,498.91,548.64
31.0829,500.93,548.71
31.1029,501.74,548.57
31.1229,501.79,549.06
31.1429,502.04,549.24
31.1631,502.43,549.2
31.1829,502.34,549.36
31.2029,504.07,549.29
31.2229,502.66,548.83
31.2428,502.53,548.86
31.2631,502.62,548.69
31.2832,503.5,549.55
31.3031,502.8,551.04
31.3229,502.44,552.43
31.3428,503.75,553.55
31.3631,504.4,552.04
31.383,503.32,551.03
31.4031,502.06,550.82
31.4229,502.85,549.86
31.4429,502.88,549.29
31.4631,503.7,549.43
31.4831,503.56,549.34
31.5029,504.65,548.68
31.5228,504.52,547.54
31.5429,504.62,546.23
31.563,505.49,545.59
31.5829,505.59,545.87
31.6029,505.07,546.29
31.6229,503.66,546.04
31.6428,503.53,546.23
31.6629,505.42,546.18
31.6831,505.34,546.75
31.7029,504.87,546.6
31.7229,505.5,545.68
31.7429,504.2,546.54
31.7628,504.36,547.83
31.7831,504.09,546.87
31.8029,504.47,545.89
31.8229,504.38,546.71
31.8431,503.1,547.97
31.8631,503.08,548.98
31.883,502.26,551.58
31.903,502.41,551.87
31.923,503.13,551.09
31.9429,502.1,551.67
31.963,501.28,552.94
31.9828,502.63,554.55
32.0029,501.7,552.24
32.0231,501.96,552.59
32.0432,501.37,553.47
32.063,502.09,552.58
32.0829,498.88,553.66
32.1028,506.3,554.73
32.1229,537.44,556.78
32.1429,584.75,557.03
32.163,639.4,554.82
32.183,687.12,551.26
32.2029,724.9,546.81
32.223,753.52,538.64
32.244,766.41,532.72
32.2638,764.53,528.77
32.2839,759.83,528.42
32.3039,743.66,527.93
32.3238,725.93,527.95
32.344,704.54,527.76
32.3638,683.83,528.41
32.384,664.27,529.13
32.4039,645.41,530.1
32.4239,628.53,531.68
32.4439,613.42,531.14
32.464,598.34,533.92
32.484,586.27,537.73
32.504,574.42,540.99
32.5239,566.93,545.19
32.5438,538.95,551.75
32.5639,491.16,560.6
32.5838,429.93,569.68
32.6039,362.34,570.54
32.6238,308.47,565.64
32.644,280.58,560.11
32.6639,267.86,554.89
32.6839,267.89,549.11
32.7039,275.51,549.09
32.7238,289.01,549.07
32.7439,307.41,549.26
32.7649,326.33,548.4
32.7848,343.86,546.12
32.8049,357.69,543.7
32.826,371.95,543.96
32.847,385.36,543.77
32.867,396.69,544.41
32.8869,407.95,545.13
32.9068,417.36,544.7
32.9268,430.09,546.76
32.947,441.27,547.41
32.9668,451.42,547.13
32.9869,458.53,547.5
33.008,463.03,547.4
33.0282,467.62,550.12
33.0479,471.9,550.1
33.0679,476.52,550.08
33.0879,480.61,550.66
33.108,483.29,552.33
33.1279,486.23,553.66
33.148,487.79,554.53
33.1679,490.03,554.22
33.188,490.62,553.98
33.208,490.7,554.78
33.2279,491.16,554.23
33.248,490.13,557.38
33.268,489.5,559.91
33.288,489.6,560.72
33.3079,491.88,561.78
33.3281,493.3,559.62
33.3478,493.64,557.9
33.368,494.92,555.92
33.3879,495.53,551.54
33.4078,496.23,548.43
33.428,497.38,547.74
33.4479,495.9,547.19
33.468,496.12,548.76
33.4882,495.9,549.8
33.5078,496.92,549.84
33.5279,496.34,550.67
33.548,497.27,549.94
33.5679,499.01,553.35
33.588,499.81,555.88
33.6078,499.65,556.51
33.628,500.92,557.8
33.6478,501.34,559.44
33.6679,501.67,559.15
33.688,501.13,558.72
33.7082,501.31,558.58
33.728,502.45,558.26
33.7479,503.16,557.41
33.7678,502.53,555.73
33.7879,503.02,555.38
33.8078,502.02,554.91
33.8279,503.61,554.72
33.8479,503.89,553.18
33.8679,504.71,554.34
33.8879,504.97,555.68
33.9079,505.18,555.34
33.9279,504.34,555.67
33.9478,504.87,555.94
33.9679,504.1,555.55
33.9878,504.08,555.04
34.0078,502.66,555.83
34.0279,502.13,555.27
34.048,502.1,552.61
34.068,503.68,552.49
34.0879,503.35,551.99
34.1079,503.28,551.39
34.1279,503.02,550.91
34.1478,503.82,552.33
34.168,503.65,551.67
34.1879,503.52,551.13
34.208,503.82,551.91
34.2279,504.45,552.32
34.2479,503.96,552.86
34.2689,503.17,551.69
34.2888,501.54,551.15
34.309,501.83,550.32
34.3289,501.26,550.86
34.3489,501.41,551.28
34.3689,502.33,550.63
34.3899,503.86,549.7
34.41,504.49,549.16
34.4298,504.79,549.33
34.4499,503.83,549.66
34.4698,503.67,548.13
34.4899,503.93,547.5
34.5098,503.75,546.4
34.5299,503,546.32
34.5499,502.8,545.46
34.5698,502.44,544.57
34.5898,502.55,544.65
34.6098,501.84,544.92
34.6299,502.67,545.14
34.6499,502.94,545.51
34.6698,503.75,545.41
34.6899,504.8,546.13
34.7099,503.44,546.7
34.7308,504.55,546.56
34.7509,505.44,547.25
34.771,505.35,546.8
34.7908,505.28,547.24
34.8109,506.03,547.59
34.8309,506.62,546.67
34.851,506.9,546.94
34.8708,506.92,547.15
34.8909,505.53,547.92
34.9109,506.43,547.54
34.9309,505.34,548.63
34.9511,510.27,550.3
34.971,537.02,551.84
34.9908,580.41,553.87
35.0108,632.93,555.3
35.0308,683.55,555.64
35.051,725.44,553.71
35.071,754.15,549.17
35.0919,769.32,544.54
35.1119,774.26,539.43
35.1318,766.2,535.74
35.1519,752.76,532.99
35.172,734.01,530.2
35.1919,712.81,529.16
35.2119,691.25,527.92
35.2318,670.8,527.54
35.2518,652.44,527.23
35.272,634.95,526.59
35.2929,618.76,528.67
35.3129,604.01,529.33
35.3329,591.01,530.47
35.3531,579.21,532.17
35.3729,556.56,534.34
35.3929,513.45,542.47
35.4129,453.56,549.98
35.4328,389.25,549.78
35.4528,326.8,545.23
35.4729,285.04,539.78
35.4929,265.43,535.42
35.5129,260.15,529.74
35.5339,266.32,527.59
35.5538,278.25,525.87
35.5738,295.6,526.7
35.594,312.88,527.56
35.615,332.11,528.45
35.635,351.48,530.96
35.6549,363.39,533.17
35.6748,374.71,537.13
35.6949,386.77,539.91
35.7148,400.01,540.13
35.7349,412.21,542.7
35.7551,422.37,544.36
35.7759,431.9,545.69
35.796,439.52,547.55
35.8158,448.61,549.64
35.8358,456.29,551.31
35.8558,463.23,552.05
35.8759,467.79,554.04
35.896,472.23,554.83
35.9159,476.38,556.27
35.9358,482.11,558.01
35.956,485.89,557.21
35.9758,488.71,557.57
35.9958,490.77,557.25
36.0158,493.01,558
36.0358,494.21,557.2
36.0559,496.37,556.56
36.0759,496.09,556.65
36.0968,497.28,557.52
36.1169,497.82,558.42
36.1368,498.66,559.73
36.1568,498.73,559.59
36.1768,499.58,558.87
36.1968,499.46,558.9
36.2168,499.57,558.92
36.2368,498.26,558.93
36.2568,499.21,558.75
36.2771,499.16,558
36.297,498.93,558
36.3169,498.95,558.6
36.337,499.16,558.28
36.3571,499.52,557.82
36.3768,499.22,557.66
36.3969,499.78,557.93
36.4178,499.22,557.34
36.4379,498.18,556.27
36.4579,499.94,556.02
36.4778,500.95,555.61
36.4978,500.56,554.69
36.5179,501.45,554.55
36.5378,500.76,554.24
36.5578,501.01,553.99
36.5778,500.61,553
36.5978,500.89,553
36.6179,501.51,553.4
36.6381,502.01,553.12
36.6578,502.21,552.69
36.6778,503.36,552.76
36.6978,503.69,553.6
36.7179,502.75,553.28
36.7378,502.4,552.43
36.758,502.92,552.14
36.7779,502.14,553.31
36.7979,500.71,554.05
36.8178,500.77,554.64
36.8378,501.21,553.51
36.8578,501.37,553.81
36.8778,500.1,553.65
36.8978,499.08,554.72
36.9178,499.46,554.57
36.9378,500.17,554.46
36.9578,500.54,553.77
36.9778,501.63,553.81
36.9978,501.9,554.45
37.0179,501.92,554.96
37.0378,501.94,555.37
37.0579,500.55,555.1
37.0778,500.84,554.88
37.0978,501.07,555.5
37.1178,500.26,556
37.1378,499.21,556.4
37.1578,498.76,557.72
37.1778,499.01,557.18
37.1978,497.61,556.74
37.2178,497.89,557.99
37.238,498.71,557.39
37.2579,498.37,557.32
37.278,499.29,556.45
37.2978,500.84,555.96
37.3178,501.87,555.57
37.3378,501.69,556.66
37.3578,502.76,557.52
37.3778,502,558.62
37.3979,502,559.3
37.4179,502.4,558.44
37.4379,501.72,557.35
37.4579,500.78,558.28
37.4778,500.42,558.42
37.4978,500.74,557.74
37.5178,500.59,556.79
37.5381,501.07,556.23
37.5578,501.06,556.39
37.5778,501.05,556.51
37.5978,500.44,556.61
37.6177,501.15,556.69
37.6379,502.12,556.15
37.6578,502.3,555.52
37.6779,503.04,555.82
37.6978,503.63,554.45
37.718,503.1,553.16
37.7379,502.28,552.33
37.758,502.23,551.86
37.778,501.78,550.89
37.7978,501.22,550.71
37.8179,499.58,550.57
37.8378,499.26,551.06
37.8579,498.81,551.84
37.8778,498.65,551.68
37.8981,498.52,551.14
37.9178,499.22,551.51
37.938,500.37,551.21
37.9581,501.1,551.57
37.9778,500.48,551.45
37.9978,499.98,551.96
38.0179,499.39,552.17
38.0378,499.91,551.34
38.0579,500.13,550.47
38.0779,500.5,551.18
38.0978,500.8,550.94
38.1177,501.24,550.75
38.1378,501.39,551.4
38.1578,500.91,551.92
38.1778,501.93,551.94
38.1978,501.75,552.55
38.2178,502.8,552.04
38.2378,503.44,552.63
38.2578,503.15,552.71
38.2778,502.92,551.56
38.2978,502.94,551.05
38.3177,503.75,549.44
38.3378,502.8,549.15
38.3577,502.84,548.92
38.3778,502.47,549.74
38.3978,502.58,549.99
38.4178,502.46,550.59
38.4378,502.37,551.07
38.4578,503.3,551.06
38.4778,502.84,551.65
38.4978,502.07,551.52
38.5178,501.86,551.41
38.5378,501.08,549.73
38.5578,502.07,549.59
38.5778,502.05,549.67
38.5978,501.84,549.13
38.6178,501.87,548.51
38.6378,502.5,548.21
38.6579,502.4,548.56
38.6778,501.52,549.05
38.6978,501.62,547.84
38.7178,501.09,548.47
38.7379,500.27,548.38
38.7578,499.62,548.9
38.7779,499.3,550.12
38.7978,499.64,549.5
38.8177,499.71,549.4
38.8381,499.97,549.12
38.8578,500.37,549.49
38.8778,501.3,549.4
38.8978,501.44,548.12
38.9178,501.75,548.49
38.9377,501.8,548.39
38.9578,501.84,549.32
38.9778,501.47,549.85
38.9978,501.38,549.28
39.0177,501.5,549.23
39.0379,502.4,547.78
39.0578,502.12,546.82
39.0778,500.7,547.26
39.0979,501.16,547.81
39.1178,501.33,548.05
39.1377,501.66,547.64
39.1579,501.73,546.91
39.1779,501.78,545.53
39.1979,502.43,543.82
39.2179,502.94,543.26
39.2378,503.95,542.01
39.2578,503.76,541.8
39.2781,504.01,540.24
39.2978,504.81,540.6
