Program Time [s],data 0,data 1
3.78153,497.41,554.33
3.80158,497.53,553.06
3.82261,497.02,552.25
3.84264,497.42,552
3.86248,497.33,551.4
3.88253,495.87,551.72
3.90252,494.89,552.98
3.92259,494.91,553.38
3.94248,494.13,553.9
3.9625,494.91,553.72
3.98249,495.52,553.38
4.00274,496.42,552.7
4.02276,496.54,551.96
4.04382,496.03,551.77
4.06372,495.02,554.02
4.08362,493.82,557.01
4.10358,492.05,566.61
4.12349,488.44,583.29
4.14349,485.35,604.43
4.16352,482.28,622.74
4.18351,483.03,628.8
4.2035,487.22,624.04
4.22348,491.18,612.03
4.24362,492.74,595.62
4.26354,496.19,577.5
4.28353,498.15,559.4
4.3036,500.12,542.12
4.32352,500.7,527.1
4.34352,500.96,515.68
4.36358,500.97,509.54
4.38345,502.17,504.63
4.40346,502.14,500.91
4.42357,500.71,500.52
4.44351,499.37,501.62
4.46355,499.1,503.1
4.48458,498.88,507.08
4.50457,497.1,510.86
4.52465,496.08,516.09
4.54457,495.86,520.47
4.56464,494.89,526.38
4.5846,495.51,529.3
4.60456,495.01,533.24
4.62563,495.61,536.19
4.64562,495.29,538.15
4.66659,495.23,540.32
4.68763,494.78,541.86
4.70864,494.83,544.09
4.72951,495.26,545.27
4.74954,494.41,545.42
4.76963,494.93,546.33
4.7895,494.94,548.27
4.80953,494.95,549.21
4.82953,495.56,549.17
4.84962,496.05,548.34
4.87057,495.64,549.67
4.89058,495.71,549.54
4.91057,495.37,549.23
4.93054,494.9,549.58
4.95056,495.52,548.67
4.97047,495.21,548.53
4.99052,494.37,549.63
5.01056,494.3,550.1
5.03054,493.84,551.68
5.05051,493.67,552.14
5.07056,492.34,553.32
5.09048,491.47,553.45
5.11061,491.97,552.56
5.13158,492.18,552.45
5.15153,492.54,553.56
5.17164,492.04,553.65
5.19159,491.23,553.72
5.21157,491.58,553.37
5.23152,491.67,553.3
5.2515,491.93,551.84
5.27155,492.15,550.87
5.29156,493.32,549.9
5.31169,494.05,550.12
5.33167,493.44,550.89
5.35154,493.95,551.32
5.37147,493.16,551.25
5.39159,493.93,550.8
5.4116,494.14,550.44
5.43158,494.12,550.15
5.45156,494.09,549.72
5.47152,493.87,550.58
5.49152,493.9,550.46
5.51146,493.52,551.77
5.53155,493.82,552.02
5.55155,493.85,552.61
5.57161,492.88,553.69
5.59158,492.71,553.15
5.61166,492.36,553.12
5.63158,491.69,552.5
5.65151,490.35,552.2
5.67156,490.48,551.96
5.69161,490.39,551.57
5.71161,504.71,551.25
5.73148,536.77,551.2
5.7515,577.21,552.56
5.7716,619.37,553.25
5.79162,655.3,554.4
5.81254,683.24,554.12
5.83259,699.99,554.3
5.85246,708.99,554.44
5.8725,709.39,553.55
5.89255,704.11,552.44
5.91253,693.49,551.95
5.93248,678.99,550.96
5.95261,663.39,549.37
5.97256,647.72,548.7
5.99255,647.37,548.16
6.01246,630.1,546.52
6.03259,615.08,545.02
6.05253,602.06,543.82
6.07252,586.85,544.25
6.09258,574.68,545.2
6.11257,563.74,546.16
6.13247,554,547.13
6.15251,546,547.5
6.1728,538.8,548.8
6.19267,532.64,549.84
6.21256,527.11,552.47
6.23251,513.09,555.98
6.25258,486.47,558.38
6.27248,445.38,559.71
6.29256,395.9,557.17
6.3125,342.92,551.73
6.3326,301.34,545.59
6.35251,279.87,539.27
6.37254,272.9,534.01
6.39254,275.72,531.01
6.41246,284.97,528.41
6.4326,298.98,525.93
6.45364,317.38,525.74
6.47345,334.11,525.79
6.49358,351.48,528.03
6.51359,367.39,530.83
6.53349,382.51,532.86
6.55347,396.01,535.29
6.57361,408.61,538.23
6.59363,418.69,540.39
6.61359,428.75,541.91
6.6335,438.4,543.53
6.65364,447.32,544.42
6.67351,454.46,546.34
6.69351,459.16,547.67
6.71352,463.93,548.94
6.73351,469.55,549.75
6.7536,473.44,550
6.77353,477.15,551.2
6.79356,480.52,551.76
6.81356,482.42,553.01
6.83353,484.73,553.41
6.85349,486.39,553.32
6.87348,489.11,553.66
6.89352,490.69,553.73
6.91369,491.95,553.98
6.93456,492.56,554.79
6.95453,493.85,556.23
6.9746,494.08,556.58
6.99448,495.26,555.87
7.01453,496.01,555.29
7.0355,496.61,555.63
7.05558,497.89,556.11
7.07646,498.31,556.69
7.09643,500.05,556.95
7.11652,500.24,556.96
7.13649,500.59,557.37
7.15649,500.67,558.89
7.17663,500.34,559.52
7.19651,504.87,558.41
7.21675,506.1,557.73
7.23746,509.48,557.58
7.25769,505.18,557.67
7.27757,505.15,556.93
7.29845,503.12,556.15
7.31845,501.89,557.32
7.33852,501.31,557.65
7.35859,501.25,557.52
7.37951,501.2,556.82
7.3995,500.56,556.85
7.41954,501.05,556.48
7.43953,500.84,555.99
7.4596,501.67,555.99
7.47952,501.14,556.59
7.49953,504.51,557.07
7.51957,503.21,556.46
7.53958,523.37,556.17
7.55954,522.09,555.53
7.57952,518.87,555.23
7.60053,510.7,555.18
7.62067,505.56,555.95
7.64053,502.05,555.76
7.66045,499.64,555.4
7.68048,498.51,554.72
7.7006,499.41,553.18
7.72052,499.13,554.14
7.74155,499.7,553.51
7.76159,499.36,554.61
7.78151,498.49,555.49
7.80245,498.59,555.59
7.82251,500.47,554.47
7.84253,501.58,553.58
7.86242,501.66,551.26
7.88253,500.93,549.41
7.9027,500.94,549.13
7.92255,499.96,549.1
7.94253,500.56,548.68
7.96246,499.45,548.75
7.98243,497.76,548.2
8.0026,498.81,548.76
8.02355,499.25,548.41
8.04359,500.2,547.32
8.06358,498.96,547.86
8.08353,514.57,547.69
8.10351,545.25,549.75
8.12346,585.8,554.4
8.14353,628.04,561.72
8.16354,666.03,565.78
8.18352,694.23,564.82
8.2035,711.98,562.06
8.22353,720.59,557.45
8.24352,721.07,552.36
8.26348,714.65,547.89
8.28347,702.72,545.31
8.3035,688.98,543.45
8.32351,672.38,541.96
8.34344,655.31,540.17
8.36352,639.85,538.93
8.38352,623.48,538.35
8.4045,609.78,538.88
8.42564,596.42,538.9
8.44643,584.74,539.72
8.46644,574.79,541.18
8.48642,565.83,542.54
8.50642,556.47,545.03
8.5265,544.17,548.43
8.54649,523.94,558.74
8.56648,495.55,576.19
8.58647,457.04,597.35
8.60651,411.83,610.68
8.62645,364.47,610.75
8.64645,320.97,599.8
8.66653,289.18,582.04
8.68652,273.74,562.23
8.70645,272.39,542.38
8.72653,280.72,527.51
8.74645,293.57,516.61
8.76659,310.26,509.48
8.7875,326.21,505.59
8.80756,343.96,503.47
8.82752,361.17,503.98
8.84741,376.74,505.78
8.86751,390.79,508.22
8.88748,404.83,510.38
8.9075,417.27,514.5
8.92744,428.41,519
8.94743,437.93,523.6
8.96743,446.74,527.88
8.98752,454,530.31
9.00752,460.6,533.44
9.02766,465.68,536.56
9.04772,470.34,538.84
9.06769,474.87,541.68
9.08749,481.3,543.14
9.10752,488.84,543.91
9.12747,492.47,546.13
9.1478,494.38,546.5
9.16753,497.5,548.2
9.18759,492.6,549.56
9.20748,492.28,551.25
9.2275,491.02,552.6
9.24746,490.62,554.48
9.26752,490.5,555.78
9.28745,491.4,554.63
9.30758,491.72,555.1
9.32749,493.17,554.88
9.34753,492.74,554.11
9.36757,492.59,554.68
9.38743,492.27,555.15
9.40747,492.02,556.72
9.42758,491.41,555.97
9.44747,491.93,556.38
9.46746,492.95,557.3
9.48747,493.16,557.44
9.50763,492.73,556.95
9.52767,492.78,556.36
9.54752,493.02,555.09
9.56807,493.42,554.27
9.58752,492.74,555.02
9.60747,492.39,555.01
9.62757,492.91,554.61
9.6475,492.93,555.09
9.66762,493.14,556.87
9.68761,491.91,555.7
9.70753,492.33,555.16
9.72752,492.87,555.73
9.74775,492.89,556.18
9.76746,493.11,557.14
9.78747,493.29,557.32
9.80766,493.43,557.25
9.82745,493.55,556.6
9.84746,493.44,555.88
9.86748,493.15,555.91
9.88747,492.32,554.92
9.90746,492.66,554.74
9.9276,493.72,553.19
9.94854,493.38,554.95
9.96952,494.7,554.96
9.98949,495.56,555.77
10.0095,496.05,555.22
10.0295,495.84,555.17
10.0495,494.87,555.94
10.0695,495.5,555.75
10.0896,496,555.4
10.1096,495.6,555.52
10.1295,495.08,555.02
10.1495,495.86,554.81
10.1695,496.89,553.85
10.1896,496.51,553.68
10.2095,497.21,553.54
10.2295,497.37,553.44
10.2495,497.69,553.75
10.2695,497.76,554
10.2896,497,554.4
10.3095,496.4,555.92
10.3295,497.12,556.14
10.3495,497.3,557.51
10.3695,496.84,559.21
10.3895,497.47,559.97
10.4094,497.58,560.77
10.4295,497.66,561.82
10.4496,499.13,560.85
10.4695,499.7,561.88
10.4895,501.76,561.31
10.5095,502.21,560.45
10.5295,500.77,560.16
10.5495,498.01,560.53
10.5695,500.21,560.22
10.5895,501.17,560.78
10.6095,507.34,562.42
10.6295,534.27,562.54
10.6495,567.81,561.23
10.6695,612.25,559.78
10.6895,653.4,558.03
10.7095,683.72,555.42
10.7295,707.58,553.54
10.7495,720.86,552.83
10.7695,723.49,552.26
10.7897,719.19,552.61
10.8095,711.15,551.29
10.8295,698.12,550.83
10.8495,683.9,549.86
10.8695,666.92,549.69
10.8905,650.53,549.95
10.9105,634.63,550.56
10.9305,619.5,550.65
10.9505,606,550.92
10.9705,593,551.34
10.9905,581.6,552.47
11.0105,570.68,552.58
11.0304,561.54,553.46
11.0505,555.44,554.97
11.0705,537.75,555.37
11.0905,503.6,555.9
11.1105,456.68,555.72
11.1305,399.34,556.38
11.1507,343.67,555.7
11.1707,307.34,552.96
11.1905,289.27,549.77
11.2105,284.62,547.41
11.2305,289.49,546.13
11.2508,300.2,545.51
11.2705,312.36,545.4
11.2905,328.48,545.52
11.3107,344.19,547.42
11.3306,360.55,548.54
11.3505,375.04,549.03
11.3707,389.23,550.22
11.3905,402.79,551.58
11.4107,415.63,551.26
11.4306,426.3,550.81
11.4509,436.84,551.45
11.4705,446.27,550.36
11.4905,454.22,550.29
11.5105,462.18,549.63
11.5307,469.94,549.1
11.5505,474.75,549.88
11.5708,481.2,550.71
11.5906,500.56,553.76
11.6105,498.65,556.41
11.6305,499.92,558.33
11.6504,501.34,559.26
11.6705,499.67,560.81
11.6905,498.33,561.25
11.7105,496.87,563
11.7306,495.49,564.2
11.7505,493,562.56
11.7705,494,560.65
11.7905,495.8,559.92
11.8107,496.64,559.33
11.8305,496.51,560.67
11.8505,497.61,561.13
11.8705,498.29,561.71
11.8904,499.03,562.57
11.9106,499.02,563.25
11.9306,499.42,562
11.9505,500.73,562
11.9704,501.79,561.8
11.9905,502.63,562.04
12.0105,500.3,562.83
12.0305,500.04,562.47
12.0504,499.43,560.77
12.0706,499.95,561.02
12.0904,498.76,561.21
12.1106,498.81,560.37
12.1304,498.45,559.7
12.1505,498.76,559.16
12.1704,498.6,558.73
12.1905,499.68,557.58
12.2106,500.35,557.46
12.2305,501.48,555.97
12.2504,501.98,554.38
12.2706,503.39,553.7
12.2905,502.31,554.16
12.3106,502.45,553.93
12.3305,501.76,554.74
12.3508,501.01,554.99
12.3706,500.8,554.8
12.3908,500.44,554.84
12.4106,500.56,554.67
12.4305,499.24,554.34
12.4515,499.2,554.67
12.4716,498.96,555.33
12.4915,498.76,554.27
12.5116,499.01,554.21
12.5314,499.21,553.17
12.5514,499.97,553.94
12.5714,499.37,552.75
12.5915,500.9,551.8
12.6115,501.92,552.24
12.6325,501.94,551.79
12.6534,502.15,551.23
12.6735,501.92,550.99
12.6935,501.93,550.99
12.7137,502.95,550.79
12.7335,502.96,552.23
12.7535,502.17,552.59
12.7736,500.73,552.07
12.7935,500.39,551.86
12.8135,499.91,551.48
12.8344,498.93,551.79
12.8545,497.94,551.03
12.8746,498.35,550.02
12.8955,498.48,549.62
12.9169,499.19,548.9
12.9367,499.95,548.32
12.9566,499.56,548.25
12.9764,499.45,547
12.9965,499.36,547.4
13.0165,498.29,547.72
13.0365,498.23,549.18
13.0574,505.98,549.74
13.0775,533.19,546.99
13.0975,576.55,545.19
13.1175,622.64,545.16
13.1374,665.11,544.32
13.1575,695.89,543.26
13.1785,716.31,544.41
13.1985,724.45,545.33
13.2185,724.56,545.66
13.2384,719.65,546.53
13.2585,710.72,546.62
13.2794,693.77,546.7
13.2994,677.02,547.36
13.3196,659.22,549.09
13.3396,640.97,550.67
13.3597,624.18,550.34
13.3798,609.94,551.67
13.3995,597.35,552.13
13.4194,585.28,551.71
13.4396,575.63,552.17
13.4594,565.5,553.13
13.4795,557.6,553.51
13.5005,541.88,555.01
13.5205,509.1,559
13.5415,461.68,564.2
13.5615,404.35,565.56
13.5815,347.48,561.05
13.6025,306.98,555.04
13.6234,288.19,548.23
13.6434,284.35,542.39
13.6635,288.68,538.91
13.6834,299.14,536.53
13.7036,314.31,534.02
13.7247,330.45,534.02
13.7446,348.16,533.81
13.7646,365.33,534.85
13.7846,380.06,535.88
13.8058,395.45,537.3
13.8255,408.16,540.44
13.8455,420.13,543.35
13.8657,431.5,545.48
13.8866,441.8,547.59
13.9065,449.24,549.67
13.9269,457.59,550.74
13.947,464.07,551.39
13.9664,469.06,553.31
13.9866,472.85,554.45
14.0065,476.28,555.96
14.0266,479.82,557.37
14.0466,484.06,558.09
14.0666,487.65,558.08
14.0866,488.92,558.26
14.1067,491.53,558.21
14.1266,493.43,559.77
14.1465,494.94,559.41
14.1664,495.55,559.93
14.1865,496.24,559.74
14.2064,497.79,558.8
14.2265,499.24,558.84
14.2467,499.39,558.27
14.2667,498.11,557.82
14.2864,497.49,557.65
14.3065,497.59,558.52
14.3266,496.87,557.62
14.3464,497.1,557.09
14.3664,498.08,556.48
14.3866,498.86,556.38
14.4064,499.09,556.5
14.4266,499.87,556.4
14.4467,498.3,557.32
14.4666,499.04,557.46
14.4869,499.23,558.17
14.5065,498.98,558.13
14.5265,498.19,558.11
14.5464,498.35,558.89
14.5664,499.08,558.71
14.5865,499.86,558.97
14.6064,499.69,559.57
14.6264,499.15,560.06
14.6464,497.92,559.45
14.6665,498.14,559.56
14.6865,498.31,558.45
14.7065,499.45,557.36
14.7265,499.76,556.89
14.7465,499.41,558.51
14.7664,500.13,559.21
14.7865,500.1,559.17
14.8065,499.68,560.33
14.8266,499.94,561.07
14.8464,500.36,561.25
14.8664,500.68,559.8
14.8864,500.95,558.84
14.9065,500.36,558.07
14.9264,501.49,558.26
14.9464,501.99,558.01
14.9664,501.99,558.21
14.9865,502.79,558.36
15.0074,503.43,557.29
15.0276,501.75,556.63
15.0485,501.8,556.31
15.0684,500.84,555.45
15.0884,502.87,554.36
15.1085,501.3,551.88
15.1285,502.04,549.91
15.1484,502.23,548.93
15.1684,501.58,548.54
15.1884,500.87,547.03
15.2085,500.49,546.03
15.2286,500.59,545.82
15.2486,500.08,545.66
15.2684,499.66,545.53
15.2884,499.93,544.62
15.3085,500.34,544.5
15.3285,501.27,544.2
15.3485,500.82,545.36
15.3685,501.26,545.89
15.3884,500.8,545.91
15.4085,500.24,545.73
15.4284,500.79,546.58
15.4484,501.64,546.27
15.4685,501.91,546.41
15.4885,502.73,545.73
15.5085,502.78,545.78
15.5285,503.43,545.03
15.5485,502.34,544.42
15.5695,502.87,544.14
15.5905,501.5,545.11
15.6107,500.2,546.09
15.6316,503.76,546.87
15.6516,524.01,547.7
15.6715,562.21,546.36
15.6915,606.16,545.09
15.7115,648.33,544.27
15.7314,682.87,543.61
15.7514,708.09,542.89
15.7715,721.47,544.11
15.7914,724.58,545.89
15.8116,718.26,546.51
15.8314,705.41,546.41
15.8514,690.33,545.13
15.8714,674.26,544.3
15.8914,656.01,545.04
15.9115,640.21,545.03
15.9315,623.97,546.03
15.9515,608.97,546.22
15.9714,594.98,547.78
15.9914,582.98,549.42
16.0116,573.79,550.14
16.0315,564.03,550.31
16.0514,554.82,550.45
16.0714,548.06,550.96
16.0914,534.25,552.37
16.1116,503.2,561.29
16.1316,457.16,571.43
16.1515,401.13,576.95
16.1715,345.7,572.56
16.1914,303.56,564.25
16.2114,283.05,554.4
16.2315,276.64,545.52
16.2515,281.31,539.21
16.2715,292.05,532.97
16.2915,307.84,529.78
16.3116,324.27,528.02
16.3316,341.82,527.42
16.3516,358.05,528.73
16.3715,375.04,528.79
16.3914,390.03,530.63
16.4115,403.63,533.1
16.4315,414.7,534.88
16.4515,426.36,535.91
16.4715,436.49,539.73
16.4916,444.99,541.78
16.5116,451.79,544.02
16.5315,458.63,546.02
16.5515,464.71,546.02
16.5715,471.17,546.81
16.5915,474.93,547.65
16.6114,479.35,547.92
16.6317,482.28,549.34
16.6514,484.02,548.87
16.6715,485.02,548.89
16.6915,485.41,550.52
16.7114,487.13,550.41
16.7316,487.9,551.13
16.7515,489.32,551.9
16.7715,490.06,552.52
16.7915,491.65,553.22
16.8115,493.52,553.17
16.8315,495.21,553.14
16.8515,495.97,554.31
16.8714,496.18,555.65
16.8914,496.34,556.12
16.9115,496.67,555.1
16.9315,499.14,553.08
16.9515,498.91,551.86
16.9715,497.93,551.89
16.9915,498.54,550.71
17.0115,498.23,550.17
17.0315,498.99,549.74
17.0515,496.59,549.79
17.0714,496.67,550.43
17.0914,496.94,550.94
17.1115,497.75,550.16
17.1315,497.6,549.32
17.1514,496.88,549.66
17.1716,495.7,549.73
17.1914,496.36,550.18
17.2115,495.69,550.15
17.2323,495.75,550.12
17.2526,494.8,548.69
17.2724,495.24,549.15
17.2925,494.59,549.92
17.3124,495.87,551.34
17.3324,496.7,552.07
17.3525,497.36,552.46
17.3724,497.69,553.17
17.3924,497.95,555.53
17.4125,499.16,556.03
17.4325,499.33,557.02
17.4525,500.06,556.62
17.4726,500.45,556.09
17.4923,501.56,555.87
17.5125,503.05,555.3
17.5328,502.84,555.04
17.5526,502.87,554.83
17.5727,502.3,555.27
17.5926,501.24,554.81
17.6127,500.79,555.65
17.6327,501.03,555.52
17.6526,500.83,556.02
17.6724,500.26,555.81
17.6924,500.81,555.65
17.7124,500.05,555.12
17.7324,500.44,555.1
17.7535,499.75,556.08
17.7734,498.6,557.66
17.7938,497.68,557.73
17.8134,495.54,558.58
17.8334,502.24,559.07
17.8536,530.59,558.65
17.8736,571.87,559.12
17.8934,621.9,559.1
17.9135,666.52,558.48
17.9335,703.61,556.38
17.9536,728.29,553.31
17.9734,737.63,551.05
17.9934,739.91,549.44
18.0134,731.72,547.35
18.0335,718.18,546.28
18.0535,701.14,544.02
18.0735,682.32,543.62
18.0934,663.45,543.49
18.1134,646.36,542.8
18.1335,630.29,543.44
18.1537,615.23,543.95
18.1733,602.19,544.16
18.1934,588.15,546.33
18.2134,576.12,548.26
18.2335,566.89,549.61
18.2534,558.92,550.69
18.2734,549.93,552.35
18.2934,546.35,556.68
18.3135,526.48,565.54
18.3334,493.38,583.44
18.3534,446.31,599.95
18.3733,392.04,606.56
18.3934,337.84,599.85
18.4134,296.07,587.48
18.4335,276.25,572.78
18.4536,269.6,560.83
18.4733,274.28,551.26
18.4934,284.63,543.81
18.5134,299.7,539.25
18.5333,316.16,536
18.5534,333.93,535.2
18.5733,351.74,533.96
18.5934,370.19,534.37
18.6134,385.36,535.09
18.6334,400.68,537.47
18.6534,414.75,539.18
18.6745,426.4,543.14
18.6943,438.12,545.92
18.7144,446.89,549.13
18.7344,455.12,551.71
18.7544,463.09,554.16
18.7744,469.27,556.13
18.7944,474.02,557.71
18.8145,478.62,558.36
18.8345,480.69,558.49
18.8543,482.95,560.19
18.8743,485.76,560.55
18.8944,489.21,561.04
18.9145,489.97,563.03
18.9346,491.57,564.03
18.9546,491.46,564.62
18.9743,491.97,565.1
18.9944,492.37,566.68
19.0144,493.7,566.54
19.0346,495.96,566.43
19.0547,496.37,567.95
19.0747,496.09,568.96
19.0946,495.68,568.57
19.1146,495.94,570.85
19.135,496.95,570.28
19.1547,496.76,570.63
19.1745,496.01,568.9
19.1946,496.41,568.32
19.2145,497.53,567.06
19.2345,495.82,566.85
19.2545,495.26,565.88
19.2745,496.21,566.1
19.2945,496.36,566.08
19.3154,497.09,565.06
19.3355,497.87,564.25
19.3554,498.3,564.8
19.3756,499.24,566.64
19.3963,502.19,566.91
19.4163,503.95,568.53
19.4364,505.76,569.82
19.4564,504.61,568.66
19.4764,506.49,572.93
19.4964,507.19,571.34
19.5164,506.75,570.47
19.5366,508,568.78
19.5564,509,566.62
19.5764,508,563.9
19.5964,507.4,560.72
19.6164,507.72,560.38
19.6363,509.58,561.1
19.6563,509.06,560.28
19.6764,506.65,559.02
19.6963,507.92,557.82
19.7164,507.94,557.06
19.7365,507.15,557.84
19.7565,507.12,556.08
19.7764,505.89,554.86
19.7965,503.72,556.09
19.8164,502.57,558.87
19.8364,502.46,558.9
19.8566,501.57,557.12
19.8764,501.45,557.09
19.8966,503.96,559.47
19.9166,500.97,557.38
19.9364,500.98,556.9
19.9565,500.38,553.12
19.9767,500.7,553.1
19.9966,501.56,554.08
20.0164,501.05,553.86
20.0364,502.84,554.89
20.0565,505.07,558.11
20.0764,502.06,556.09
20.0964,502.05,556.07
20.1164,500.04,555.46
20.1363,497.43,554.17
20.1564,497.74,553.53
20.1763,499.4,554.43
20.1965,498.52,552.94
20.2163,499.81,552.15
20.2363,499.25,553.32
20.2565,502.2,554.06
20.2764,503.76,553.25
20.2964,504.01,555.4
20.3167,502.21,555.72
20.3367,502.77,555.97
20.3565,503.01,557.38
20.3767,509.21,557.3
20.3963,536.77,556.64
20.4164,576.01,555.91
20.4368,623.61,554.53
20.4565,665.49,551.23
20.4764,699.79,551.18
20.4963,718.83,548.74
20.5165,729.67,546.6
20.5366,732.13,544.68
20.5564,725.31,544.14
20.5765,712.05,543.51
20.5963,695.04,542.41
20.6164,678.43,542.33
20.6364,660.74,540.66
20.6564,644.39,541.73
20.6764,628.72,540.78
20.6963,612.97,540.43
20.7165,597.58,542.14
20.7363,584.86,544.11
20.7566,571.49,545.49
20.7765,561.39,547.39
20.7963,553.31,547.11
20.8163,544.25,544.69
20.8363,538.6,544.75
20.8564,535.28,545.8
20.8765,531.62,547.24
20.8963,526.7,548.39
20.9163,503.96,545.31
20.9363,463.77,548.45
20.9564,412.21,553.56
20.9764,358.37,559.25
20.9966,313.3,558
21.0163,288.04,555
21.0364,280.03,551
21.0565,281.82,547.4
21.0764,290.06,545.12
21.0963,305.05,542.7
21.1163,321.64,541.96
21.1364,339.11,543.37
21.1568,354.29,544.29
21.1767,368.83,544.63
21.1964,384.06,545.11
21.2165,398.85,546.89
21.2363,410.48,548.31
21.2565,422.59,550.05
21.2764,432.07,551.64
21.2964,438.05,553.11
21.3163,441.04,554.29
21.3365,446.03,555.03
21.3565,452.23,554.82
21.3766,456.58,555.46
21.3967,458.87,552.97
21.4163,463.49,554.97
21.4367,469.39,560.18
21.4564,471.92,558.34
21.4764,472.93,558.07
21.4964,476.35,557.06
21.5166,477.68,554.85
21.5369,480.34,554.88
21.5566,482.47,554.9
21.5766,485.58,555.12
21.5964,487.06,555.5
21.6164,488.65,554.6
21.6365,489.92,553.88
21.6564,491.74,554.3
21.6766,492.79,554.04
21.6965,492.83,554.23
21.7164,494.06,554.39
21.7366,494.65,552.71
21.7564,496.12,552.17
21.7766,497.5,550.73
21.7963,498.2,549.79
21.8163,498.56,551.43
21.8367,502.05,551.74
21.8565,502.04,550
21.8765,503.03,551.4
21.8963,502.82,551.72
21.9164,501.06,550.57
21.9365,501.25,551.26
21.9565,502.2,549.21
21.9765,502.36,548.37
21.9964,505.29,549.29
22.0163,505.03,548.83
22.0364,504.42,551.27
22.0565,504.94,550.81
22.0763,505.15,550.25
22.0965,505.72,549.6
22.1165,505.18,549.08
22.1368,503.74,549.06
22.1566,503.19,549.25
22.1764,502.95,550.8
22.1964,501.96,551.24
22.2166,501.37,549.59
22.2367,500.9,549.67
22.2565,502.12,550.74
22.2765,500.49,550.59
22.2964,498.6,549.67
22.3163,498.68,550.74
22.3363,499.34,551.39
22.3565,499.87,550.51
22.3764,499.9,549.61
22.3964,500.52,548.29
22.4164,500.61,547.03
22.4364,502.29,548.22
22.4564,504.63,547.98
22.4764,504.71,548.38
22.4965,502.57,548.51
22.5165,500.85,548.01
22.5364,501.08,546.8
22.5566,501.47,546.84
22.5765,502.97,548.07
22.5965,503.78,549.86
22.6165,503.62,549.69
22.6363,503.3,550.15
22.6565,504.04,550.72
22.6765,509.83,550.98
22.6963,535.46,547.38
22.7165,579.97,542.1
22.7365,630.78,538.88
22.7566,677.02,536.11
22.7764,710.82,535.09
22.7964,728.45,533.87
22.8165,735.36,531.29
22.8365,731.29,530.04
22.8566,720.83,529.23
22.8766,707.47,529.38
22.8964,691.37,530.11
22.9163,672.1,530.89
22.9363,654.48,532.51
22.9566,635.98,532.81
22.9766,621.79,533.85
22.9963,607.63,534.68
23.0165,594.3,537.34
23.0365,582.44,540.07
23.0565,570.95,541.46
23.0765,563.56,542.57
23.0964,557.45,542.65
23.1164,548.76,542.32
23.1364,541.21,543.46
23.1565,534.37,544.37
23.1765,530.89,546.69
23.1964,527.91,547.55
23.2165,503.13,546.64
23.2365,458.51,550.11
23.2565,401,553.89
23.2765,344.8,554.31
23.2964,310.44,553.65
23.3164,294.35,552.52
23.3364,290.28,550.62
23.3564,293.43,549.09
23.3765,301.74,546.67
23.3964,315.59,545.74
23.4164,332.07,544.39
23.4364,348.26,543.31
23.4565,362.81,541.65
23.4764,377.05,541.52
23.4965,391.84,540.42
23.5165,405.47,541.73
23.5363,412.18,544.39
23.5566,420.54,545.71
23.5765,429.43,547.17
23.5964,438.55,547.73
23.6165,447.04,549.59
23.6364,451.63,550.67
23.6565,456.9,551.34
23.6764,462.52,551.67
23.6967,467.02,551.93
23.7164,471.41,550.75
23.7363,474.33,551.6
23.7566,476.47,551.48
23.7766,479.97,550.58
23.7966,482.98,549.47
23.8165,486.38,548.77
23.8364,489.91,548.42
23.8564,491.72,547.73
23.8764,494.58,547.59
23.8964,496.66,547.47
23.9163,496.73,546.58
23.9366,498.58,547.46
23.9566,497.87,547.77
23.9766,496.89,548.02
23.9963,496.92,548.61
24.0165,497.53,549.09
24.0365,498.03,548.87
24.0564,498.42,549.9
24.0764,498.54,549.32
24.0964,499.63,549.05
24.1165,500.3,548.64
24.1364,501.64,547.31
24.1565,502.51,546.45
24.1765,502.41,546.96
24.1963,503.93,547.17
24.2165,504.14,545.34
24.2363,503.51,545.47
24.2564,503.01,546.97
24.2764,502.21,546.78
24.2963,500.77,547.82
24.3164,501.21,547.46
24.3363,501.37,548.57
24.3566,501.3,548.65
24.3764,501.64,548.52
24.3963,500.91,548.02
24.4163,500.73,548.61
24.4364,500.58,549.69
24.4565,500.87,548.35
24.4765,500.49,547.08
24.4965,499.99,548.87
24.5164,501.2,550.29
24.5363,501.36,551.23
24.5565,502.09,551.19
24.5764,501.67,550.55
24.5963,502.53,551.04
24.6163,501.63,550.83
24.6364,502.1,550.47
24.6564,501.28,550.17
24.6764,501.63,549.54
24.6963,500.1,548.83
24.7164,500.28,549.66
24.7365,500.82,549.33
24.7565,500.06,548.67
24.7768,500.65,549.93
24.7967,499.32,549.35
24.8163,499.25,548.08
24.8364,500.6,547.46
24.8566,501.08,545.97
24.8764,500.87,545.18
24.8964,501.89,546.74
24.9174,502.71,548.39
24.9374,502.37,549.71
24.9583,502.9,550.97
24.9783,504.12,553.18
24.9983,505.09,553.74
25.0185,503.88,553.19
25.0384,511.1,552.75
25.0586,538.08,551.4
25.0784,580.26,548.72
25.0984,627.81,547.98
25.1182,670.05,547.58
25.1384,701.04,548.07
25.1583,719.83,547.65
25.1784,727.47,547.92
25.1983,727.57,548.14
25.2183,720.86,548.11
25.2385,710.69,546.89
25.2583,695.95,546.71
25.2782,677.96,546.57
25.2984,659.37,544.85
25.3186,642.09,543.48
25.3383,625.48,543.19
25.3583,610.38,543.75
25.3783,597.5,542.8
25.3984,585.6,543.44
25.4184,575.28,542.95
25.4383,565.43,544.96
25.4584,550.54,544.57
25.4784,519.03,543.66
25.4984,471.83,545.12
25.5183,415.26,546.7
25.5384,358.21,545.96
25.5583,310.97,544.97
25.5783,287.37,540.97
25.5983,279.3,537.98
25.6185,282.24,537.18
25.6384,290.79,537.55
25.6584,303.23,538.24
25.6784,318.99,539.79
25.6984,336.99,542.03
25.7183,352.19,544.43
25.7385,368.35,546.54
25.7582,383.68,549.03
25.7783,398.35,551.63
25.7983,410.68,552.5
25.8183,421.74,552.6
25.8382,434.39,553.48
25.8583,443.51,552.78
25.8783,451.41,552.23
25.8983,458.53,552.58
25.9184,463.82,553.27
25.9383,468.26,553.21
25.9582,474.01,552.77
25.9784,477.41,553.22
25.9982,481.52,552.57
26.0183,483.42,551.26
26.0383,486.14,552.41
26.0585,488.31,552.73
26.0782,491.85,553.98
26.0985,492.48,553.98
26.1183,493.38,552.99
26.1383,493.51,553.79
26.1584,493.8,554.83
26.1783,494.84,555.67
26.1983,495.87,556.93
26.2183,496.5,557.15
26.2382,497,556.12
26.2583,497.6,556.29
26.2783,497.88,556.03
26.2984,499.1,554.63
26.3182,499.08,554.7
26.3383,499.07,553.96
26.3584,499.45,555.77
26.3783,498.56,554.82
26.3984,498.65,555.45
26.4193,497.72,556.76
26.4394,496.98,557.81
26.4593,497.38,558.05
26.4794,497.7,559.64
26.4994,498.36,558.71
26.5193,497.29,559.37
26.5393,496.83,559.29
26.5594,496.07,558.44
26.5793,497.85,558.35
26.5994,499.28,557.68
26.6203,498.83,557.34
26.6404,498.86,556.87
26.6614,499.29,557.1
26.6814,499.63,556.88
26.7013,499.9,556.7
26.7213,500.92,557.56
26.7413,500.74,558.45
26.7613,499.39,559.36
26.7813,499.91,559.89
26.8013,498.53,558.91
26.8213,498.42,558.33
26.8413,496.94,558.06
26.8613,496.95,559.05
26.8813,498.16,559.64
26.9013,498.13,559.31
26.9213,498.5,559.65
26.9414,499.8,559.32
26.9614,499.44,558.66
26.9823,498.55,560.12
27.0023,499.24,559.9
27.0223,498.19,560.72
27.0423,498.96,560.98
27.0623,499.56,561.38
27.0823,499.25,560.9
27.1023,500.2,561.32
27.1223,500.96,561.46
27.1423,500.77,560.97
27.1624,499.62,562.57
27.1823,499.49,563.06
27.2024,498.99,564.05
27.2223,500.19,564.44
27.2423,500.16,563.95
27.2623,499.92,564.16
27.2824,505.14,565.33
27.3023,530.91,562.26
27.3224,572.93,559.81
27.3423,620.34,557.85
27.3623,664.87,557.08
27.3833,697.5,557.46
27.4035,718.4,555.97
27.4234,728.52,554.78
27.4433,728.82,553.22
27.4633,723.85,552.58
27.4833,712.08,551.66
27.5034,695.67,550.53
27.5234,679.93,550.22
27.5443,662.55,547.78
27.5644,644.24,548.22
27.5852,627.99,547.18
27.6053,612.59,546.14
27.6253,599.27,544.51
27.6453,586.62,543.21
27.6654,575.69,543.57
27.6853,565.76,544.86
27.7053,557,545.88
27.7254,548.8,547.31
27.7453,543.84,548.25
27.7656,527.47,544.8
27.7863,491.58,538.44
27.8063,442.86,530.35
27.8264,386.69,523.68
27.8463,330.35,519.34
27.8663,285.68,514.88
27.8863,264.15,511.7
27.9063,256.52,511.56
27.9263,260.01,512.85
27.9463,270.41,515.48
27.9663,286.33,519.98
27.9865,305.06,522.99
28.0064,323.25,526.59
28.0263,342.4,529.87
28.0463,355.12,531.3
28.0663,370.1,532.24
28.0863,385.08,533.59
28.1063,399.46,534.47
28.1263,411.37,536.18
28.1463,422.7,537.54
28.1663,432.76,539.43
28.1863,442.61,540.15
28.2068,452.08,543.12
28.2264,469.47,558.69
28.2463,485.77,575.76
28.2663,497.62,584
28.2863,505.9,585.8
28.3073,510.72,585.04
28.3274,513.37,584.63
28.3473,514.3,580.71
28.3674,515.64,576.97
28.3873,515.31,573.77
28.4073,515.85,570.82
28.4274,515.88,567.65
28.4473,512.9,565.52
28.4674,511.32,563.22
28.4873,510.06,561.38
28.5074,509.45,560.5
28.5272,509.36,559.6
28.5473,510.29,557.88
28.5673,512.03,555.7
28.5873,513.02,554.36
28.6073,512.02,553.69
28.6274,511.81,551.55
28.6475,510.25,551.04
28.6674,510.4,551.03
28.6873,510.92,549.43
28.7076,512.54,547.14
28.7274,512.03,548.51
28.7474,511.62,549.81
28.7676,511.9,550.45
28.7873,512.52,550.56
28.8074,511.22,551.25
28.8275,511.57,551.8
28.8474,510.66,551.24
28.8672,508.93,550.19
28.8874,508.14,548.15
28.9073,507.71,546.32
28.9273,507.57,544.86
28.9473,506.66,542.49
28.9674,505.32,541.59
28.9874,502.86,539.47
29.0074,502.29,537.58
29.0274,500.63,537.06
29.0474,496.7,534.85
29.0673,493.16,535.28
29.0875,490.73,534.22
29.1075,490.18,533.98
29.1273,490.75,535.38
29.1475,490,536.11
29.1678,489,537.29
29.1873,488.8,537.23
29.2073,489.64,537.58
29.2273,490.11,537.87
29.2474,489.89,538.09
29.2674,492.91,538.07
29.2873,493.13,538.26
29.3072,493.9,539.81
29.3275,495.72,540.25
29.3474,496.98,541.4
29.3676,497.78,543.32
29.3874,499.03,544.05
29.4072,500.82,545.04
29.4275,500.86,546.03
29.4473,500.69,547.43
29.4672,501.95,547.94
29.4873,506.56,549.75
29.5073,527.65,550.4
29.5275,566.32,550.32
29.5474,612.65,551.46
29.5676,657.92,552.57
29.5873,695.14,553.25
29.6072,721.51,553.4
29.6274,733.01,551.72
29.6473,737.01,549.18
29.6672,732.41,547.14
29.6872,720.12,545.91
29.7072,704.9,544.93
29.7273,688.52,543.94
29.7472,670.42,544.36
29.7672,652.53,543.88
29.7874,635.43,543.71
29.8072,619.14,543.37
29.8273,604.51,542.49
29.8473,589.81,543.59
29.8673,578.85,544.28
29.8873,568.48,544.82
29.9072,560.98,544.46
29.9274,553.39,544.17
29.9472,547.71,544.53
29.9673,541.37,545.23
29.9873,537.49,546.98
30.0074,517.8,548.98
30.0273,481.04,554.59
30.0474,433.83,558.47
30.0672,380.06,557.38
30.0873,329.05,552.7
30.1073,292.64,546.36
30.1273,275.11,541.09
30.1473,273.49,537.47
30.1673,278.39,535.78
30.1874,291.11,533.22
30.2073,307.69,533.78
30.2273,326.55,534.02
30.2473,345.24,534.22
30.2672,362.99,536.57
30.2874,378.19,538.86
30.3073,392.56,541.69
30.3274,407.04,542.75
30.3473,420.44,543
30.3674,432.55,543.6
30.3872,442.64,544.28
30.4073,451.91,545.42
30.4275,459.53,547.34
30.4472,465.42,549.07
30.4672,471.14,550.06
30.4873,475.71,549.85
30.5073,479.97,549.68
30.5274,484.57,549.74
30.5473,487.86,549.59
30.5673,489.69,550.27
30.5872,490.55,551.22
30.6075,491.44,551.58
30.6273,492.75,552.26
30.6474,493.2,551.61
30.6672,494.56,550.69
30.6872,496.65,549.15
30.7074,497.72,551.12
30.7275,499.38,553.1
30.7473,499.3,553.48
30.7674,500.24,554.38
30.7873,499.99,554.1
30.8074,500.59,556.28
30.8275,501.68,558.63
30.8473,498.94,557.9
30.8672,498.15,556.52
30.8872,497.92,556.62
30.9074,497.74,557.09
30.9274,497.99,556.87
30.9473,497.39,557.3
30.9672,498.31,556.24
30.9874,497.65,555.79
31.0073,496.72,556.43
31.0273,497.78,557.55
31.0472,497.22,557.64
31.0672,498.38,558.31
31.0872,498.3,558.25
31.1075,498.24,558.8
31.1273,498.99,557.84
31.1473,498.79,557.67
31.1672,499.04,557.14
31.1873,499.43,557.11
31.2072,499.14,557.29
31.2273,498.91,558.03
31.2472,497.93,558.02
31.2674,497.75,558.22
31.2883,497.8,559.78
31.3083,498.44,559.22
31.3282,499.15,557.98
31.3483,500.32,557.98
31.3684,500.46,557.38
31.3882,500.16,556.71
31.4083,500.33,555.37
31.4282,500.87,554.29
31.4483,500.69,554.03
31.4682,501.55,553.03
31.4883,502.64,553.42
31.5082,503.31,553.94
31.5282,503.05,553.95
31.5482,502.04,553.76
31.5683,502.23,554.01
31.5884,501.99,554.01
31.6082,501.59,553.21
31.6283,502.47,551.16
31.6484,501.78,550.53
31.6683,500.22,551.23
31.6882,501.38,551.18
31.7082,502.3,552.34
31.7282,502.64,551.88
31.7484,501.91,552.5
31.7695,501.13,551.2
31.7893,501.3,551.76
31.8092,501.24,551.41
31.8293,503.59,550.93
31.8492,525.08,550.74
31.8692,561.86,550.39
31.8892,606.29,551.31
31.9093,651.03,552.85
31.9292,687.42,553.88
31.9492,714.94,555.3
31.9693,730.95,556.04
31.9892,736.56,554.64
32.0092,732.85,554.31
32.0293,724.28,553.85
32.0495,711.42,553.48
32.0695,694.14,552.98
32.0895,675.51,552.99
32.1093,657.61,551.39
32.1293,640.09,551.51
32.1492,623.07,552.81
32.1693,608.26,553.25
32.1892,593.6,553.8
32.2092,582.68,554.64
32.2292,571.55,554.51
32.2492,563.84,554.61
32.2693,556.47,555.89
32.2893,548.98,557.71
32.3093,542.58,559.17
32.3294,536.66,563.73
32.3493,525.93,568.99
32.3692,499.35,580.39
32.3892,458.08,589.31
32.4093,406.86,587.65
32.4292,351.69,576.92
32.4493,306.35,562.14
32.4694,281.68,549.31
32.4892,273.54,536.85
32.5093,275.44,528.48
32.5293,284.95,522.18
32.5492,299.96,518.15
32.5693,314.77,517.12
32.5892,332.21,517.29
32.6093,348.77,519.83
32.6294,364.42,523.27
32.6494,380.33,527.61
32.6695,390.07,532.29
32.6892,399.65,538.43
32.7092,410.52,543.95
32.7292,421.42,545.96
32.7492,430.53,549.97
32.7693,439.23,552.37
32.7897,446.38,554.1
32.8093,451.91,557.28
32.8292,457.32,559.82
32.8492,461.46,561.86
32.8692,466.17,563.49
32.8894,469.93,563.39
32.9094,473.75,565.31
32.9295,477,567.05
32.9495,479.4,568.04
32.9693,482.12,568.83
32.9894,484.49,569.87
33.0092,486.6,570.09
33.0292,488.88,569.87
33.0492,490.1,569.9
33.0692,491.88,570.12
33.0893,492.1,570.3
33.1093,492.48,569.44
33.1292,493.79,567.95
33.1493,494.63,568.16
33.1692,495.5,569.13
33.1893,495.8,569.3
33.2093,495.44,569.64
33.2292,496.35,569.91
33.2492,496.48,568.93
33.2692,497.59,568.14
33.2893,497.67,567.32
33.3096,497.94,566.25
33.3293,497.95,564.6
33.3492,498.96,564.48
33.3693,499.17,565.39
33.3895,498.33,565.91
33.4094,497.47,565.93
33.4292,498.57,564.94
33.4494,500.46,563.75
33.4693,500.77,562.4
33.4892,500.21,561.52
33.5092,499.57,561.62
33.5294,498.46,560.49
33.5493,496.77,561
33.5692,497.41,559.6
33.5893,496.73,558.88
33.6092,497.38,558.5
33.6293,497.71,556.6
33.6493,497.17,555.88
33.6694,497.73,557.7
33.6892,496.39,558.76
33.7094,495.91,560.81
33.7292,496.33,560.85
33.7493,496.46,561.88
33.7692,496.97,563.1
33.7892,498.78,563.68
33.8092,498.02,565.95
33.8292,498.02,565.96
33.8494,497.81,566.77
33.8694,499.65,566.21
33.8892,499.92,566.37
33.9092,501.34,565.9
33.9292,502.07,565.92
33.9493,502.06,566.33
33.9693,502.04,566.27
33.9892,502.64,566.61
34.0094,502.51,566.09
34.0293,501.61,566.87
34.0492,501.49,567.9
34.0692,500.19,569.12
34.0893,498.35,568.29
34.1095,498.28,568.24
34.1293,498.02,567.79
34.1492,498.82,566.63
34.1693,498.66,565.1
34.1893,498.52,565.68
34.2093,498.42,564.95
34.2292,498.74,564.16
34.2494,498.59,563.93
34.2694,497.47,563.54
34.2893,496.18,563.63
34.3092,495.94,562.71
34.3292,496.95,560.96
34.3493,498.56,560.97
34.3692,499.85,560.58
34.3892,498.88,561.66
34.4093,502.5,561.73
34.4293,526.2,559.98
34.4495,566.96,557.59
34.4694,615.37,557.27
34.4895,664.9,557.42
34.5093,703.32,558.33
34.5292,729.85,558.47
34.5493,743.08,558.37
34.5693,745.87,559.9
34.5892,739.69,559.72
34.6092,728.15,558.37
34.6293,711.72,557.7
34.6493,693.78,556.76
34.6693,674.82,557.01
34.6892,656.46,556.61
34.7092,638.17,556.89
34.7292,621.53,556.31
34.7493,607.03,554.85
34.7693,593.22,554.08
34.7892,581.38,554.06
34.8092,571.3,556.25
34.8293,562.04,556.8
34.8495,545.03,556.04
34.8695,514.23,555.43
34.8894,466.18,555.35
34.9094,409.74,552.88
34.9292,351.4,547.3
34.9494,299.92,542.24
34.9694,271.53,537.39
34.9894,261.03,534.51
35.0092,262.62,533.21
35.0292,271.5,533.77
35.0492,285.6,535.22
35.0693,301.88,536.77
35.0894,319.7,539.22
35.1093,339.16,540.37
35.1292,357.53,542.1
35.1492,373.62,543.88
35.1693,388.7,546.5
35.1892,402.56,549.6
35.2092,415.45,552.28
35.2294,426.76,553.63
35.2492,437.21,555.3
35.2692,445.17,555.84
35.2892,452.73,557.67
35.3093,459.19,559.74
35.3292,463.75,560.79
35.3494,468.8,560.43
35.3692,471.44,560.75
35.3892,475.55,562
35.4094,478.64,562.8
35.4292,481.91,563.64
35.4495,486.53,564.71
35.4693,487.22,564.77
35.4893,489.38,565.01
35.5093,491.1,564.81
35.5292,491.88,565.45
35.5492,494.91,565.56
35.5694,496.32,566.45
35.5893,497.46,567.16
35.6092,499.17,567.13
35.6294,498.93,567.5
35.6493,499.75,567.4
35.6693,499.8,566.52
35.6893,499.24,565.62
35.7092,499.79,564.89
35.7292,500.03,564.71
35.7492,499.83,564.17
35.7692,499.66,562.34
35.7892,499.73,562.27
35.8092,500.38,561.02
35.8292,500.51,560.41
35.8493,501.21,559.73
35.8694,501.56,558.58
35.8893,500.25,556.47
35.9093,499,554.77
35.9293,498.8,551.62
35.9493,498.24,549.1
35.9692,497.99,547.08
35.9892,497.79,545.26
36.0092,497.24,544.21
36.0292,496.79,541.97
36.0493,495.43,541.17
36.0694,494.54,540.94
36.0893,494.44,540.35
36.1092,493.75,540.88
36.1293,492.2,541.1
36.1492,491.16,541.48
36.1694,491.73,541.59
36.1894,491.58,542.87
36.2093,491.47,544.1
36.2292,490.97,545.48
36.2496,492.18,546.98
36.2692,493.54,547.39
36.2893,493.63,548.11
36.3093,494.31,548.49
36.3293,494.25,549.19
36.3494,494.2,549.75
36.3704,494.76,548.4
36.3903,494.41,548.72
36.4105,493.92,546.98
36.4303,494.54,545.38
36.4502,495.43,544.91
36.4702,495.75,543.52
36.4903,496,544.22
36.5104,496.6,546.18
36.5305,497.48,546.94
36.5503,497.18,547.35
36.5704,497.55,548.68
36.5902,498.64,548.35
36.6102,500.11,548.08
36.6304,501.29,546.46
36.6503,502.03,545.37
36.6702,501.62,546.5
36.6902,500.7,548.2
36.7103,500.56,548.76
36.7302,520.85,547.21
36.7504,560.28,545.56
36.7705,611.02,543.85
36.7902,657.82,544.28
36.8103,694.45,543.62
36.8304,720.56,544.3
36.8512,733.45,544.84
36.8713,739.16,544.87
36.8913,735.93,543.5
36.9113,725.14,542
36.9313,709.11,541.2
36.9514,691.09,541.16
36.9712,674.67,540.13
36.9914,656.34,539.9
37.0113,638.87,539.32
37.0312,622.7,538.86
37.0513,608.16,538.89
37.0712,596.53,538.91
37.0912,585.62,538.13
37.1114,574.9,538.5
37.1312,565.72,538.4
37.1513,535.97,539.72
37.1712,488.98,543.38
37.1914,430.38,545.7
37.2112,369.11,545.56
37.2313,321.69,544.05
37.2512,295.55,540.44
37.2712,285.64,537.35
37.2914,285.71,535.08
37.3112,294.77,532.66
37.3313,308.41,531.93
37.3514,324.73,530.15
37.3712,341.79,529.72
37.3913,357.23,531.77
37.4112,372.58,533.02
37.4315,387.47,534.41
37.4513,401.57,537.33
37.4712,413.26,538.87
37.4913,425.01,540.09
37.5112,434.81,542.87
37.5314,442.84,544.9
37.5512,449.28,546.52
37.5714,456.02,547.42
37.5913,462.22,547.13
37.6112,466.17,547.11
37.6323,471.34,547.68
37.6522,475.07,548.75
37.6722,478.06,550
37.6922,480.85,551
37.7131,483.08,552.2
37.7333,484.66,552.36
37.7532,486.73,551.69
37.7732,489.18,549.75
37.7932,491.15,550
37.8133,492.32,549.6
37.8334,492.85,550.88
37.8534,493.88,551.3
37.8734,493.71,550.44
37.8933,493.17,549.55
37.9133,493.73,548.64
37.9332,493.59,550.31
37.9532,492.67,550.25
37.9735,493.93,550.4
37.9934,494.95,551.32
38.0132,495.56,551.26
38.0331,495.45,551.21
38.0532,496.96,551.16
38.0733,498.77,550.33
38.0932,499.41,549.47
38.1132,499.73,550.57
38.1332,500.18,550.66
38.1532,500.15,552.33
38.1732,501.12,551.46
38.1933,500.69,551.97
38.2133,500.96,550.78
38.2332,499.76,550.42
38.2533,499.61,550.34
38.2734,499.09,550.07
38.2934,499.47,549.46
38.3132,498.98,549.76
38.3332,498.98,549.61
38.3533,498.59,549.49
38.3731,499.27,549.19
38.3932,499.61,548.35
38.4132,499.69,548.48
38.4331,498.35,547.79
38.4532,497.48,548.83
38.4733,496.59,547.66
38.4933,496.67,547.93
38.5133,497.74,547.54
38.5333,499.19,547.84
38.5533,501.35,546.87
38.5743,500.88,546.09
38.5942,500.7,545.08
38.6142,502.16,544.26
38.6341,500.73,543.21
38.6543,499.38,544.77
38.6753,498.11,545.41
38.6952,498.29,546.13
38.7152,498.23,548.1
38.7351,498.98,547.68
38.7552,499.59,548.55
38.7753,500.87,549.04
38.7952,501.1,550.23
38.8152,501.28,549.98
38.8362,500.42,551.79
38.8563,500.94,552.43
38.8761,501.15,552.94
38.8961,501.32,554.16
38.9162,501.46,555.52
38.9361,502.36,557.22
38.9564,502.29,557.38
38.9762,502.83,556.7
38.9962,503.67,557.16
39.0161,503.93,558.33
39.0362,504.55,557.46
39.0562,504.64,557.77
39.0763,504.91,557.82
39.0961,504.93,558.65
39.1162,505.54,558.72
39.1362,504.83,558.38
39.1562,505.07,556.9
39.1762,505.05,556.52
39.1962,505.24,556.82
39.2162,505.59,556.45
39.2362,504.48,556.56
39.2562,503.78,557.25
39.2762,503.02,558.2
39.2963,503.62,557.56
39.3162,502.5,557.45
39.3362,502,557.56
39.3562,500.6,557.85
39.3762,500.48,557.48
39.3962,499.18,558.58
39.4162,499.35,558.27
39.4362,498.88,558.21
39.4562,497.9,559.57
39.4762,498.92,559.06
39.4962,499.54,558.64
39.5162,499.23,557.72
39.5362,498.38,558.57
39.5562,498.91,558.06
39.5762,498.93,557.85
39.5962,498.94,557.88
39.6163,497.95,557.5
39.6362,497.76,558.2
39.6563,496.81,557.96
39.6764,497.65,556.77
39.6962,498.12,556.22
39.7162,498.89,557.37
39.7362,497.92,559.1
39.7562,497.93,559.48
39.7762,498.55,559.18
39.7964,499.04,559.15
39.8162,498.23,558.92
39.8362,498.18,559.73
39.8565,498.55,559.99
39.8763,498.64,559.19
39.8963,498.31,558.95
39.9162,498.45,557.36
39.9362,498.76,557.69
39.9563,497.81,557.55
39.9762,497.85,558.24
39.9962,497.08,558.19
40.0162,499.06,557.95
40.0362,499.05,558.16
40.0562,499.24,558.93
40.0762,499.99,557.94
40.0963,500.59,557.16
40.1162,500.47,557.52
40.1361,500.78,557.62
40.1562,499.62,558.7
40.1764,500.1,559.76
40.1962,500.28,559.41
40.2162,499.62,558.52
40.2363,499.9,556.82
40.2563,499.92,556.86
40.2762,498.94,556.68
40.2962,499.55,556.95
40.3162,499.84,556.56
40.3362,498.67,556.65
40.3562,497.34,558.32
40.3763,498.87,559.25
40.3964,499.3,558.6
40.4162,498.24,557.88
40.4362,499.59,557.91
40.4562,499.07,558.12
40.4762,498.86,557.7
40.4963,498.49,557.16
40.5163,498.39,557.33
40.5362,498.51,556.66
40.5563,497.61,556.53
40.5762,496.89,556.22
40.5962,496.11,557.18
40.6162,496.89,558.34
40.6362,497.11,559.47
40.6563,497.49,559.98
40.6762,497.99,561.18
40.6962,497.99,562.55
40.7162,497.39,561.84
40.7363,496.92,561.07
40.7562,497.13,561.86
40.7762,498.31,560.68
40.7963,499.24,560.35
40.8164,498,560.08
40.8362,498.8,559.86
40.8561,498.64,558.69
40.8762,498.91,559.55
40.8962,497.13,561.44
40.9162,496.7,561.35
40.9364,496.76,559.68
40.9565,495.81,560.55
40.9763,495.25,561.04
40.9962,494.4,561.83
41.0163,494.52,562.06
41.0362,495.21,560.65
