Program Time [s],data 0,data 1
3.26291,491.36,553.6
3.28263,491.29,552.08
3.30287,492.43,551.46
3.32263,492.95,551.17
3.3428,493.96,551.14
3.36269,495.37,550.51
3.38279,495.09,552.21
3.40264,494.67,554.17
3.42266,493.14,553.33
3.4428,492.71,554.07
3.46279,492.97,554.25
3.48281,493.18,553.6
3.50288,492.54,553.88
3.52285,492.83,553.91
3.54294,493.67,552.92
3.56271,494.53,552.34
3.58285,495.23,553.27
3.60291,496.38,553.22
3.62277,495.9,552.37
3.64266,496.72,552.9
3.66278,495.78,553.92
3.68288,495.62,553.94
3.70278,495.7,553.95
3.72264,494.96,554.96
3.74271,494.17,554.17
3.76277,494.73,554.93
3.78281,494.79,554.95
3.80263,494.83,555.36
3.82268,494.46,553.89
3.84266,494.57,554.71
3.86276,493.86,554.17
3.88273,492.49,553.93
3.90262,493.59,553.95
3.92265,494.27,554.16
3.94274,492.62,553.93
3.96278,492.69,553.34
3.98272,492.15,553.27
4.00273,493.32,552.22
4.02262,493.66,552.77
4.04277,491.93,552.82
4.06276,492.54,553.06
4.08286,492.43,554.24
4.10261,493.35,554.2
4.12263,494.28,553.56
4.14288,494.02,555.25
4.16277,494.62,554.4
4.18277,493.49,554.32
4.20279,493,554.65
4.22265,492.4,553.92
4.2428,492.12,552.14
4.26264,492.29,551.31
4.28275,492.83,551.25
4.30284,492.27,550
4.32262,492.41,551
4.34284,492.13,550.6
4.3628,491.91,551.48
4.38262,490.92,550.58
4.40275,490.74,550.47
4.4227,491.59,550.37
4.44269,491.87,551.3
4.46274,491.3,552.24
4.48277,491.04,551.59
4.50268,490.63,552.27
4.52263,491.3,551.62
4.54262,491.84,552.29
4.56278,491.48,551.64
4.58269,492.58,553.11
4.6027,492.46,553.89
4.62262,492.77,553.11
4.64277,493.22,552.89
4.66287,491.97,551.71
4.6829,490.98,552.57
4.70277,489.98,552.25
4.72283,491.59,552.6
4.74279,492.27,552.68
4.76277,492.42,551.95
4.78281,492.93,552.36
4.80279,494.95,553.29
4.82263,506.96,559.83
4.84286,528.77,571.26
4.86273,555.21,585.81
4.88279,581.97,596.25
4.90274,607.18,603.2
4.92264,624.94,604.36
4.94276,637.35,601.49
4.96278,643.88,595.59
4.98278,645.51,587.07
5.00274,643.8,579.66
5.02267,637.24,571.33
5.04275,629.39,565.06
5.06274,619.32,559.45
5.08265,609.45,556.16
5.10264,598.56,554.13
5.12264,588.25,552.3
5.14271,577.6,551.84
5.16266,567.88,551.27
5.18281,559.5,551.02
5.20268,551.8,551.01
5.22267,544.44,551.41
5.24264,537.75,553.73
5.26263,531.4,553.58
5.28266,525.52,554.27
5.30278,520.62,555.01
5.32265,517.09,556.21
5.34276,513.68,555.57
5.36279,510.14,555.25
5.38266,508.31,556.4
5.40275,507.05,556.32
5.4227,504.64,555.86
5.44267,504.31,556.89
5.46277,503.45,556.71
5.48284,502.36,556.37
5.50282,501.29,556.09
5.52273,500.63,555.48
5.54287,499.9,555.38
5.56269,498.52,553.7
5.58274,496.82,553.16
5.60274,496.45,553.13
5.62276,495.96,555.1
5.6427,495.57,555.48
5.66272,496.26,555.19
5.68274,495.61,555.75
5.70275,495.08,555.6
5.72269,494.87,554.48
5.74275,495.29,553.78
5.7627,493.64,552.03
5.78276,492.71,552.62
5.80277,492.97,551.3
5.82269,492.57,552.84
5.84276,492.06,552.47
5.8628,491.05,552.38
5.88278,490.44,552.7
5.90275,487.35,554.36
5.92279,480.68,558.29
5.94281,471.34,569.23
5.96278,457.28,586.78
5.98279,441.22,600.03
6.00266,421.78,605.02
6.02267,400.22,600.02
6.04266,378.18,584.81
6.06277,354.94,561.65
6.0827,337.15,537.72
6.1028,323.92,516.38
6.12275,317.54,501.9
6.1428,319.63,492.32
6.16259,327.5,487.26
6.18274,338.4,484.81
6.2028,352.12,485.44
6.22264,365.5,488.16
6.24287,379,492.32
6.26279,391.8,497.86
6.28274,404.04,504.29
6.30267,415.23,509.23
6.32272,425.59,515.58
6.34277,434.87,521.07
6.3628,441.89,524.25
6.38286,448.12,526.8
6.40266,454.09,529.24
6.42264,459.47,532.39
6.44269,463.98,533.32
6.46278,468.38,534.05
6.48277,471.91,535.04
6.50266,475.33,535.63
6.52263,479.66,537.51
6.54275,481.13,538.01
6.56279,482.9,539.6
6.58287,484.32,540.08
6.60287,484.86,541.07
6.62266,486.89,543.25
6.64279,488.11,544.4
6.6628,487.69,543.92
6.68275,487.95,544.94
6.70287,487.76,545.35
6.72262,488.41,543.68
6.74289,488.73,544.74
6.76277,489.78,544.4
6.7828,490.42,545.32
6.80272,490.54,545.25
6.82267,490.03,546
6.84283,490.23,546
6.86286,490.58,546.2
6.88277,491.06,547.16
6.90271,491.05,547.73
6.9227,491.44,547.78
6.94284,491.35,547.43
6.96281,492.48,547.34
6.98275,492.19,546.07
7.00278,492.55,546.06
7.02268,493.44,545.25
7.04281,493.55,546
7.06266,493.64,546.2
7.08378,493.51,545.16
7.1038,494.61,545.33
7.12363,494.69,545.26
7.14362,493.95,546.21
7.16488,494.76,545.37
7.18476,496.21,546.49
7.20473,496.37,547
7.2248,496.49,547.2
7.24484,496.59,548.56
7.26476,495.08,548.85
7.28487,495.86,550.28
7.30476,495.69,550.22
7.32456,495.95,550.38
7.3447,495.76,550.1
7.36582,496.21,549.48
7.3858,495.17,547.78
7.4056,494.93,546.83
7.42577,494.15,545.26
7.44575,494.12,545.21
7.46571,494.09,543.57
7.48563,496.48,543.05
7.50579,497.18,542.24
7.5257,496.54,541.79
7.54564,496.64,540.84
7.56664,496.91,541.27
7.58676,497.73,540.61
7.60661,498.38,541.69
7.62667,498.91,540.95
7.64685,499.32,541.96
7.66673,499.06,541.97
7.68681,499.65,541.98
7.70664,499.72,540.38
7.72687,498.77,541.5
7.74669,498.02,542.6
7.76683,498.42,544.68
7.78659,497.73,545.55
7.80688,497.79,545.04
7.82688,497.43,544.43
7.84677,497.74,543.14
7.86684,496.99,542.92
7.88681,496.4,542.13
7.90661,495.12,542.11
7.92685,495.69,541.08
7.94673,495.95,539.67
7.96676,495.56,539.13
7.98671,495.45,541.31
8.00664,494.96,541.65
8.02689,494.57,543.32
8.04687,494.25,542.85
8.06674,493.4,543.68
8.08671,494.72,544.35
8.10662,494.18,543.88
8.12673,495.14,543.5
8.14679,495.51,544.2
8.16683,496.81,544.76
8.18684,497.25,544.21
8.2066,498,545.57
8.22681,498.4,544.05
8.24663,497.32,544.84
8.26678,497.26,544.87
8.28676,497.2,544.9
8.30674,497.56,544.92
8.32668,497.65,544.14
8.34679,497.52,543.71
8.36671,496.62,543.97
8.38676,495.29,544.57
8.40675,494.83,545.26
8.42682,494.67,545.61
8.44682,495.53,546.49
8.4668,495.83,546.19
8.4866,496.06,546.55
8.50664,496.45,547.24
8.52664,496.56,545.79
8.54668,496.65,546.23
8.56684,495.52,546.39
8.58655,495.21,546.31
8.60676,494.97,546.85
8.62677,496.18,547.28
8.64675,497.14,548.02
8.66675,497.51,547.82
8.68667,497.81,546.65
8.70666,498.85,548.12
8.7266,498.68,547.5
8.7468,498.34,547.2
8.76682,496.87,547.16
8.78683,496.9,547.33
8.80663,497.12,546.26
8.8268,497.3,545.21
8.84676,498.04,546.77
8.86664,497.83,547.21
8.88676,498.46,546.97
8.90673,497.37,547.58
8.92677,507.5,551.06
8.94676,528.8,559.05
8.96674,557.24,572.44
8.98676,587.19,583.15
9.00661,616.35,591.72
9.02673,639.08,595.18
9.04669,653.47,594.14
9.06674,662.37,590.31
9.08661,666.5,584.65
9.10661,666,577.72
9.12658,661,570.18
9.14677,652.8,563.54
9.16682,643.64,557.83
9.18672,632.71,553.07
9.20669,620.97,549.45
9.22672,608.38,547.36
9.24674,598.1,546.09
9.26674,588.08,545.07
9.28675,577.86,544.46
9.30685,568.29,543.77
9.32683,559.23,544.41
9.3468,551.79,545.13
9.36673,544.03,544.7
9.38684,538.02,545.36
9.40674,533.42,546.29
9.42663,529.93,546.63
9.44676,524.95,545.91
9.46672,520.96,546.32
9.48664,517.77,545.66
9.50664,514.61,546.33
9.52679,512.49,547.86
9.5467,510.39,548.29
9.56666,508.91,548.43
9.58673,507.53,548.75
9.60663,507.23,548.4
9.62656,506.18,548.72
9.64672,505.94,548.57
9.66682,504.96,549.46
9.68668,503.96,548.77
9.70658,502.77,548.21
9.72677,502.42,546.97
9.74664,500.93,547.58
9.76674,497.35,547.66
9.78663,488.68,547.93
9.80655,469.94,548.14
9.82687,442.55,544.71
9.84661,412.24,539.37
9.86699,381.39,531.3
9.88775,353.32,521.64
9.90754,329.25,511.11
9.92768,314.8,503.29
9.94771,311.44,498.83
9.96772,314.75,498.46
9.98754,324,499.77
10.0076,335.6,501.42
10.0275,349.48,504.93
10.0477,363.19,509.15
10.0676,377.35,514.32
10.0877,390.28,517.85
10.1076,403.82,522.48
10.1277,416.26,527.19
10.1476,427.21,531.75
10.1678,436.57,535.2
10.1876,445.05,536.56
10.2078,452.44,539.65
10.2276,457.55,541.52
10.2477,463.04,543.01
10.2677,469.03,543.61
10.2877,473.03,546.49
10.3077,476.22,547.19
10.3277,479.58,548.15
10.3478,482.26,549.12
10.3677,485.61,551.1
10.3877,487.49,552.08
10.4076,488.79,553.46
10.4277,491.03,552.97
10.4478,491.43,553.18
10.4676,491.94,551.94
10.4876,491.55,552.15
10.5076,492.84,552.72
10.5276,493.27,552.98
10.5477,494.02,552.78
10.5677,493.42,552.03
10.5875,494.53,551.42
10.6077,496.43,551.74
10.6277,496.74,551.59
10.6477,496.79,551.07
10.6678,497.43,551.66
10.6876,498.95,551.13
10.7079,498.96,551.3
10.7278,499.17,552.04
10.7478,499.53,551.23
10.7678,498.63,550.59
10.7877,498.3,550.27
10.8076,498.44,549.81
10.8279,498.15,549.25
10.8477,497.32,549.4
10.8677,496.66,549.72
10.8877,496.13,550.58
10.9078,495.9,551.26
10.9277,495.52,551.01
10.9477,494.22,551.21
10.9677,493.77,550.97
10.9877,493.82,549.97
11.0077,494.45,549.98
11.0277,494.96,549.78
11.0477,494.97,549.03
11.0677,496.58,548.82
11.0878,497.26,548.26
11.1076,498.21,548.41
11.1276,497.57,547.92
11.1476,497.45,548.54
11.1676,497.36,548.43
11.1877,498.29,548.95
11.2076,497.63,548.96
11.2277,497.91,548.56
11.2477,497.92,549.05
11.2676,498.74,548.84
11.2878,497.79,548.67
11.3076,498.03,548.74
11.3276,497.43,547.39
11.3476,496.94,546.51
11.3676,497.35,545.81
11.3876,497.28,546.05
11.4076,496.83,545.24
11.4275,496.46,544.39
11.4477,495.97,544.71
11.4677,496.37,544.97
11.4877,496.1,545.98
11.5076,495.68,545.98
11.5278,495.94,545.18
11.5478,495.56,544.75
11.5678,495.24,545.4
11.5877,495.2,546.52
11.6077,494.96,546.81
11.6278,494.57,546.45
11.6477,495.45,546.56
11.6677,494.96,545.65
11.6877,494.77,546.72
11.7076,495.62,546.38
11.7277,495.49,546.5
11.7478,495.39,546.2
11.7677,494.92,546.76
11.7887,494.73,546.81
11.8086,494.39,546.65
11.8286,494.51,545.52
11.8486,494.61,545.81
11.8686,493.49,545.85
11.8887,493.19,545.88
11.9087,493.15,545.1
11.9284,493.32,545.28
11.9486,494.06,545.43
11.9688,494.25,545.74
11.9886,494.2,545.59
12.0087,494.36,545.67
12.0286,493.49,544.94
12.0486,493.79,544.55
12.0686,493.83,544.84
12.0886,494.06,543.87
12.1087,494.85,544.3
12.1288,494.88,543.44
12.1486,493.91,543.15
12.1686,494.72,542.72
12.1886,494.78,543.58
12.2086,496.02,543.06
12.2286,494.82,543.65
12.2496,494.85,544.52
12.2697,494.08,545.62
12.2897,494.07,546.29
12.3097,493.25,546.43
12.3297,493.6,546.55
12.3498,494.48,546.24
12.3696,494.59,545.99
12.3896,494.47,545.79
12.4094,493.57,546.23
12.4294,493.06,546.59
12.4496,492.85,545.87
12.4696,493.28,546.1
12.4896,492.82,546.28
12.5096,493.26,545.42
12.5295,493.61,545.74
12.5497,494.49,545.79
12.5695,494.99,547.03
12.5897,494.59,547.83
12.6095,495.07,547.46
12.6296,493.86,546.97
12.6496,494.09,547.17
12.6694,493.87,546.94
12.6895,492.9,546.75
12.7106,493.32,547.6
12.7308,493.25,548.08
12.7506,494,546.86
12.7706,494.4,548.09
12.7906,494.92,548.67
12.8115,495.54,548.74
12.8316,494.63,548.79
12.8516,495.3,549.63
12.8717,494.44,550.31
12.8916,493.95,549.45
12.9116,494.56,549.36
12.9317,494.05,548.68
12.9516,493.24,547.95
12.9716,493.59,548.36
12.9917,494.47,548.49
13.0116,493.58,548.39
13.0316,493.06,548.31
13.0517,492.45,548.05
13.0718,492.76,548.04
13.0916,493.21,547.63
13.1116,492.97,547.31
13.1316,491.57,547.44
13.1517,491.06,548.16
13.1716,491.05,547.12
13.1915,492.24,547.9
13.2127,490.79,547.52
13.2326,489.63,547.62
13.2526,489.71,547.69
13.2726,489.96,547.95
13.2927,490.97,548.36
13.3127,490.18,548.89
13.3326,488.94,549.11
13.3527,494.75,551.69
13.3726,510,558.35
13.3926,533,570.48
13.4126,561.6,585.79
13.4326,594.48,598.83
13.4526,623.39,606.86
13.4725,645.51,609.69
13.4927,659.01,607.95
13.5128,665.61,602.56
13.5328,665.88,596.05
13.5526,661.91,587.44
13.5726,654.53,579.75
13.5927,644.82,572.8
13.6126,633.86,566.64
13.6327,620.29,562.51
13.6526,606.63,559.21
13.6724,594.3,556.57
13.6927,581.84,554.65
13.7127,570.67,552.32
13.7328,560.34,551.66
13.7526,552.27,551.73
13.7725,545.02,550.38
13.7926,537.61,551.11
13.8127,531.29,550.68
13.8327,526.03,550.75
13.8527,521.03,550.2
13.8725,516.42,550.16
13.8927,512.74,549.53
13.9126,509.99,549.62
13.9324,506.59,549.1
13.9526,503.47,549.28
13.9725,501.58,548.82
13.9926,500.06,549.26
14.0134,498.05,548.81
14.0334,495.84,549.04
14.0537,495.27,549.24
14.0736,494.22,550.19
14.0936,493.57,550.15
14.1136,492.46,549.32
14.1336,492.57,549.66
14.1536,491.45,552.13
14.1736,488.36,554.1
14.1937,480.09,557.28
14.2137,466.47,559.82
14.2337,443.98,558.26
14.2535,417.78,552.81
14.2736,390.43,542.25
14.2938,364.54,530.2
14.3136,341.83,515.96
14.3334,321.67,503.57
14.3536,309.33,494.45
14.3735,305.67,489.76
14.3936,309.93,487.61
14.4136,317.95,487.89
14.4336,329.96,490.11
14.4536,343.37,492.89
14.4736,356.89,496.91
14.4936,371.31,501.93
14.5136,384.45,506.74
14.5334,396.56,511.39
14.5535,407.05,515.32
14.5737,417.04,519.45
14.5938,426.83,523.76
14.6136,435.46,527.01
14.6336,442.77,531.01
14.6536,449.42,534.01
14.6736,454.53,536.6
14.6938,459.03,538.48
14.7135,461.82,539.79
14.7335,465.26,541.23
14.7536,469.21,542.18
14.7736,471.76,543.35
14.7938,474.01,544.28
14.8135,477.01,544.02
14.8337,479.01,545.02
14.8536,481.01,545.21
14.8734,482.8,546.57
14.8936,484.04,546.86
14.9136,485.24,547.69
14.9336,485.59,548.95
14.9536,486.87,549.76
14.9734,486.5,550.01
14.9937,487.2,549.61
15.0134,486.76,548.68
15.0337,486.81,548.75
15.0536,487.04,548.4
15.0736,487.24,546.92
15.0946,487.59,547.53
15.1146,488.27,546.23
15.1346,488.62,547.98
15.1545,489.89,548.19
15.1746,489.71,549.95
15.1946,486.77,550.76
15.2146,486.42,551.41
15.2347,484.93,551.53
15.2544,485.15,552.62
15.2747,485.52,553.5
15.2947,485.41,553.6
15.3147,485.33,553.68
15.3347,485.47,553.74
15.3546,486.17,553.99
15.3745,486.34,554.4
15.3946,486.27,554.32
15.4146,486.42,552.65
15.4346,485.53,551.92
15.4546,485.23,555.34
15.4747,485.38,556.47
15.4946,486.3,556.58
15.5146,484.44,555.86
15.5346,484.56,555.69
15.5546,485.44,555.35
15.5747,485.56,554.88
15.5946,485.64,554.1
15.6146,485.92,554.28
15.6346,485.53,554.43
15.6546,485.43,554.54
15.6746,486.34,553.63
15.6944,486.27,553.11
15.7147,484.82,551.89
15.7347,484.45,551.11
15.7547,485.56,552.09
15.7745,486.45,552.47
15.7944,487.56,553.18
15.8145,487.45,553.14
15.8346,485.56,554.31
15.8546,486.05,552.45
15.8747,486.64,552.76
15.8946,485.91,553.01
15.9145,486.53,553.61
15.9346,486.62,554.29
15.9546,486.1,554.23
15.9747,487.48,553.98
15.9946,486.78,553.19
16.0146,487.23,553.55
16.0345,486.58,553.64
16.0544,488.26,554.31
16.0747,488.41,554.05
16.0946,488.53,554.24
16.1146,488.22,553.99
16.1346,487.98,553.19
16.1545,489.38,553.95
16.1744,488.31,554.36
16.1947,488.65,554.89
16.2146,488.32,553.91
16.2347,487.05,553.13
16.2545,486.04,552.7
16.2744,486.83,552.16
16.2945,487.07,552.53
16.3144,487.85,553.02
16.3345,487.68,552.82
16.3547,487.55,552.86
16.3746,486.84,553.08
16.3946,486.67,553.07
16.4145,486.74,552.45
16.4346,486.59,551.96
16.4544,486.67,551.57
16.4746,486.94,550.66
16.4946,486.95,550.73
16.5146,486.96,551.18
16.5347,486.57,551.14
16.5546,487.25,551.32
16.5744,487.2,551.65
16.5946,487.16,552.72
16.6146,487.73,552.38
16.6345,487.58,552.5
16.6547,487.47,552.6
16.6744,487.37,552.08
16.6946,486.7,551.66
16.7146,487.96,552.13
16.7345,488.37,552.51
16.7546,490.29,552.2
16.7745,489.24,552.36
16.7945,490.39,552.49
16.8146,489.51,552.59
16.8345,489.81,553.07
16.8547,489.85,552.26
16.8744,490.48,552.01
16.8945,490.18,553.01
16.9145,489.55,553.6
16.9345,488.24,553.48
16.9545,486.99,552.79
16.9746,487.99,553.23
16.9945,487.79,553.18
17.0145,488.83,553.95
17.0345,489.07,552.96
17.0544,488.65,552.57
17.0746,488.92,552.25
17.0946,489.34,552.4
17.1146,490.27,552.52
17.1346,490.42,552.02
17.1544,489.93,552.61
17.1747,489.35,551.69
17.1946,490.08,551.15
17.2146,490.26,551.12
17.2345,490.01,550.7
17.2546,490.01,550.76
17.2748,490.61,550.61
17.2946,490.88,551.69
17.3145,490.71,551.35
17.3345,490.37,552.48
17.3546,490.49,552.98
17.3747,490.39,552.79
17.3946,490.12,552.63
17.4146,489.89,552.5
17.4345,489.31,552.8
17.4547,489.85,553.24
17.4745,489.28,553.79
17.4946,488.42,553.63
17.5146,489.54,553.11
17.5346,490.03,554.09
17.5544,489.83,554.27
17.5746,489.66,553.82
17.5943,490.53,554.45
17.6144,490.62,555.36
17.6344,490.3,556.09
17.6547,489.84,555.47
17.6748,489.87,555.38
17.6947,490.9,554.7
17.7147,489.92,554.36
17.7346,490.93,552.89
17.7545,490.95,552.91
17.7748,491.56,553.33
17.7946,490.45,554.26
17.8143,489.56,554.41
17.8345,487.85,554.33
17.8546,497.68,556.66
17.8745,517.74,563.53
17.8945,546.19,575.42
17.9145,574.75,586.34
17.9345,601.8,594.07
17.9546,624.44,598.86
17.9745,640.75,598.69
17.9945,650,596.15
18.0147,654.2,592.92
18.0347,652.76,587.74
18.0545,648.01,581.99
18.0744,641.41,576.99
18.0947,632.93,572.39
18.1146,621.14,568.71
18.1346,609.91,565.77
18.1546,597.13,565.42
18.1745,584.5,563.73
18.1943,574.2,561.79
18.2146,564.36,560.23
18.2346,556.09,560.38
18.2546,547.67,559.91
18.2746,539.74,559.13
18.2946,533.19,559.1
18.3145,527.75,558.08
18.3345,522.2,558.26
18.3546,517.16,556.61
18.3745,513.73,555.89
18.3946,510.58,555.31
18.4145,507.07,555.45
18.4344,505.45,554.56
18.4545,502.56,553.65
18.4746,500.85,553.92
18.4944,498.48,554.53
18.5144,497.38,555.23
18.5344,496.31,555.78
18.5545,495.65,555.63
18.5743,495.72,556.7
18.5945,494.97,557.16
18.6145,493.78,557.33
18.6344,493.62,557.26
18.6545,493.7,557.41
18.6746,493.56,556.53
18.6943,493.65,556.82
18.7145,493.52,556.86
18.7347,492.21,556.89
18.7544,489.57,556.11
18.7745,478.26,557.09
18.7945,457.01,554.67
18.8145,427.2,546.94
18.8346,395.76,535.75
18.8545,366.01,524.4
18.8745,338.61,514.52
18.8944,319.29,508.82
18.9144,311.83,505.05
18.9345,313.06,504.44
18.9545,319.65,505.75
18.9745,328.92,509.4
18.9945,341.34,512.72
19.0145,354.67,516.38
19.0346,367.74,520.9
19.0545,381.59,525.32
19.0747,393.87,528.46
19.0946,406.5,532.17
19.1145,416.8,535.73
19.1343,427.24,538.59
19.1547,436.39,541.07
19.1744,443.91,542.66
19.1945,450.33,544.32
19.2143,456.06,546.26
19.2343,461.25,548.21
19.2543,465,549.37
19.2744,468.6,550.29
19.2943,471.48,551.23
19.3143,474.58,553.59
19.3345,477.07,553.47
19.3545,479.45,554.18
19.3743,481.76,553.94
19.3943,483.61,554.55
19.4143,485.09,556.24
19.4344,486.07,556.59
19.4553,487.46,556.67
19.4753,488.57,557.54
19.4953,489.65,558.23
19.5155,489.72,558.19
19.5355,489.98,557.55
19.5553,490.58,556.64
19.5755,490.07,556.11
19.5954,491.05,556.49
19.6154,491.84,556.79
19.6354,491.47,556.23
19.6554,491.78,556.59
19.6753,492.22,556.27
19.6954,492.38,556.42
19.7154,492.3,556.53
19.7354,492.44,556.43
19.7553,492.75,556.14
19.7753,492.8,557.31
19.7954,492.24,558.25
19.8155,492.79,559
19.8368,493.24,558.4
19.8553,492.99,558.32
19.8754,492.59,558.06
19.8955,492.87,557.64
19.9154,494.3,557.52
19.9355,494.24,557.41
19.9554,494.39,558.33
19.9756,494.11,558.46
19.9955,493.09,559.37
20.0156,492.67,559.9
20.0366,493.74,560.32
20.0566,494.39,560.05
20.0765,495.11,559.24
20.0964,494.09,558.79
20.1166,495.07,559.24
20.1365,496.06,559.79
20.1563,497.05,560.43
20.1764,496.24,561.54
20.1964,496.79,560.84
20.2165,496.83,561.27
20.2364,496.87,562.21
20.2563,497.09,563.37
20.2764,496.27,562.9
20.2965,495.62,562.92
20.3164,495.5,561.13
20.3364,496,560.71
20.3563,495.2,559.97
20.3764,494.76,559.57
20.3965,494.01,557.86
20.4164,494,558.69
20.4364,494.8,558.35
20.4564,494.44,558.08
20.4764,493.75,557.86
20.4964,494,558.69
20.5165,493.6,558.35
20.5363,492.48,558.48
20.5563,492.59,558.39
20.5763,493.67,557.71
20.5966,494.33,557.57
20.6164,495.27,557.85
20.6364,494.81,557.68
20.6565,495.05,558.55
20.6774,495.64,558.24
20.6975,495.51,556.39
20.7174,495.41,556.31
20.7375,495.73,556.65
20.7574,495.58,557.12
20.7773,496.27,557.9
20.7973,496.81,558.12
20.8175,498.05,558.09
20.8375,497.84,557.47
20.8574,498.27,556.18
20.8773,497.42,555.94
20.8984,497.73,554.95
20.9184,496.19,554.76
20.9384,497.95,553.61
20.9584,497.76,553.69
20.9784,496.81,552.55
20.9982,495.65,552.84
21.0184,496.32,551.27
21.0384,496.05,550.22
21.0584,496.44,550.17
21.0784,496.35,549.14
21.0984,495.88,548.91
21.1183,495.51,548.93
21.1385,494.61,549.34
21.1583,493.88,549.27
21.1794,493.71,548.62
21.1995,494.77,548.7
21.2194,495.21,549.16
21.2392,495.77,549.33
21.2595,496.82,549.06
21.2795,496.45,550.05
21.2995,496.96,549.64
21.3196,497.37,550.31
21.3392,497.9,550.65
21.3594,497.92,550.32
21.3795,498.13,550.26
21.3995,498.11,549.2
21.4195,497.89,549.16
21.4393,497.91,549.33
21.4594,498.33,548.66
21.4793,498.46,547.53
21.4994,498.57,547.83
21.5193,499.06,547.66
21.5392,498.04,547.53
21.5592,498.24,547.42
21.5792,498.59,548.74
21.5992,498.27,548.39
21.6192,498.82,547.31
21.6392,499.65,547.45
21.6594,499.12,547.16
21.6793,498.3,546.13
21.6995,497.84,545.9
21.7194,496.87,545.72
21.7392,496.5,546.18
21.7593,496.2,545.14
21.7794,500.56,546.31
21.7994,516.45,552.85
21.8193,543.76,563.28
21.8393,574.41,576.82
21.8596,605.52,590.66
21.8793,631.42,599.53
21.8995,654.94,604.62
21.9193,668.35,603.5
21.9393,674.88,598.2
21.9594,673.7,589.96
21.9794,667.96,581.77
21.9995,659.37,573.81
22.0195,648.9,568.25
22.0393,636.52,562.4
22.0593,623.21,558.32
22.0795,610.17,555.06
22.0995,598.34,552.45
22.1194,586.07,551.76
22.1394,574.86,550.4
22.1595,565.08,548.92
22.1793,556.47,548.74
22.1994,547.77,548.19
22.2193,540.02,547.55
22.2393,534.62,546.04
22.2594,529.09,545.03
22.2795,524.47,545.43
22.2995,520.18,545.34
22.3194,517.54,545.47
22.3394,515.23,545.58
22.3595,512.59,545.86
22.3794,510.07,545.89
22.3995,508.46,545.31
22.4194,506.56,544.45
22.4393,505.45,545.36
22.4595,504.36,545.89
22.4794,503.69,545.71
22.4995,502.75,543.97
22.5194,502.4,543.57
22.5393,501.52,543.46
22.5594,500.62,543.17
22.5794,500.89,543.13
22.5994,500.51,543.11
22.6194,500.41,543.89
22.6393,500.33,544.71
22.6594,501.06,544.37
22.6795,490.85,544.09
22.6994,468.48,539.47
22.7194,437.18,529.78
22.7393,402.15,517.02
22.7603,368.52,503.62
22.7804,339.01,492.1
22.8005,317.81,484.28
22.8204,309.85,481.42
22.8404,311.28,482.14
22.8604,318.02,483.91
22.8805,328.22,487.13
22.9005,341.18,491.1
22.9202,354.94,496.08
22.9403,369.15,501.87
22.9605,382.72,506.69
22.9804,395.58,511.55
23.0004,407.06,517.24
23.0204,418.05,521.99
23.0403,428.44,525.4
23.0604,437.35,529.32
23.0805,446.28,531.85
23.1005,454.03,534.88
23.1202,460.22,536.91
23.1402,466.98,539.12
23.1604,471.78,539.5
23.1805,475.62,540
23.2004,478.5,541
23.2205,480.6,541.8
23.2402,482.48,542.04
23.2605,484.18,542.63
23.2804,485.35,543.51
23.3003,486.68,543
23.3214,487.94,544.4
23.3413,487.95,543.92
23.3613,488.16,544.34
23.3814,488.73,543.27
23.4014,489.58,543.82
23.4214,489.47,544.25
23.4413,490.17,545.4
23.4612,490.74,544.92
23.4815,491.39,544.54
23.5013,491.91,544.23
23.5214,492.33,544.78
23.5414,493.26,545.43
23.5613,493.41,545.94
23.5815,495.13,545.35
23.6015,496.3,545.68
23.6213,496.44,545.15
23.6426,496.75,545.32
23.6624,496.2,546.25
23.6822,495.96,546.8
23.7022,494.77,547.04
23.7224,494.22,547.03
23.7425,493.57,546.83
23.7622,492.66,546.86
23.7823,491.33,546.69
23.8034,491.66,546.55
23.8233,491.93,546.44
23.8432,493.34,545.75
23.8633,493.67,546.2
23.8843,492.94,545.36
23.9043,492.15,546.29
23.9244,493.32,547.03
23.9444,493.66,548.23
23.9643,494.33,548.58
23.9843,494.26,548.66
24.0043,493.81,548.13
24.0246,492.45,548.71
24.0443,492.56,546.96
24.0643,492.85,546.77
24.0844,492.08,546.62
24.1044,492.66,546.29
24.1243,492.73,547.23
24.1452,493.18,547.99
24.1654,493.95,548.99
24.1854,494.16,549.79
24.2052,494.13,550.03
24.2254,494.1,550.23
24.2453,493.48,550.38
24.2654,492.78,550.11
24.2854,492.23,550.08
24.3052,491.58,549.07
24.3254,490.47,548.25
24.3454,489.57,547.6
24.3653,489.66,547.48
24.3854,490.33,548.19
24.4052,490.26,548.55
24.4253,491.01,548.44
24.4455,491.81,548.35
24.4655,491.65,549.08
24.4854,491.92,549.06
24.5052,491.73,549.45
24.5254,491.79,549.36
24.5454,492.03,549.69
24.5654,492.22,550.35
24.5854,492.58,549.48
24.6052,492.46,549.78
24.6254,492.57,550.23
24.6454,491.46,550.58
24.6655,490.97,551.47
24.6855,490.77,551.37
24.7053,490.02,551.9
24.7255,490.81,551.52
24.7452,491.25,550.01
24.7654,492,550.81
24.7854,492.2,549.85
24.8053,492.56,550.68
24.8254,492.25,550.54
24.8453,492.6,550.03
24.8654,493.08,549.43
24.8854,492.66,549.54
24.9053,491.93,549.23
24.9254,492.14,549.39
24.9454,493.52,548.71
24.9653,493.21,549.37
24.9853,492.77,548.49
25.0052,492.42,548.6
25.0254,492.93,548.28
25.0454,493.15,548.82
25.0654,492.52,548.86
25.0854,492.61,548.49
25.1052,492.69,548.99
25.1254,491.95,548.59
25.1454,491.36,549.07
25.1654,491.69,549.26
25.1855,491.35,550.41
25.2052,491.08,549.73
25.2252,491.27,550.38
25.2452,491.01,548.5
25.2654,491.01,549.2
25.2853,493.21,549.36
25.3052,507.17,555.09
25.3254,530.33,566.07
25.3452,560.67,583.06
25.3653,591.33,599.45
25.3862,621.07,610.16
25.4062,643.85,613.33
25.4264,659.48,610.06
25.4464,667.19,602.85
25.4664,669.35,594.88
25.4864,665.08,585.7
25.5063,658.46,576.36
25.5263,648.17,567.89
25.5464,637.54,560.31
25.5663,624.83,553.65
25.5862,612.26,549.72
25.6061,598.81,547.58
25.6263,586.45,545.86
25.6463,574.96,544.69
25.6664,564.57,543.35
25.6864,555.25,544.48
25.7063,546.8,544.78
25.7266,539.04,545.03
25.7462,532.43,545.62
25.7665,526.15,546.1
25.7864,521.32,547.08
25.8062,517.65,547.86
25.8274,513.92,547.69
25.8474,510.54,548.75
25.8672,508.23,549.2
25.8874,505.98,550.36
25.9071,503.39,550.89
25.9274,501.51,551.11
25.9473,499.41,552.09
25.9674,497.93,551.07
25.9874,496.14,550.66
26.0074,495.31,550.53
26.0273,495.25,550.62
26.0472,494.2,551.3
26.0683,494.36,552.44
26.0883,494.09,552.95
26.1083,494.07,553.56
26.1284,493.46,554.65
26.1482,491.37,555.32
26.1682,488.09,556.65
26.1884,486.07,556.92
26.2082,483.06,558.74
26.2281,480.25,561.99
26.2481,473,562.99
26.2683,460.4,563.59
26.2894,443.12,563.28
26.3092,420.69,559.82
26.3294,395.96,552.86
26.3493,372.56,544.49
26.3693,351.85,533.59
26.3893,334.68,523.67
26.4093,321.15,515.34
26.4291,311.72,508.07
26.4493,311.97,503.46
26.4694,319.38,502.96
26.4892,329.5,503.97
26.5096,341.8,507.58
26.5291,355.44,511.26
26.5494,369.15,516.41
26.5693,382.72,520.53
26.5891,395.58,524.82
26.6094,406.46,528.46
26.6292,416.97,532.37
26.6494,425.78,535.69
26.6693,433.22,537.55
26.6893,441.98,540.64
26.7094,448.58,542.31
26.7293,453.87,543.85
26.7492,458.69,544.68
26.7694,463.75,546.75
26.7892,467.6,547.2
26.8093,471.48,547.56
26.8293,473.59,548.05
26.8494,476.87,548.44
26.8694,478.69,548.55
26.8891,480.36,549.24
26.9094,483.28,549.39
26.9291,486.23,551.91
26.9493,487.78,551.53
26.9693,488.83,551.02
26.9893,489.66,551.62
27.0094,490.53,551.9
27.0291,489.82,552.52
27.0494,489.06,554.41
27.0694,489.45,554.93
27.0891,489.76,554.34
27.1094,489.21,554.88
27.1293,489.76,555.3
27.1491,490.81,556.84
27.1693,491.85,557.27
27.1893,492.48,558.22
27.2094,493.58,558.37
27.2293,494.47,558.5
27.2494,494.97,559
27.2693,494.38,559.6
27.2893,494.3,560.08
27.3091,494.44,560.86
27.3293,493.55,561.69
27.3494,492.64,562.55
27.3693,492.51,562.84
27.3891,492.21,563.47
27.4094,492.57,562.38
27.4293,492.86,562.1
27.4492,493.08,561.88
27.4691,492.27,560.51
27.4891,492.41,561
27.5093,493.73,560
27.5293,493.98,560.4
27.5492,492.99,559.12
27.5693,491.59,560.1
27.5894,490.47,558.28
27.6093,490.38,557.02
27.6294,490.5,556.02
27.6495,490.6,555.41
27.6693,490.68,555.73
27.6891,489.95,556.19
27.7093,490.76,555.75
27.7293,492,555.4
27.7493,492.6,555.12
27.7694,493.48,555.9
27.7891,494.39,555.32
27.8094,493.51,554.25
27.8293,493.41,555
27.8493,492.93,555
27.8693,492.74,555
27.8891,493.19,555.2
27.9094,492.75,555.16
27.9293,492.4,554.73
27.9493,492.52,554.78
27.9693,492.82,555.43
27.9891,493.65,556.74
28.0095,493.72,556.99
28.0295,492.78,556.99
28.0493,493.02,557.2
28.0694,492.22,556.76
28.0893,492.37,556.41
28.1092,491.9,555.12
28.1294,493.12,556.5
28.1493,492.7,556
28.1693,493.16,557
28.1891,493.53,556.2
28.2094,494.62,556.36
28.2294,494.7,556.49
28.2901,494.56,556.79
28.2901,494.65,557.63
28.2901,494.72,558.71
28.3092,493.57,559.16
28.3292,492.66,558.73
28.349,492.93,557.79
28.3692,492.54,557.23
28.3892,491.83,556.18
28.4102,492.07,555.35
28.4301,492.45,554.28
28.4502,492.56,553.22
28.4713,494.05,552.38
28.4911,494.44,551.9
28.5114,495.35,551.32
28.5313,496.08,551.06
28.5512,495.67,551.85
28.571,494.73,551.28
28.5913,494.19,550.42
28.6113,493.15,550.74
28.6313,491.92,551.19
28.6513,492.14,551.15
28.6713,492.71,551.92
28.6912,492.97,551.14
28.7113,493.17,550.71
28.7314,493.54,551.17
28.7511,492.23,550.73
28.7714,491.58,551.19
28.7912,491.47,550.95
28.8111,491.97,550.76
28.8313,492.38,551.21
28.8514,492.9,551.77
28.8715,493.32,551.81
28.8912,493.06,551.25
28.9114,494.05,550.4
28.9314,494.04,550.12
28.9511,494.83,549.3
28.9713,494.66,548.44
28.991,494.73,545.95
29.0114,493.78,544.96
29.0314,493.03,545.17
29.0511,492.62,545.93
29.0713,492.1,545.15
29.0913,492.28,545.32
29.1114,491.62,547.65
29.1314,499.7,551.72
29.1514,518.56,560.78
29.1715,545.45,575.22
29.1913,575.56,590.18
29.2112,605.85,603.74
29.2313,632.28,612.99
29.2514,652.62,616.8
29.2715,666.9,615.84
29.2912,674.72,612.07
29.3111,675.57,605.86
29.3313,672.06,597.48
29.3513,666.65,588.99
29.3715,657.72,581.79
29.391,645.97,575.63
29.4112,633.78,569.11
29.4315,620.82,564.28
29.4514,607.86,561.03
29.4713,594.49,557.82
29.4911,582.59,557.26
29.5113,571.47,555.41
29.5312,561.78,552.92
29.5513,552.02,551.94
29.5713,543.42,551.35
29.5914,537.33,552.08
29.6113,531.87,552.47
29.6312,528.29,552.57
29.6513,524.24,551.46
29.6713,519.79,550.97
29.691,516.43,550.37
29.7112,514.54,550.3
29.7312,512.24,551.04
29.7513,510.19,550.83
29.7713,507.95,551.26
29.7911,505.96,551.61
29.8112,503.77,551.29
29.8325,503.21,550.03
29.8524,502.57,549.63
29.8721,501.46,549.3
29.8924,499.37,548.04
29.9123,499.29,548.43
29.9323,499.23,549.35
29.9523,498.79,548.08
29.972,498.03,548.26
29.9924,491.62,548.01
30.012,479.1,545.61
30.0323,458.68,540.29
30.0523,432.54,533.03
30.0721,403.03,522.62
30.0924,374.63,511.9
30.112,347.3,499.72
30.1324,325.64,488.57
30.1524,313.51,481.66
30.1721,311.41,478.73
30.1922,316.93,478.78
30.2122,326.14,482.43
30.233,338.11,485.54
30.2533,352.69,490.63
30.2732,366.15,495.71
30.2931,379.32,501.96
30.3134,392.26,507.57
30.3334,403.81,514.26
30.3533,416.65,519.01
30.3731,428.12,522.8
30.3933,437.09,525.24
30.4132,445.27,527.4
30.4333,452.42,529.32
30.4533,458.34,531.25
30.4731,464.47,532.4
30.4933,470.17,533.32
30.5132,474.34,533.66
30.5332,477.67,535.93
30.553,481.74,536.54
30.5731,483.39,538.43
30.5932,484.51,538.35
30.6132,485.61,538.48
30.6332,487.89,538.98
30.6532,488.11,538.39
30.673,489.69,538.91
30.6932,490.55,539.53
30.7132,491.24,539.62
30.7332,492.59,539.7
30.7532,492.87,539.16
30.7731,492.9,538.13
30.7931,493.72,538.7
30.8131,494.38,538.76
30.8331,494.9,538.81
30.8532,494.72,539.05
30.8732,494.78,539.64
30.8933,494.62,539.11
30.9132,495.1,538.89
30.933,494.88,538.91
30.9531,496.1,539.33
30.9731,495.88,539.86
30.9931,496.11,540.09
31.0133,495.48,541.27
31.0332,494.99,542.02
31.0531,495.59,543.41
31.0731,496.87,543.93
31.0931,497.5,544.15
31.1133,497.8,543.52
31.1332,497.04,543.21
31.1532,496.43,543.57
31.1731,495.94,543.26
31.1932,495.16,543.8
31.2132,494.72,544.44
31.2332,495.18,544.56
31.2532,495.74,544.24
31.273,495.99,544
31.2932,495.6,544.2
31.3131,496.28,543.16
31.3332,495.82,543.13
31.3532,497.06,543.5
31.373,497.25,543.4
31.3932,497.4,543.12
31.413,496.72,543.9
31.4333,496.77,543.52
31.4533,497.02,544.21
31.4731,497.02,543.97
31.4931,497.81,544.18
31.5133,498.05,544.54
31.5333,498.24,544.83
31.5532,497.19,545.07
31.573,498.35,545.25
31.5934,498.28,545.4
31.6133,499.03,545.92
31.6332,499.22,546.54
31.6531,499.18,546.63
31.6731,497.54,546.3
31.6932,498.23,546.44
31.7132,497.59,546.15
31.7333,496.27,545.92
31.7532,496.02,546.74
31.773,495.81,546.59
31.7933,495.45,546.27
31.8133,495.96,545.42
31.8333,495.77,544.53
31.8533,495.61,544.03
31.8731,495.49,542.62
31.8933,494.99,543.3
31.9131,495.19,543.04
31.9332,494.96,542.23
31.9532,494.56,542.38
31.9732,495.25,542.31
31.9933,495.8,542.85
32.0132,495.04,542.68
32.0333,494.23,542.14
32.0532,494.39,541.91
32.073,495.31,541.93
32.0933,494.45,542.14
32.1132,494.16,542.12
32.1332,494.73,542.29
32.1532,494.18,543.03
32.173,494.14,543.43
32.1932,494.92,543.94
32.2132,494.73,543.35
32.2333,494.99,543.88
32.2532,495.59,543.51
32.273,495.87,544
32.2932,495.5,544.6
32.3132,495.2,545.48
32.3333,494.96,545.39
32.3532,493.97,544.91
32.373,494.57,545.73
32.3932,495.06,545.98
32.4133,495.05,546.39
32.4332,495.64,547.31
32.4532,496.11,547.25
32.4729,496.29,547
32.4931,496.03,546
32.5132,495.82,545
32.5332,496.66,545.6
32.5532,497.53,547.08
32.573,498.62,547.06
32.5931,498.9,546.65
32.6132,499.12,546.32
32.6332,498.89,545.46
32.6532,498.92,546.17
32.6731,497.93,546.93
32.6933,505.95,552.15
32.7132,525.36,563.52
32.7332,552.89,578.81
32.7532,582.31,593.85
32.773,610.05,605.88
32.7932,635.44,612.5
32.813,654.35,614.4
32.8331,665.68,611.72
32.8531,670.54,605.98
32.8731,668.64,597.58
32.8931,663.31,587.47
32.9131,655.05,577.57
32.9332,644.24,568.86
32.9532,631.59,562.49
32.9733,618.67,555.99
32.9931,605.74,551.79
33.0131,594.39,548.43
33.0332,582.51,546.35
33.0532,570.81,544.68
33.0732,560.65,542.14
33.0932,551.52,541.51
33.113,543.21,541.01
33.1333,535.97,542.01
33.1531,530.38,542.01
33.1732,524.9,542.01
33.1931,520.32,541.4
33.2131,516.46,542.32
33.2332,513.57,542.26
33.2532,509.85,543.61
33.273,506.88,543.89
33.2934,505.91,545.11
33.3132,505.32,545.69
33.3332,503.86,546.15
33.3532,501.09,546.52
33.373,500.87,546.62
33.3933,501.1,546.49
33.4132,501.08,546.39
33.4333,499.46,545.52
33.4532,498.97,546.41
33.473,498.18,546.13
33.4932,497.54,546.1
33.5132,497.43,545.88
33.5332,498.95,545.31
33.5533,499.16,544.65
33.5731,497.73,544.72
33.5933,497.18,544.77
33.6133,496.74,545.02
33.6332,496.8,545.81
33.6531,497.24,547.05
33.673,497.19,547.64
33.6932,496.35,547.91
33.7132,494.48,545.93
33.7333,492.58,543.14
33.7532,492.47,541.12
33.773,492.77,539.49
33.7932,492.82,538.79
33.8131,493.26,538.04
33.8332,493.4,537.83
33.8533,493.52,538.06
33.873,494.22,537.45
33.8942,487.98,536.16
33.9142,473.78,534.33
33.9342,453.62,529.26
33.9543,429.1,524.21
33.974,404.28,517.97
33.994,380.42,511.57
34.0142,358.94,506.26
34.0342,340.95,500.81
34.0543,328.16,497.25
34.0741,321.33,496.6
34.0941,323.86,497.28
34.1141,330.09,499.22
34.1341,340.07,502.98
34.1543,352.26,505.78
34.1742,365.61,509.63
34.1942,378.29,514.7
34.2141,390.23,518.76
34.2341,402.78,522.41
34.2541,412.63,525.53
34.2743,422.3,528.22
34.2941,432.24,530.98
34.3142,440.79,534.58
34.3343,447.63,537.07
34.3542,455.11,539.45
34.3741,460.49,541.16
34.3943,465.39,542.33
34.4141,469.31,543.06
34.4341,472.85,544.45
34.4541,476.08,546.16
34.474,478.26,546.73
34.4952,479.01,547.18
34.5153,480.21,548.95
34.5352,482.57,548.96
34.5549,484.25,548.97
34.5753,486,549.17
34.5953,487.8,549.14
34.6149,489.04,549.71
34.6352,490.03,549.77
34.655,490.83,548.81
34.6752,491.66,548.65
34.695,491.93,548.32
34.7151,491.94,548.46
34.7352,491.75,548.97
34.7549,491.4,548.97
34.7752,490.72,549.38
34.7951,489.98,550.1
34.8152,489.38,549.88
34.8352,488.51,549.91
34.8549,488.6,550.72
34.8751,488.88,550.38
34.8952,493.71,551.7
34.915,496.77,552.76
34.9352,500.01,552.81
34.9549,501.41,552.25
34.9751,502.53,551.6
34.9952,502.62,551.68
35.0151,503.5,551.54
35.0352,503.2,551.23
35.055,501.56,551.39
35.0749,499.85,551.11
35.0951,498.08,550.69
35.1161,497.26,551.15
35.1361,496.61,551.12
35.156,495.29,550.1
35.1771,494.83,550.08
35.1971,494.46,550.66
35.217,493.97,550.33
35.2371,493.58,551.06
35.2572,491.86,550.85
35.277,492.29,551.48
35.2975,491.63,551.18
35.3171,491.51,551.95
35.3371,491.2,553.16
35.3572,490.96,553.13
35.3772,489.97,553.1
35.3971,489.98,552.68
35.4171,489.18,551.54
35.4372,489.95,551.44
35.4569,489.76,551.75
35.4771,489,551.6
35.4971,489.2,551.48
35.5171,488.56,551.58
35.5371,488.65,551.47
35.5569,488.12,552.17
35.5771,488.9,552.74
35.5969,488.52,553.59
35.6181,488.21,553.67
35.638,488.77,552.94
35.6581,488.22,552.95
35.6782,489.37,553.36
35.6981,489.3,553.49
35.7181,488.64,553.19
35.738,487.31,553.35
35.7581,488.05,552.68
35.7781,487.04,552.15
35.798,487.63,551.92
35.8181,487.91,552.33
35.838,488.52,552.27
35.8581,488.62,552.01
35.8781,488.7,552.61
35.8981,488.36,552.29
35.9181,487.69,552.03
35.938,488.35,552.22
35.9582,487.68,551.18
35.9781,488.34,550.94
35.9981,488.07,551.35
36.0181,487.66,551.48
36.0379,487.53,551.99
36.0581,487.82,551.99
36.0782,487.46,551.99
36.0981,488.17,551.79
36.1181,487.93,551.63
36.1381,488.15,552.71
36.1581,487.52,553.17
36.1781,487.41,553.33
36.1981,487.13,553.07
36.2182,487.5,553.25
36.238,487.4,552.6
36.2581,487.32,552.28
36.2782,487.26,552.03
36.2981,486.81,552.42
36.3182,488.05,552.74
36.338,487.44,553.59
36.3579,487.75,553.87
36.3781,486.8,553.7
36.3981,486.04,552.76
36.4181,486.83,552.41
36.4382,498.47,557.32
36.4581,523.17,567.26
36.4781,552.54,580.61
36.4982,584.83,591.29
36.5181,612.86,597.63
36.5382,635.29,599.9
36.5581,648.63,599.32
36.5781,656.31,595.66
36.5981,657.05,591.93
36.618,654.64,585.94
36.6382,647.51,581.75
36.6581,638.41,577
36.6779,627.93,573.2
36.6981,616.14,570.76
36.7181,603.91,568.41
36.738,591.53,566.13
36.758,579.82,564.5
36.7781,569.06,562.2
36.7981,559.65,560.36
36.8181,550.92,559.29
36.838,542.73,558.23
36.858,535.19,557.38
36.8781,528.55,556.91
36.8982,523.04,556.13
36.9181,517.43,556.1
36.9381,513.55,556.28
36.9581,509.64,556.42
36.9781,507.11,555.94
36.9981,504.49,556.15
37.0181,503.99,555.92
37.038,501.39,556.34
37.0579,500.11,555.87
37.0781,498.69,555.5
37.0981,497.95,555.8
37.1182,496.76,556.04
37.1381,495.61,557.03
37.1581,494.89,557.22
37.1781,493.91,557.18
37.1981,493.13,556.74
37.2182,491.5,557.99
37.238,492.2,558
37.2579,485.36,561.2
37.2781,475.29,566.76
37.2981,461.43,575.21
37.3179,446.35,584.56
37.3381,430.28,590.25
37.358,414.02,590.2
37.378,394.02,581.16
37.3991,372.21,565.33
37.4192,350.37,544.06
37.439,331.9,522.65
37.4601,321.32,506.52
37.4802,320.05,496.02
37.5001,324.84,489.41
37.5201,333.07,486.93
37.5401,344.46,486.74
37.5601,356.57,490
37.5802,369.25,493.4
37.6001,381.4,498.52
37.6201,393.72,502.81
37.6401,405.78,507.45
37.66,416.02,512.16
37.6801,425.22,516.53
37.7001,434.37,521.02
37.7199,442.9,524.62
37.74,450.72,528.29
37.7599,456.98,532.24
37.78,461.18,536.39
37.8001,465.94,539.71
37.82,470.16,541.77
37.8401,472.52,543.21
37.8601,474.62,545.37
37.88,477.5,546.3
37.8999,479.4,547.84
37.9202,481.52,548.47
37.9402,483.41,549.58
37.9601,485.53,550.66
37.98,486.42,552.13
38,487.14,553.5
38.0201,487.51,554.4
38.0401,488.41,554.52
38.0601,488.93,555.02
38.08,489.74,555.41
38.1002,489.59,554.93
38.12,489.47,554.95
38.1399,489.98,555.76
38.1602,489.38,555.6
38.1801,489.71,555.88
38.2001,490.37,557.71
38.22,490.49,558.37
38.2401,491.99,558.29
38.26,492.4,558.03
38.28,492.52,558.63
38.3001,493.61,558.3
38.32,493.69,558.24
38.3399,492.95,557.39
38.36,492.36,556.71
38.3799,494.09,556.97
38.4001,494.07,557.78
38.42,493.26,557.22
38.44,492.61,557.58
38.4601,492.48,557.86
38.4801,493.99,558.89
38.5001,494.19,558.31
38.5203,493.55,557.45
38.54,492.84,558.36
38.56,492.27,558.09
38.58,491.62,558.07
38.6002,491.89,558.26
38.6201,492.52,557.8
38.6399,493.41,557.64
38.6602,493.33,558.72
38.6801,493.46,560.77
38.7,492.57,561.82
38.72,491.86,561.25
38.7399,492.09,560
38.76,491.07,559.6
38.7799,491.25,558.68
38.8,490.6,558.35
38.82,491.28,558.28
38.8402,490.43,558.42
38.86,490.94,557.54
38.8801,491.55,556.83
38.9001,492.64,557.26
38.92,492.91,557.41
38.9399,493.13,557.53
38.96,493.5,556.02
38.9802,493,556.02
38.9999,493.2,555.41
39.0199,493.56,555.33
39.0399,493.05,555.27
39.06,494.04,555.61
39.08,493.43,555.29
39.1001,493.35,555.63
39.12,493.48,554.71
39.14,494.18,554.56
39.1599,494.54,555.25
39.18,494.44,555.6
39.1999,494.35,555.88
39.2199,494.08,555.5
39.2399,492.46,556.2
39.2601,492.97,556.76
39.28,493.38,556.61
39.2999,493.5,556.69
39.3201,493.4,556.75
39.3398,494.32,557
39.3601,495.26,556.8
39.38,494.81,556.24
39.4,494.64,555.99
39.4202,495.12,555.79
39.4401,494.89,555.64
39.4611,494.91,555.31
39.4812,494.13,555.65
39.501,493.5,555.32
39.521,493.6,554.25
39.541,493.88,553.8
39.5609,493.51,553.04
39.581,493.61,553.23
39.6009,493.88,554.19
39.6212,495.51,554.35
39.6411,496.01,555.08
39.6611,495.2,554.26
39.681,494.16,554.81
39.7011,494.13,554.65
39.721,493.5,553.92
39.741,493.8,553.34
39.7611,493.04,552.47
39.781,493.83,553.57
39.8009,493.87,554.26
39.8209,493.69,554.61
39.8411,494.56,554.69
39.8621,493.84,553.95
39.882,493.88,553.36
39.904,493.9,552.89
39.9219,494.72,551.91
39.942,494.38,551.33
39.9621,497.1,551.66
39.982,510.28,556.93
40.0021,532.42,566.74
40.0218,561.54,579.6
40.0418,593.63,593.68
40.0621,622.31,601.54
40.0818,646.44,605.83
40.102,662.96,605.87
40.1218,671.96,602.69
40.1421,673.17,597.95
40.1621,670.14,592.36
40.1819,662.91,586.29
40.203,652.53,579.03
40.2228,640.82,572.63
40.243,629.06,567.7
40.2629,617.45,562.76
40.2828,604.96,558.01
40.3031,593.77,554.81
40.3229,581.81,551.85
40.343,571.25,550.88
40.363,562.4,550.5
40.3832,554.12,549.8
40.403,546.5,549.84
40.4231,539,549.67
40.443,533.8,549.14
40.463,529.84,549.11
40.483,525.27,548.69
40.5028,521.62,549.15
40.5228,517.69,548.72
40.5431,515.35,548.98
40.5641,512.68,549.18
40.584,511.35,548.74
40.6041,510.08,548.4
40.624,508.06,547.72
40.6442,506.05,546.57
40.6642,504.04,546.86
40.684,504.43,547.29
40.7041,503.15,548.23
40.7239,502.92,547.98
40.7439,502.73,548.19
40.764,500.39,547.55
40.7841,500.11,547.24
40.8041,499.89,546.39
40.8239,498.71,546.71
40.8439,498.57,547.17
40.864,498.25,548.14
40.884,496,551.11
40.9041,491.4,558.09
40.9239,480.72,568.27
40.944,462.98,574.22
40.9641,437.98,571.97
40.984,410.39,558.18
41.004,383.11,538.94
41.024,357.49,519.75
41.044,334.79,502.8
41.0638,320.23,489.84
41.084,316.79,482.07
41.1038,319.83,477.26
41.1239,328.86,474.21
41.1439,339.49,474.57
41.164,352.99,476.05
41.1841,365.99,479.64
41.2042,378.79,483.31
41.2241,392.44,488.85
41.244,404.55,493.28
41.264,416.24,498.42
41.284,426.59,503.34
41.304,435.87,508.67
41.324,444.3,513.34
41.3438,451.84,516.87
41.364,457.67,519.1
41.384,463.14,521.88
41.4041,467.71,524.3
41.4241,471.37,526.24
41.4439,473.49,528.79
41.4639,476.2,531.23
41.4841,478.96,533.39
41.504,481.36,534.51
41.5239,483.69,535.41
41.5439,484.95,535.73
41.5641,485.96,536.98
41.584,486.97,537.38
41.604,487.58,538.11
41.624,488.86,538.89
41.644,489.89,540.51
41.664,491.31,541.41
41.6839,491.85,543.13
41.704,491.88,544.3
41.7238,492.5,545.24
41.744,492.6,545.59
41.7639,492.68,545.67
41.784,492.95,545.74
41.8038,493.76,544.19
41.8238,494.81,543.15
41.8439,494.84,543.12
41.864,496.08,542.9
41.884,496.46,543.72
41.904,496.17,543.37
41.9238,494.93,543.7
41.9441,494.75,543.56
41.964,494.6,544.25
41.984,494.48,543.6
42.004,493.78,543.48
42.0239,493.63,543.98
42.044,492.3,544.39
42.064,492.64,544.51
42.084,492.91,543.61
42.104,494.73,544.09
42.1242,495.18,543.87
42.144,495.95,545.09
42.1641,495.76,545.28
42.1838,495.61,544.82
42.2041,495.29,543.66
42.2239,496.03,542.73
42.244,495.82,542.58
42.264,495.46,543.26
42.284,495.37,543.61
42.304,495.89,543.89
42.3239,495.51,545.31
42.344,495.41,545.85
42.3639,494.73,547.68
42.3839,494.38,546.74
42.4037,495.11,545.99
42.424,494.69,546.2
42.444,494.75,544.76
42.4639,495.6,545.01
42.4839,494.88,544.4
42.5039,494.9,543.32
42.5239,495.32,541.86
42.544,496.06,542.89
42.5639,496.45,542.11
42.584,495.96,542.69
42.604,496.57,542.75
42.6239,496.65,542.8
42.6439,496.32,542.64
42.664,495.86,543.51
42.684,495.49,543.41
42.704,495.39,543.73
42.7239,494.91,543.58
42.7439,494.73,543.27
42.764,496.18,544.01
42.784,495.95,543.81
42.8041,495.56,544.05
42.8238,496.05,543.64
42.844,495.84,543.91
42.8639,495.47,543.73
42.884,495.58,544.18
42.9041,495.06,544.95
42.9239,495.65,545.76
42.944,494.52,546.21
42.964,494.21,546.96
42.9841,495.17,546.17
43.004,494.74,546.34
43.024,494.59,545.67
43.044,494.67,545.74
43.064,495.54,545.59
43.084,495.43,545.47
43.1038,495.94,544.98
43.1239,496.76,543.98
43.144,497,543.59
43.164,496.4,543.27
43.1841,496.92,543.01
43.2038,497.94,543.61
43.2237,498.15,544.29
43.244,496.72,544.83
43.264,497.18,545.47
43.2839,496.54,545.37
43.304,496.63,544.9
43.324,497.11,544.52
43.344,496.49,544.81
43.364,496.19,544.85
43.3839,496.35,544.28
43.404,496.08,543.23
43.424,497.06,543.18
43.444,497.25,542.54
43.464,497.6,542.44
43.4841,498.48,542.55
43.5038,498.98,542.64
43.5238,498.59,543.31
43.5439,497.87,543.65
43.5641,496.5,544.12
43.584,495.6,543.9
43.604,494.48,544.32
43.6241,494.38,544.65
43.6439,495.51,545.12
43.664,495.8,545.3
43.684,495.44,545.44
43.704,494.95,545.75
43.7239,495.36,544.8
43.744,496.49,543.44
43.764,500.59,544.15
43.7841,512.07,549.52
43.8041,533.06,560.82
43.8239,559.05,574.05
43.8438,586.24,586.04
43.8637,610.39,593.23
43.8838,630.11,596.99
43.9037,642.89,598.59
43.9238,651.71,597.67
43.944,655.37,592.74
43.964,654.3,587.99
43.9841,649.04,581.19
44.004,641.23,575.55
44.0241,632.58,569.44
44.0441,622.67,564.15
44.0637,612.73,558.92
44.0839,601.99,556.54
44.1038,591.79,554.83
44.1237,580.63,553.06
44.1439,572.11,552.05
44.164,562.88,550.24
44.1838,554.91,549.19
44.2039,547.33,549.15
44.2239,539.66,548.32
44.244,533.33,547.86
44.264,528.06,547.89
44.284,523.65,547.51
44.304,519.72,547.61
44.3238,516.38,547.29
44.3439,512.9,547.83
44.364,510.52,547.86
44.384,508.02,546.89
44.404,506.41,546.71
44.424,504.53,545.97
44.4439,504.22,546.18
44.464,503.98,546.34
44.484,503.18,546.47
44.504,502.15,545.78
44.5239,501.12,545.02
44.544,501.09,545.02
44.564,500.68,546.41
44.5839,500.34,546.53
44.604,499.07,546.23
44.6238,499.46,546.38
44.644,498.97,546.3
44.6638,498.77,546.64
44.6837,498.02,546.31
44.7038,497.21,545.65
44.7238,497.57,545.72
44.7438,497.46,545.98
44.7638,496.77,545.98
44.7838,496.21,545.99
44.8038,493.77,546.59
44.8238,488.82,545.67
44.8439,477.85,544.34
44.8639,461.68,541.07
44.8838,439.95,536.86
44.9039,416.16,531.48
44.924,391.93,525.39
44.9439,369.34,518.31
44.964,350.47,511.05
44.984,335.98,503.84
45.004,325.58,499.87
45.0239,323.67,497.9
45.044,328.73,498.92
45.064,337.59,500.93
45.0839,349.47,504.15
45.104,362.98,508.32
45.1238,376.18,513.05
45.144,389.34,517.84
45.1639,402.28,521.27
45.1838,413.42,524.42
45.204,424.54,527.34
45.2239,433.83,529.47
45.2439,441.46,530.97
45.2639,449.37,532.18
45.284,456.5,533.74
45.3039,461.6,535.2
45.3239,465.68,536.36
45.3441,469.54,538.08
45.364,472.83,538.27
45.3839,475.67,538.81
45.404,478.53,540.45
45.4239,482.23,541.36
45.4439,483.98,542.49
45.4639,485.99,543.19
45.4837,487.39,542.75
45.5039,488.51,544.2
45.5238,489.81,544.56
45.5439,490.45,544.85
45.5639,490.16,545.08
45.584,489.33,545.46
45.6037,490.06,546.17
45.6239,490.25,546.14
45.644,491.8,545.31
45.6639,492.84,545.65
45.6838,493.27,546.12
45.704,493.62,545.09
45.7237,492.89,545.08
45.744,492.91,545.26
45.764,493.73,545.41
45.7837,493.59,545.53
45.8041,493.27,546.02
45.8241,493.01,546.62
45.844,492.41,546.49
45.8639,492.33,546.19
45.8837,493.86,545.56
45.9038,494.49,545.44
45.9238,493.79,544.76
45.9439,493.63,544.2
45.9638,494.71,544.36
45.9839,494.57,544.29
46.004,495.05,543.63
46.024,494.84,543.51
46.0439,494.67,543.4
46.0639,494.74,543.12
46.0838,494.79,542.9
46.1038,494.63,542.52
46.1239,494.71,542.22
46.1438,494.37,542.37
46.1639,493.49,542.5
46.1839,493.79,542.2
46.2039,493.43,541.36
46.2242,494.35,541.09
46.2439,494.48,541.07
46.2639,494.98,540.66
46.2837,495.39,541.12
46.304,495.91,541.9
46.3238,495.33,542.12
46.3441,494.86,543.1
46.3639,494.49,544.28
46.3838,494.19,544.02
46.4037,493.75,544.42
46.4238,492.8,544.53
46.4439,493.04,543.83
46.4638,492.63,544.06
46.4838,492.11,545.25
46.5038,492.49,545.2
46.524,493.39,545.96
46.5438,494.31,549.97
46.5638,495.85,557.37
46.5839,500.88,568.1
46.6039,504.5,580.88
46.6237,510,596.7
46.6437,516.2,611.36
46.6639,521.16,626.09
46.6841,523.93,637.47
46.7039,526.54,647.78
46.7239,528.03,657.02
46.744,529.23,661.22
46.7637,530.18,663.77
46.7838,529.35,668.02
46.8038,529.48,667.62
46.8238,530.18,665.69
46.8439,530.15,661.75
46.8637,529.52,657.6
46.8838,528.61,651.08
46.904,526.89,643.87
46.9239,525.91,637.89
46.9438,523.53,632.71
46.9638,522.62,626.97
46.9838,521.1,620.78
47.0047,521.08,615.62
47.0249,520.46,609.7
47.045,520.97,605.16
47.0647,521.98,599.53
47.0847,523.58,595.42
47.105,526.46,592.74
47.1247,525.77,589.59
47.1449,524.22,586.47
47.1648,519.97,583.98
47.1848,515.38,583.58
47.2048,509.7,582.47
47.2248,503.96,580.37
