Program Time [s],data 0,data 1
10.5633,497.89,545.34
10.5833,497.71,546.47
10.6033,496.37,546.38
10.6232,496.5,545.7
10.6432,496.6,545.56
10.6644,496.88,544.85
10.6841,496.1,545.08
10.7043,494.88,544.26
10.7242,493.11,543.41
10.7443,492.48,542.33
10.7643,492.39,542.06
10.7842,491.91,541.45
10.8042,491.53,540.56
10.8242,490.22,540.05
10.8443,490.38,540.24
10.8642,490.9,540.59
10.8842,491.12,540.87
10.9042,492.3,541.9
10.9243,492.64,543.72
10.9442,493.71,544.77
10.9641,493.17,545.82
10.9843,493.33,547.46
11.0041,491.47,547.76
11.0243,490.97,547.81
11.0444,490.78,547.65
11.0641,490.62,547.92
11.0842,491.5,547.54
11.1043,491.2,549.03
11.1243,490.16,549.22
11.1443,490.33,549.18
11.1642,491.06,548.94
11.1842,491.45,548.55
11.2043,491.96,548.84
11.2242,491.77,548.47
11.2441,492.21,549.78
11.2643,492.57,549.22
11.285,491.86,549.38
11.3051,490.69,549.5
11.3251,489.95,550.4
11.3451,492.36,553.72
11.3653,494.09,564.38
11.3852,498.87,588.7
11.4053,501.1,625.36
11.4253,504.28,658.49
11.4453,507.22,677.59
11.4655,506.78,677.67
11.4863,503.42,661.14
11.5063,499.94,636.11
11.5263,495.75,608.69
11.5461,494.8,580.15
11.5661,490.64,557.12
11.5862,489.91,538.3
11.6063,488.33,523.84
11.6262,486.46,514.07
11.646,485.77,507.06
11.6664,486.02,503.44
11.6862,488.21,501.76
11.7064,487.77,500.4
11.7261,486.82,502.32
11.7463,487.45,506.86
11.7664,488.36,518.69
11.7862,492.69,539.55
11.806,496.15,568.04
11.8263,505.92,608.63
11.8462,512.54,649.11
11.8663,517.63,683.48
11.8862,517.3,707.99
11.9061,515.24,721.79
11.9263,513.99,725.03
11.9462,512.2,719.83
11.9664,504.76,700.46
11.9862,499.61,668.77
12.0063,495.48,629.81
12.0262,490.99,591.45
12.0461,486.59,555.96
12.0662,481.67,527.77
12.0863,479.14,504.02
12.1063,476.91,486.01
12.1262,475.33,472.81
12.1463,474.46,463.65
12.1664,473.17,458.72
12.1862,472.54,455.57
12.2063,474.23,455.06
12.2263,474.78,457.85
12.2462,476.83,460.08
12.2664,479.06,465.06
12.2862,481.45,469.45
12.306,483.16,475.56
12.3264,483.73,482.05
12.3461,484.38,488.24
12.3662,484.51,494.59
12.3862,485,500.27
12.4062,485.8,505.62
12.4262,487.64,510.49
12.4463,488.11,515.4
12.4662,488.29,520.12
12.4861,489.43,525.49
12.5064,489.35,530.39
12.5263,489.88,533.92
12.5463,489.7,538.73
12.5664,489.16,541.99
12.5864,489.93,544.19
12.6062,492.34,546.35
12.6264,492.67,548.08
12.6463,492.74,549.26
12.6663,492.79,549.41
12.6863,493.23,550.33
12.706,492.99,550.06
12.7262,491.79,550.85
12.7462,491.63,551.48
12.7663,491.71,552.18
12.7862,491.56,552.55
12.8063,492.25,552.64
12.8261,492.8,553.11
12.8461,492.84,553.29
12.8662,493.87,554.03
12.8862,493.3,553.82
12.9063,494.24,554.66
12.9262,494.19,555.13
12.9463,493.95,555.9
12.9661,493.36,556.52
12.9861,493.29,555.82
13.0062,492.03,556.25
13.0262,492.43,556.8
13.0462,492.74,557.24
13.0662,492.19,557.39
13.0862,491.55,558.32
13.1062,491.24,559.45
13.1263,490.79,559.16
13.1463,491.04,558.53
13.1661,491.23,559.22
13.1862,491.18,559.78
13.2062,490.35,560.62
13.2262,490.88,560.7
13.2461,491.7,559.56
13.266,492.76,559.25
13.2862,494.21,558.2
13.3062,494.97,557.56
13.3262,494.77,556.85
13.3462,495.62,557.28
13.3661,496.1,556.82
13.3863,495.28,555.66
13.4062,495.02,555.13
13.4262,494.82,554.3
13.4461,494.85,554.24
13.4661,494.88,554.19
13.486,494.71,554.75
13.506,494.96,554.8
13.5262,494.77,554.84
13.5461,494.42,555.27
13.5662,493.73,554.22
13.5863,493.99,554.38
13.6062,494.79,553.9
13.626,495.23,553.12
13.6464,495.59,552.5
13.6662,495.07,552.6
13.6861,496.05,552.68
13.707,496.44,552.94
13.7271,496.76,552.55
13.747,496.2,552.84
13.767,495.76,553.07
13.7873,496.01,554.66
13.8072,494.61,556.13
13.8272,503.89,559.7
13.8473,523.71,567.16
13.8673,552.37,576.53
13.8873,583.09,584.22
13.9071,611.08,586.78
13.9273,631.66,585.82
13.948,642.53,580.86
13.9681,646.62,572.89
13.9883,644.3,565.71
14.008,639.64,557.17
14.0283,631.51,551.13
14.048,622.21,546.91
14.0683,612.17,542.13
14.0882,601.93,539.1
14.1081,592.35,538.08
14.1282,583.08,538.26
14.1481,573.86,538.21
14.1681,565.09,538.77
14.1882,556.67,538.82
14.2082,549.74,539.45
14.2282,543.19,540.16
14.248,537.15,540.53
14.2682,532.52,541.62
14.2882,528.02,543.1
14.3082,523.41,544.08
14.3281,520.13,546.26
14.348,516.5,547.61
14.3682,511.8,547.49
14.3893,510.44,547.99
14.409,509.35,548.39
14.4292,507.88,548.91
14.4492,506.71,548.93
14.4692,504.97,551.35
14.4892,504.37,551.08
14.5093,503.1,552.46
14.5292,502.68,552.17
14.5493,501.74,552.33
14.569,500.79,552.67
14.589,500.24,552.33
14.6092,500.59,551.07
14.6291,499.27,550.85
14.6491,499.02,550.88
14.6692,498.61,550.11
14.6891,499.09,550.29
14.7093,498.67,550.63
14.7293,497.94,551.1
14.7493,497.35,550.48
14.7692,496.68,550.19
14.7892,496.74,549.15
14.8091,495.6,548.92
14.8292,495.48,548.54
14.8491,495.78,552.23
14.8702,494.22,565.18
14.8902,487.58,584.95
14.9102,475.26,610.56
14.9302,456.61,634.45
14.95,435.09,647.16
14.9703,408.67,643.13
14.9903,379.14,624.5
15.0102,350.31,593.4
15.0301,326.45,559.92
15.0502,313.56,529.14
15.0702,310.25,507.71
15.0901,316,492.97
15.1102,326.2,483.57
15.1302,338.96,477.46
15.1503,350.97,476.17
15.1712,364.77,476.33
15.1912,379.22,479.07
15.2112,393.17,481.85
15.2313,404.94,485.88
15.2512,416.15,490.31
15.2711,426.32,495.45
15.2912,435.06,500.96
15.3111,443.05,505.36
15.3312,450.04,508.89
15.3511,455.63,512.11
15.3709,460.7,515.49
15.3912,466.16,518.99
15.4112,471.13,522.19
15.431,474.5,525.16
15.4512,477.6,526.92
15.4711,480.68,529.74
15.4912,483.15,532.39
15.5112,486.32,534.11
15.5311,488.85,535.69
15.5511,489.68,537.55
15.5713,490.55,537.84
15.5911,491.84,538.47
15.6111,492.87,538.98
15.6311,493.9,539.58
15.6512,494.12,539.07
15.6713,495.09,539.65
15.691,495.67,539.52
15.7111,496.14,539.02
15.731,496.31,538.01
15.751,496.45,537.41
15.7712,497.56,537.33
15.7911,498.25,537.86
15.8111,499.2,537.49
15.8311,499.16,536.59
15.851,499.33,536.07
15.8711,499.26,536.46
15.892,499.21,536.17
15.912,498.37,536.33
15.932,498.29,536.87
15.9521,496.84,537.69
15.9722,496.47,539.15
15.992,496.17,539.12
16.0122,496.54,539.5
16.0321,495.83,539.4
16.0521,494.87,539.92
16.072,493.89,540.14
16.092,494.11,540.11
16.1122,494.89,540.29
16.132,494.51,540.03
16.1523,494.81,540.22
16.1722,495.25,540.38
16.1921,497.2,540.1
16.212,496.76,539.48
16.232,496.21,538.59
16.2523,495.77,537.87
16.2721,496.21,538.49
16.2921,497.17,539
16.3121,497.14,539.2
16.332,497.51,539.16
16.3521,497.41,539.53
16.3721,497.73,539.62
16.3921,496.58,539.5
16.4119,497.46,540
16.4321,496.97,540.2
16.4531,496.58,540.36
16.4731,496.06,540.69
16.4932,496.25,540.95
16.5131,496.8,540.96
16.5331,496.44,540.57
16.553,496.55,541.45
16.5731,496.84,540.36
16.5931,496.27,539.89
16.6141,495.02,540.51
16.634,495.41,540.81
16.654,496.13,540.65
16.6739,497.11,540.32
16.6942,496.48,540.65
16.714,495.99,539.92
16.7342,495.79,540.54
16.7541,496.03,540.23
16.7741,495.43,539.98
16.794,496.14,540.59
16.814,495.51,540.27
16.8342,496.01,539.62
16.8542,496.61,539.89
16.8741,496.89,540.51
16.8941,497.11,540.81
16.914,497.29,540.25
16.9339,497.43,540.6
16.9541,497.34,540.68
16.9739,498.48,540.94
16.994,497.38,540.15
17.0139,497.9,540.52
17.0341,496.52,540.42
17.0541,496.02,539.54
17.0741,495.21,539.43
17.094,494.77,539.34
17.1149,494.02,539.87
17.135,494.01,540.3
17.155,495.41,540.44
17.175,494.73,540.75
17.1959,494.38,541.2
17.216,493.71,541.56
17.236,494.37,541.05
17.256,494.09,540.84
17.2771,494.27,541.87
17.298,494.02,542.1
17.319,493.22,543.68
17.34,492.77,544.54
17.361,492.62,545.03
17.3811,492.29,546.83
17.4012,491.84,548.06
17.421,491.67,548.65
17.442,491.53,548.92
17.463,491.43,550.54
17.4839,491.94,550.63
17.504,492.15,551.1
17.525,492.32,549.48
17.5459,492.66,547.99
17.5659,493.73,546.59
17.5861,494.38,545.87
17.6061,495.31,545.1
17.626,494.84,545.08
17.646,494.28,547.06
17.666,503.02,550.85
17.686,521.22,559.28
17.7061,547.77,570.82
17.7261,577.62,582.86
17.7462,608.69,590.89
17.7661,634.76,593.71
17.7862,654.4,592.97
17.8061,665.72,590.17
17.8259,671.78,585.14
17.846,671.42,577.11
17.866,666.54,567.89
17.8859,659.83,560.91
17.9061,650.06,553.93
17.9259,638.05,548.54
17.946,625.44,543.23
17.9659,613.35,540.79
17.9859,600.48,540.23
18.006,588.19,538.78
18.0259,576.35,537.63
18.0461,566.28,537.5
18.0661,557.22,539.2
18.0861,549.58,540.76
18.1062,543.06,541.21
18.1261,537.65,541.57
18.1462,531.92,541.85
18.1661,526.94,542.48
18.1862,521.55,543.79
18.2062,517.64,544.03
18.2262,514.11,543.22
18.2461,511.09,543.78
18.2661,508.47,543.62
18.2859,507.38,544.3
18.3061,506.5,545.04
18.3261,505,545.23
18.3459,504.2,544.78
18.366,502.96,545.03
18.386,501.97,544.62
18.4061,501.97,544.1
18.4262,501.38,544.48
18.4461,499.9,544.98
18.466,498.92,544.59
18.4859,498.34,544.87
18.5063,497.27,544.9
18.5262,497.42,545.12
18.5461,495.33,546.09
18.5661,494.07,547.87
18.5862,492.25,549.9
18.6061,491.2,551.52
18.6259,491.16,552.02
18.6461,493.53,551.41
18.6659,493.82,549.13
18.6862,494.06,546.7
18.7059,495.45,544.76
18.7262,495.76,543.61
18.7462,496.21,542.09
18.7661,497.17,542.07
18.7862,498.13,541.86
18.8062,497.51,544.69
18.8262,492.2,552.95
18.8462,482.36,565.36
18.8662,464.09,574.89
18.8859,438.87,576.51
18.9061,410.9,569.41
18.9261,382.32,555.73
18.9461,356.65,538.18
18.9659,335.32,521.54
18.9859,322.26,508.24
19.0061,319.81,499.59
19.026,324.25,493.87
19.046,332.6,490.1
19.066,344.68,488.68
19.0861,357.54,488.94
19.1061,370.23,490.75
19.126,383.19,492.8
19.1461,394.95,497.04
19.1659,406.96,501.23
19.1862,417.37,504.79
19.2061,427.09,507.83
19.2261,435.08,511.66
19.2459,442.66,514.53
19.2659,450.53,517.02
19.2862,457.82,519.22
19.3061,462.66,521.18
19.3262,469.13,523.54
19.3461,472.5,527.23
19.3661,475,530.19
19.3861,475.8,531.95
19.4061,477.24,533.36
19.4261,478.99,534.29
19.4461,480.39,535.23
19.4663,482.52,535.98
19.4861,484.61,537.19
19.5061,485.69,538.95
19.5261,485.75,539.16
19.5461,488.2,539.93
19.5663,489.16,539.94
19.5861,489.53,538.95
19.606,490.42,538.96
19.6261,491.34,538.77
19.646,491.67,538.62
19.6659,491.54,539.49
19.6861,491.83,540.99
19.7061,492.26,541.4
19.7261,492.41,541.52
19.746,492.93,541.41
19.766,494.14,540.73
19.786,494.91,540.38
19.8061,497.33,540.11
19.8259,498.07,539.89
19.8461,498.65,540.11
19.8662,499.12,539.29
19.8862,498.1,539.63
19.9062,497.28,538.7
19.9261,496.82,537.16
19.9461,495.66,536.73
19.966,494.93,537.38
19.9861,495.74,538.11
20.0062,495.59,538.89
20.026,495.87,538.71
20.0461,497.1,539.17
20.0661,497.88,538.73
20.0858,498.5,537.99
20.1061,498.4,537.99
20.1261,498.12,537.99
20.146,497.3,538.19
20.1659,497.24,538.35
20.1861,496.39,538.08
20.2062,495.51,537.27
20.226,496.21,537.21
20.246,496.37,536.97
20.266,496.69,537.78
20.2861,496.76,538.22
20.306,498.4,538.38
20.326,498.52,537.5
20.346,500.22,537.6
20.3659,499.58,537.88
20.386,499.46,538.1
20.4061,499.37,538.28
20.4261,498.49,538.03
20.4462,497.2,538.42
20.466,495.76,538.34
20.4861,494.81,539.07
20.5059,493.84,538.86
20.526,493.68,537.68
20.5459,493.94,536.95
20.566,494.15,536.16
20.587,493.92,536.73
20.607,494.14,537.78
20.627,494.11,538.22
20.6469,494.89,538.98
20.6672,494.71,539.38
20.6868,495.57,539.91
20.707,495.05,539.93
20.727,495.44,539.74
20.747,495.35,539.79
20.767,495.28,540.23
20.7871,496.23,540.39
20.8072,496.58,540.51
20.827,496.07,540.61
20.8481,496.45,540.09
20.8681,495.96,539.87
20.888,495.77,539.3
20.9081,496.42,539.44
20.928,497.73,539.75
20.9479,497.59,540.2
20.968,497.47,540.16
20.988,496.98,540.73
21.008,495.98,541.78
21.028,495.98,541.03
21.0481,496.39,541.82
21.0682,496.11,541.26
21.0879,495.09,541.61
21.1089,493.87,541.48
21.1289,493.9,541.79
21.1489,494.12,542.23
21.1699,494.89,541.98
21.1909,494.51,541.79
21.2109,494.41,541.63
21.2318,494.33,542.3
21.2518,494.86,542.44
21.2719,495.29,543.15
21.293,497.83,545.32
21.313,510.87,551.86
21.333,536.09,562.49
21.3529,567.87,572.79
21.373,599.3,581.83
21.393,627.04,584.47
21.4131,647.43,583.37
21.433,660.95,579.9
21.453,666.76,575.32
21.473,667.4,570.05
21.4932,663.32,564.44
21.513,656.26,558.35
21.5331,645.61,554.08
21.553,634.49,549.47
21.5732,623.39,547.17
21.593,611.51,544.94
21.6132,599.41,544.95
21.633,587.13,544.56
21.6531,575.5,544.65
21.6731,565.8,545.12
21.693,557.04,545.1
21.7132,548.43,545.88
21.7328,540.95,546.9
21.7529,534.56,546.92
21.7739,528.65,546.94
21.7949,521.92,547.15
21.8158,518.13,548.52
21.8358,513.31,549.62
21.8558,509.45,549.69
21.8758,505.76,550.75
21.8958,503.4,551
21.9158,501.52,551.2
21.936,500.02,551.76
21.957,499.62,552.41
21.9778,499.29,552.93
21.9979,498.23,553.14
22.0178,498.79,553.51
22.0379,498.63,554.61
22.0578,497.7,555.09
22.0778,497.56,554.87
22.0978,496.65,555.3
22.1178,495.52,555.24
22.1378,495.42,555.59
22.1578,494.93,555.27
22.1779,495.35,555.02
22.1978,495.48,555.01
22.2179,494.18,554.61
22.2389,489.15,553.69
22.2589,476.92,549.95
22.2799,455.33,541.76
22.3008,427.87,532.21
22.3208,397.69,523.97
22.3408,368.15,515.97
22.3609,341.12,510.18
22.3808,317.9,506.74
22.4009,307.12,505.79
22.4208,306.1,505.64
22.4408,310.88,507.31
22.4608,321.3,509.25
22.4808,335.24,512.6
22.5008,350.39,515.88
22.5208,364.91,519.5
22.5408,378.53,523
22.5608,392.23,526.2
22.5808,404.78,528.56
22.6008,416.02,531.25
22.6208,426.82,534
22.6408,436.26,536.2
22.6608,443.6,538.16
22.6808,453.88,539.93
22.7008,462.51,540.34
22.7208,468.81,541.47
22.7408,474.04,542.78
22.7611,477.24,543.22
22.7808,479.79,543.18
22.8008,481.83,543.14
22.8208,484.06,542.91
22.8409,486.25,543.73
22.8608,488,543.99
22.8807,488.8,544.19
22.9008,490.04,544.35
22.9208,491.03,543.88
22.9408,491.63,544.5
22.961,492.7,545.2
22.981,494.16,545.56
23.0008,494.73,546.05
23.021,495.38,545.24
23.041,496.11,544.79
23.0611,495.89,545.23
23.0809,495.31,544.59
23.101,495.05,543.87
23.121,494.64,543.5
23.1411,493.71,542.8
23.161,493.77,542.04
23.1811,494.81,542.03
23.2011,494.45,541.62
23.221,494.36,541.7
23.2408,494.49,541.56
23.261,494.59,541.85
23.2808,495.07,542.08
23.3008,494.66,542.66
23.3208,494.53,542.73
23.3408,495.42,543.38
23.3609,495.34,543.71
23.3808,494.47,543.57
23.4012,495.38,543.05
23.4209,495.3,542.84
23.4409,494.44,542.67
23.4608,494.35,543.34
23.4808,495.08,544.07
23.501,494.87,543.66
23.5211,495.69,543.13
23.5409,495.95,543.1
23.5609,496.16,542.68
23.581,495.53,542.34
23.6011,496.62,542.28
23.621,497.7,542.22
23.641,498.96,542.18
23.661,498.17,543.14
23.6811,498.73,543.11
23.7009,499.59,543.09
23.721,499.27,542.87
23.741,499.22,542.7
23.7611,496.97,543.36
23.7808,496.18,542.89
23.801,496.34,542.91
23.8208,496.07,542.73
23.8408,495.06,543.38
23.8608,495.45,543.11
23.8812,495.76,542.88
23.9008,497.61,542.11
23.9208,498.49,542.69
23.9408,498.39,542.15
23.9608,497.31,543.12
23.9808,496.65,542.7
24.0009,495.52,543.36
24.0208,495.41,543.88
24.041,495.13,543.31
24.061,495.91,542.45
24.081,496.32,542.36
24.1011,496.86,541.49
24.121,497.69,540.79
24.141,497.55,540.43
24.161,498.24,540.94
24.1808,498.79,540.56
24.2009,498.83,540.44
24.2208,498.07,540.96
24.2408,497.85,540.56
24.2608,496.88,540.25
24.2808,496.51,539.8
24.3008,496.81,539.04
24.3208,497.04,538.43
24.3411,497.84,538.55
24.3608,496.87,537.64
24.381,494.89,537.11
24.4009,494.12,536.69
24.4209,494.29,535.95
24.4408,495.03,536.56
24.4608,499.23,538.65
24.4808,512.78,543.12
24.5008,537.23,550.09
24.5208,566.38,555.68
24.5408,595.1,558.34
24.5608,619.68,558.47
24.5808,639.35,559.38
24.6009,651.88,558.9
24.6209,659.7,558.52
24.641,662.36,557.02
24.661,660.49,555.21
24.6808,654.99,552.17
24.7009,646.99,548.74
24.7209,637.39,545.99
24.7409,626.92,544.39
24.761,615.33,541.71
24.781,604.87,540.37
24.8009,594.09,539.9
24.821,583.27,540.32
24.841,572.62,540.05
24.861,563.1,539.64
24.8808,554.88,539.91
24.9008,547.5,539.73
24.921,542.4,540.39
24.9408,535.72,540.11
24.961,531.58,540.49
24.9808,525.86,540.79
25.0009,521.49,540.83
25.0208,517.79,541.27
25.041,515.63,542.01
25.0608,513.91,541.41
25.0808,510.73,541.33
25.101,507.58,541.46
25.121,505.86,542.77
25.1408,504.49,542.82
25.1608,503.19,541.25
25.1809,502.15,541.6
25.2008,501.92,541.08
25.2208,501.74,540.07
25.2408,500.99,539.45
25.2609,499.79,540.56
25.2809,498.83,540.05
25.3011,497.87,539.44
25.321,496.49,538.55
25.3409,497.2,538.04
25.361,496.76,538.03
25.3808,497.2,537.03
25.4007,497.36,537.22
25.4208,496.89,538.18
25.4408,497.51,538.34
25.4608,495.21,541.27
25.4808,488.37,549.22
25.501,474.69,556.77
25.5209,452.16,559.42
25.5408,425.52,557.14
25.5609,396.02,549.31
25.5809,368.22,539.25
25.6009,341.77,527.8
25.6209,322.62,516.84
25.6408,315.89,508.67
25.6608,315.72,504.34
25.6809,321.97,501.27
25.7008,332.78,501.22
25.7209,345.62,501.57
25.7409,359.9,503.26
25.7609,375.12,506.01
25.7809,388.49,508.6
25.801,401.4,511.48
25.821,413.12,514.59
25.841,423.69,518.07
25.8608,433.15,521.06
25.881,440.92,523.44
25.901,447.74,524.96
25.9209,454.39,526.36
25.9409,460.71,527.89
25.9609,466.77,530.11
25.981,471.62,532.09
26.001,474.69,535.27
26.0209,478.15,537.22
26.0409,480.52,538.17
26.0612,483.42,539.74
26.0808,486.34,540.99
26.1009,488.47,541.19
26.121,489.97,540.75
26.1409,491.58,540.4
26.1609,493.66,540.32
26.1808,494.53,539.46
26.202,494.42,539.37
26.222,493.94,539.89
26.2419,494.15,539.31
26.262,494.92,540.05
26.2821,494.14,539.44
26.3019,494.71,539.75
26.322,495.17,540
26.3419,496.13,539.8
26.362,496.31,540.44
26.3821,496.65,540.35
26.4019,496.32,539.88
26.422,497.25,539.71
26.4419,497.6,540.96
26.4619,497.88,541.17
26.4817,497.91,541.14
26.5019,498.12,541.31
26.5218,496.3,541.05
26.5419,496.44,540.44
26.5618,496.15,540.15
26.5818,495.92,539.12
26.6017,496.94,539.3
26.6218,497.35,539.24
26.6419,497.48,538.59
26.6618,497.58,539.07
26.6828,497.07,539.26
26.7038,497.05,540.41
26.7248,496.64,541.32
26.7449,497.11,541.66
26.7648,497.29,542.53
26.7849,496.63,543.22
26.8049,496.91,543.98
26.8247,496.13,544.18
26.8448,495.7,544.55
26.8647,496.56,544.84
26.8848,496.85,544.87
26.9047,496.28,545.3
26.9248,495.42,545.24
26.9448,494.74,543.99
26.9648,494.59,543.79
26.9847,495.07,543.63
27.0047,494.46,542.51
27.0248,495.57,542.01
27.0447,495.85,542.2
27.0648,496.08,541.96
27.0849,496.27,541.37
27.1048,496.01,541.3
27.1248,496.21,541.44
27.1447,496.37,542.95
27.1648,496.49,542.76
27.1848,496.8,543.21
27.2048,496.84,542.17
27.2248,495.47,542.73
27.2448,495.18,543.39
27.2647,494.34,543.11
27.2849,493.87,543.69
27.305,493.9,543.95
27.325,493.12,544.76
27.3449,494.29,544.81
27.3647,494.24,545.25
27.385,494.99,544.8
27.4049,495.19,544.44
27.4249,496.35,544.15
27.4449,495.88,544.52
27.4649,495.71,544.82
27.4847,495.96,544.05
27.5049,495.37,543.84
27.5248,494.5,544.87
27.5449,495.6,545.3
27.5648,495.28,544.84
27.5851,495.02,545.07
27.6048,495.02,545.06
27.6249,495.01,545.25
27.6449,494.61,544.8
27.6647,495.29,544.04
27.685,495.83,543.03
27.7049,495.47,542.82
27.7249,494.97,542.86
27.7448,496.18,542.69
27.7648,496.54,542.75
27.7847,497.23,542.6
27.8048,497.39,542.48
27.8248,496.91,542.18
27.8447,496.53,541.55
27.8647,496.82,542.44
27.8847,495.46,542.35
27.9049,494.97,542.28
27.9249,494.17,542.02
27.9449,494.14,542.02
27.965,493.91,542.22
27.9848,493.33,543.57
28.0049,492.86,544.06
28.0249,493.29,544.25
28.0448,493.43,543.8
28.0649,493.15,544.24
28.085,493.32,543.79
28.105,492.65,544.23
28.1247,500.92,546.19
28.1448,518.74,551.95
28.1648,544.79,562.16
28.1848,574.83,573.13
28.2049,604.27,581.9
28.2249,629.81,587.92
28.2449,649.25,589.74
28.2647,659.8,589.19
28.2849,665.24,584.55
28.3049,666.19,577.64
28.3248,662.75,570.51
28.3449,656,563.21
28.3647,646.8,555.57
28.3851,635.24,548.45
28.4049,623.99,542.36
28.4249,610.39,537.89
28.4449,596.92,534.91
28.4649,584.13,532.53
28.4848,573.11,532.02
28.5049,563.08,531.82
28.5249,554.27,531.66
28.545,546.81,533.12
28.5648,540.85,534.1
28.5849,533.88,534.68
28.605,527.7,535.34
28.625,522.76,535.87
28.6448,518.61,536.9
28.6649,515.29,537.92
28.6851,512.03,537.74
28.7048,509.42,538.79
28.7249,507.34,540.43
28.7449,505.27,540.74
28.7648,503.02,542.6
28.7849,499.81,541.88
28.805,498.25,541.9
28.825,496.6,542.52
28.8449,495.08,542.42
28.8649,494.46,542.33
28.8847,493.77,542.87
28.9048,493.02,542.89
28.9249,491.61,544.51
28.945,490.69,545.01
28.9649,491.15,546.01
28.9851,491.52,546.01
29.0049,491.42,545.21
29.025,493.13,544.16
29.0449,485.11,541.33
29.065,469.89,538.47
29.085,447.51,535.77
29.1048,419.21,532.42
29.125,387.77,529.33
29.1448,358.61,525.67
29.1651,332.89,523.53
29.1848,316.91,522.23
29.2049,313.13,522.18
29.2248,315.9,521.95
29.2449,324.32,522.16
29.2649,336.46,522.73
29.2847,349.77,524.38
29.3049,363.21,526.1
29.3249,377.37,528.68
29.3448,390.3,531.35
29.3649,403.04,534.28
29.3847,414.63,536.62
29.4047,425.7,538.3
29.4247,433.76,539.84
29.4448,441.01,540.87
29.4647,447.81,542.1
29.4848,454.05,542.08
29.5048,459.64,543.06
29.5248,464.31,542.05
29.5458,468.45,542.24
29.5668,472.16,543.39
29.5868,474.73,544.31
29.6067,476.78,545.45
29.6268,478.63,546.16
29.6468,480.9,547.33
29.6667,481.92,547.66
29.6867,482.54,548.13
29.7067,483.23,548.5
29.7268,484.38,548.6
29.7467,485.11,548.68
29.767,486.29,548.95
29.787,486.43,548.76
29.8066,487.34,548.81
29.827,487.67,549.04
29.8468,487.74,548.64
29.8669,488.19,548.91
29.8869,488.55,548.53
29.9069,489.24,548.42
29.9269,490.19,548.14
29.9469,490.16,548.71
29.9667,490.12,548.37
29.9869,489.9,548.29
30.0067,490.72,548.24
30.0267,490.58,547.79
30.0469,491.06,547.43
30.0679,490.45,547.94
30.0879,489.96,549.16
30.1079,489.37,549.12
30.1279,489.69,549.3
30.1478,488.95,549.44
30.1689,489.76,549.55
30.1889,489.01,550.24
30.2089,489.41,550.99
30.229,490.33,550.59
30.2488,490.06,550.28
30.269,490.65,550.02
30.289,490.72,549.42
30.309,490.78,549.73
30.3287,489.82,549.79
30.3488,489.66,550.03
30.3687,489.13,550.22
30.3887,488.7,550.58
30.4087,488.76,551.86
30.4287,488.01,551.49
30.4488,488.21,551.79
30.4688,487.97,552.23
30.489,489.77,553.19
30.509,489.82,552.75
30.5288,490.45,553
30.5489,490.16,552.6
30.5688,490.13,552.28
30.589,490.1,551.22
30.6087,489.88,550.98
30.6287,489.91,550.38
30.6487,490.93,550.51
30.6688,492.34,550.81
30.689,492.67,550.64
30.7087,492.14,550.52
30.7287,490.91,549.61
30.7487,491.33,549.89
30.7687,491.06,550.51
30.7887,491.25,550.81
30.8087,492.4,550.45
30.8287,491.72,550.36
30.8487,490.78,549.69
30.8688,490.02,548.95
30.8887,490.02,549.16
30.9087,490.01,550.13
30.9287,490.21,550.5
30.9488,490.97,551
30.9687,490.57,550.6
30.9887,489.86,549.88
31.0087,490.09,549.7
31.0287,490.67,549.76
31.0487,490.74,550.41
31.0687,491.39,551.33
31.0887,489.91,551.86
31.1087,489.73,552.69
31.1287,489.98,552.35
31.1486,490.19,552.48
31.1687,489.95,551.79
31.1888,489.76,552.03
31.2087,490.21,551.42
31.2287,490.37,551.74
31.2488,490.89,551.39
31.2687,490.71,552.31
31.2887,491.57,553.65
31.3087,491.66,555.32
31.3287,491.73,556.06
31.3487,491.38,555.44
31.3688,490.9,555.16
31.3897,491.32,554.72
31.4098,491.86,554.38
31.4307,492.89,554.5
31.4507,492.51,554.2
31.4707,492.61,553.96
31.4918,492.69,554.17
31.5127,493.15,552.94
31.5327,493.72,552.15
31.5537,493.78,551.72
31.5737,493.42,550.78
31.5949,494.54,549.82
31.6146,493.43,549.06
31.6349,505.14,551.64
31.6549,528.51,556.92
31.6747,558.41,565.73
31.6949,591.13,575.19
31.7149,621.7,581.35
31.7349,644.96,584.68
31.7548,661.37,583.34
31.7748,669.1,580.07
31.7946,671.08,575.66
31.8147,667.66,568.93
31.8348,660.73,562.34
31.8549,650.98,555.67
31.875,639.99,551.14
31.895,628.59,546.31
31.9146,617.87,543.25
31.9348,606.7,540.2
31.9549,595.96,538.96
31.9749,583.97,537.17
31.9948,572.37,535.93
32.0146,561.7,535.75
32.0349,553.56,535.8
32.055,545.65,536.24
32.0748,538.52,536.39
32.0948,533.41,536.91
32.1147,527.33,537.13
32.1349,522.86,538.1
32.1549,519.09,539.08
32.1748,514.87,539.07
32.1946,512.3,538.65
32.2147,510.84,538.52
32.2358,509.07,538.22
32.2558,508.26,537.77
32.2758,507.01,537.62
32.2959,505.8,538.3
32.3156,503.64,538.24
32.3359,502.71,538.39
32.3558,502.17,538.31
32.3758,501.34,538.85
32.3958,500.67,539.28
32.4158,501.34,540.02
32.4367,501.67,541.22
32.4576,501.14,541.97
32.4776,501.11,541.98
32.4977,500.49,542.18
32.5176,499.99,542.95
32.5378,498.99,542.56
32.5587,494.39,543.65
32.5797,482.71,545.12
32.5997,461.17,545.89
32.6197,435.14,545.11
32.6397,408.11,541.69
32.6607,378.49,536.35
32.6807,349.59,528.68
32.7007,323.47,519.95
32.7208,308.98,513.36
32.742,305.78,510.49
32.7618,310.43,509.39
32.7819,320.14,509.71
32.8019,331.51,510.77
32.822,345.41,512.41
32.8418,358.73,514.93
32.8619,372.18,517.95
32.8819,386.15,520.96
32.9018,399.52,523.37
32.922,411.21,526.29
32.9419,421.97,529.03
32.962,431.78,531.63
32.9818,440.22,533.9
33.0016,447.58,535.32
33.0216,453.66,537.26
33.0417,459.53,538.01
33.0617,465.02,538.8
33.0816,469.62,540.04
33.1017,472.69,540.63
33.1217,474.36,540.91
33.1427,476.48,541.93
33.1627,478.79,541.14
33.1827,481.03,541.51
33.2039,482.02,541.41
33.2239,483.62,542.53
33.2436,484.1,543.62
33.2638,484.08,544.3
33.2838,484.66,544.44
33.3037,484.93,544.75
33.3238,486.14,546
33.3438,486.11,546.4
33.3637,486.49,546.72
33.3839,486.39,547.78
33.4038,486.91,548.02
33.4238,487.33,547.42
33.4439,486.47,546.93
33.4636,486.57,547.55
33.4839,485.66,547.84
33.5039,485.73,547.67
33.5239,484.78,547.94
33.5439,484.82,548.15
33.5637,485.26,548.12
33.5838,486.41,547.9
33.6037,486.93,548.32
33.6247,486.94,548.25
33.6447,487.55,548.2
33.6658,488.04,547.96
33.6867,488.43,548.37
33.7067,488.75,549.3
33.7276,489.8,550.04
33.7476,489.84,550.63
33.7686,490.07,550.7
33.7887,490.66,551.96
33.8098,492.73,553.17
33.8299,492.38,552.34
33.8498,492.1,551.87
33.8698,493.08,551.7
33.8898,494.47,552.36
33.9098,495.57,552.68
33.9298,494.26,551.95
33.9497,493.41,552.36
33.9696,493.73,552.29
33.9898,495.18,552.83
34.0098,496.14,552.86
34.0299,495.72,551.89
34.0497,496.77,552.31
34.0696,497.42,552.05
34.0897,497.73,552.64
34.1098,496.79,551.91
34.1298,495.23,551.33
34.1499,494.18,551.06
34.1698,493.55,551.05
34.1898,493.24,551.04
34.2097,493.39,550.63
34.2297,492.91,550.51
34.2498,493.33,550.4
34.2698,493.66,550.12
34.2897,492.93,549.9
34.3098,492.54,549.32
34.3296,492.84,549.66
34.3497,493.07,549.12
34.3696,494.25,549.3
34.3898,493.6,549.24
34.4098,493.08,548.79
34.4295,494.27,549.63
34.4498,494.61,549.11
34.4698,494.29,549.89
34.4898,495.43,550.51
34.5097,495.75,550.41
34.5298,496.4,549.73
34.5497,496.12,550.38
34.5699,494.69,550.5
34.5898,495.36,551.2
34.6097,495.68,550.76
34.6299,495.35,550.61
34.6498,495.28,549.69
34.6696,495.22,549.55
34.6897,494.58,549.44
34.7097,495.26,548.95
34.7298,496.21,549.16
34.7497,497.37,549.13
34.7698,496.89,548.3
34.7899,496.52,548.84
34.8097,497.01,548.67
34.8298,497.01,548.34
34.8497,497.21,548.67
34.8697,495.97,548.54
34.8898,495.57,547.23
34.9098,495.26,547.78
34.9299,494.61,548.83
34.9498,494.49,548.86
34.9699,495.59,547.69
34.9897,495.27,548.55
35.0107,494.22,548.84
35.0308,502.37,552.27
35.0508,521.5,557.42
35.0707,548.8,565.33
35.0908,577.24,575.07
35.1107,603.99,582.85
35.1306,625.79,586.88
35.1507,643.43,588.51
35.1707,653.75,587.21
35.1908,660.4,583.76
35.2107,661.52,577.01
35.2307,658.61,570.01
35.2508,651.49,562.21
35.2708,642.39,555.97
35.2908,632.71,550.77
35.3108,621.77,546.82
35.3309,610.62,543.45
35.3508,601.09,540.96
35.3708,589.88,539.37
35.3907,578.5,538.7
35.4108,567.2,537.96
35.4307,557.96,537.77
35.4506,550.77,538.01
35.4707,543.21,539.41
35.4918,536.77,538.53
35.5116,531.22,538.02
35.5317,525.77,537.42
35.5517,522.62,538.13
35.5716,519.3,537.31
35.5916,516.04,536.65
35.6126,513.23,536.12
35.6325,510.38,537.09
35.6525,508.51,537.07
35.6726,507.61,537.86
35.6935,505.68,537.69
35.7136,503.75,538.35
35.7335,501.2,538.08
35.7535,499.76,537.86
35.7735,499.21,537.29
35.7935,498.17,536.63
35.8135,498.73,536.51
35.8336,498.99,536.41
35.8537,499.39,536.32
35.8747,498.51,535.86
35.8945,498.81,536.69
35.9146,499.25,536.75
35.9356,499.4,536.8
35.9566,499.12,537.64
35.9766,496.29,538.11
35.9967,488.44,539.89
36.0177,471.15,542.71
36.0375,447.12,543.17
36.0575,418.3,541.14
36.0775,388.04,535.71
36.0977,358.83,528.57
36.1177,333.86,522.65
36.1376,316.89,516.92
36.1575,311.31,513.74
36.1775,314.25,513.59
36.1976,323,514.47
36.2177,334.8,515.18
36.2376,348.84,516.34
36.2576,362.07,518.27
36.2775,375.46,521.42
36.2976,389.17,523.14
36.3176,400.53,524.71
36.3376,412.23,526.97
36.3576,423.78,529.37
36.3775,433.62,531.1
36.3977,441.1,533.08
36.4178,448.48,534.66
36.4377,454.58,535.33
36.4575,460.27,535.46
36.4775,465.61,534.97
36.4975,470.09,535.38
36.5176,473.87,535.9
36.5375,476.9,537.12
36.5575,479.32,537.5
36.5775,481.65,538.2
36.5976,484.92,538.76
36.6175,486.14,538.41
36.6375,487.51,538.53
36.6575,488.81,537.82
36.6778,490.05,538.46
36.6975,490.84,538.36
36.7176,492.07,539.29
36.7377,493.46,540.43
36.7578,493.76,540.95
36.7776,494.01,540.76
36.7977,494.81,541.01
36.8178,495.65,542
36.8375,495.12,542
36.8577,494.69,541.2
36.8776,495.36,541.96
36.8975,494.48,541.97
36.9177,493.99,542.98
36.9377,494.99,542.98
36.9578,494.99,543.98
36.9778,494.99,544.39
36.9977,494.59,544.11
37.0178,494.28,543.89
37.0378,494.42,543.11
37.0577,493.74,542.89
37.0777,493.39,542.91
37.0977,494.11,542.73
37.1177,494.69,542.58
37.1378,495.15,543.07
37.1575,496.12,543.65
37.1779,496.7,543.52
37.1979,497.16,543.42
37.2178,497.33,543.33
37.2379,497.66,542.87
37.2579,496.93,542.09
37.2779,497.54,542.08
37.2975,498.43,542.26
37.318,497.55,542.01
37.3379,497.04,541.21
37.3577,497.03,541.37
37.3777,495.62,542.69
37.3977,494.3,543.55
37.4177,494.04,544.24
37.4378,494.03,543.99
37.4577,493.83,543.6
37.4777,493.86,543.08
37.4975,493.69,542.66
37.5177,493.55,542.73
37.5378,493.84,542.78
37.5577,494.67,543.63
37.5775,494.54,543.9
37.5976,494.43,543.72
37.6176,494.14,543.38
37.6375,492.92,542.5
37.6577,493.13,542
37.6777,494.31,542.8
37.6977,495.44,542.44
37.7177,495.36,542.15
37.7377,496.28,541.72
37.7577,496.63,542.38
37.7778,496.9,543.7
37.7976,495.52,544.76
37.8178,494.62,545.01
37.8378,494.49,545.01
37.8577,493.4,545.21
37.8777,493.52,544.36
37.8975,494.21,543.89
37.9177,495.97,543.51
37.9378,496.98,544.21
37.9577,497.38,545.57
37.9778,496.9,545.45
37.9975,496.32,545.96
38.0179,496.46,545.37
38.0378,496.17,545.5
38.0578,496.33,544.8
38.0778,496.07,544.84
38.0977,494.85,545.27
38.1176,494.28,545.22
38.1379,493.43,544.37
38.1576,493.14,543.7
38.1778,493.11,543.16
38.1976,493.49,541.93
38.2178,493.59,540.94
38.2378,494.87,540.55
38.2576,494.3,540.04
38.2777,494.44,539.63
38.2975,494.15,539.51
38.3175,495.92,539.41
38.3376,506.94,540.72
38.3576,525.55,543.58
38.3776,549.24,546.66
38.3975,572.59,550.33
38.4177,593.07,551.06
38.4375,609.46,550.85
38.4578,623.37,551.68
38.4776,633.49,552.35
38.4976,640.39,553.28
38.5177,644.32,554.02
38.5378,644.05,554.02
38.5578,641.84,553.21
38.5778,637.27,552.37
38.5978,630.02,551.3
38.6176,621.42,550.04
38.6377,612.93,548.43
38.6577,604.35,546.34
38.6776,595.68,545.28
38.6975,585.14,544.42
38.7176,576.11,543.34
38.7378,567.69,543.67
38.7577,560.15,543.54
38.7775,552.52,543.03
38.7975,545.02,542.42
38.8174,538.01,542.14
38.8378,531.81,542.11
38.8575,526.85,542.29
38.8775,523.28,542.03
38.8975,521.42,542.02
38.9175,518.54,541.22
38.9386,516.23,541.38
38.9595,513.18,541.7
38.9805,509.35,543.36
39.0014,506.48,544.49
39.0216,503.58,545.59
39.0426,500.67,546.67
39.0624,497.93,547.14
39.0825,495.75,546.91
39.1028,494.8,546.93
39.1227,493.64,547.14
39.1427,492.91,547.91
39.1627,492.33,547.73
39.1827,492.06,547.39
39.2028,491.85,548.51
39.2227,491.48,548.81
39.2426,491.18,549.05
39.2627,491.95,550.24
39.2826,491.76,550.79
39.3026,491.61,551.43
39.3227,491.48,551.14
39.3427,490.59,550.32
39.3627,489.67,550.65
39.3827,489.94,550.52
39.4027,489.75,550.02
39.4227,489.6,550.61
39.4426,491.08,549.69
39.4627,490.26,549.75
39.4826,486.41,551.2
39.5027,475.93,552.16
39.5226,457.34,553.33
39.5435,433.47,552.06
39.5645,406.58,549.85
39.5846,381.46,545.28
39.6045,356.17,538.82
39.6245,333.34,531.66
39.6446,316.67,525.93
39.6644,307.34,521.94
39.6845,307.87,519.55
39.7046,315.69,519.04
39.7245,328.16,519.23
39.7446,341.32,520.19
39.7645,354.46,521.95
39.7846,369.57,524.56
39.8045,383.45,527.45
39.8249,395.76,529.16
39.8446,408.81,530.93
39.8646,419.65,532.34
39.8844,429.52,535.07
39.9046,437.82,536.26
39.9244,445.05,537.21
39.9446,453.04,537.57
39.9647,458.23,539.25
39.9846,463.99,540.8
40.0045,468.19,540.84
40.0245,472.75,542.87
40.0455,476.4,543.9
40.0654,478.52,545.32
40.0856,479.42,546.06
40.1057,481.93,547.44
40.1256,483.35,547.76
40.1454,485.68,547.6
40.1656,487.34,547.88
40.1857,488.87,547.71
40.2057,489.7,548.37
40.2257,489.76,549.09
40.2456,490.41,549.27
40.2654,490.13,549.22
40.2856,490.3,549.38
40.3057,490.84,548.9
40.3257,491.27,548.52
40.3456,492.02,547.82
40.3655,492.01,548.05
40.3856,491.61,547.04
40.4055,490.69,546.23
40.4254,489.95,546.59
40.4456,489.96,545.67
40.4655,490.57,545.94
40.4855,491.46,545.95
40.5056,491.76,545.16
40.5255,493.21,545.13
40.5456,493.97,545.5
40.5655,493.78,546.4
40.5856,493.42,546.52
40.6057,494.34,547.42
40.6256,493.67,547.73
40.6457,492.54,548.99
40.6654,491.43,549.19
40.6857,490.94,550.15
40.7056,491.75,549.52
40.7255,492.4,549.62
40.7456,492.92,550.29
40.7655,492.54,550.43
40.7865,493.83,550.35
40.8064,494.06,549.88
40.8265,494.85,549.3
40.8465,494.88,548.04
40.8665,495.3,547.63
40.8864,495.24,545.91
40.9064,496,545.33
40.9265,497,545.66
40.9464,497.6,546.13
40.9664,498.08,546.1
40.9864,496.66,546.08
41.0065,496.33,546.07
41.0265,496.06,546.65
41.0464,495.05,546.52
41.0664,495.64,546.82
41.0865,495.91,546.85
41.1064,495.33,547.08
41.1264,495.06,547.07
41.1464,495.45,546.65
41.1664,495.76,545.92
41.1864,497.01,546.74
41.2065,496.41,547.99
41.2265,497.13,548.59
41.2466,497.1,549.67
41.2677,497.48,548.14
41.2875,498.98,547.11
41.3076,499.19,546.69
41.3277,499.15,547.35
41.3477,499.32,546.28
41.3676,500.46,544.62
41.3877,499.96,544.1
41.4076,499.57,543.28
41.4275,499.06,543.02
41.4475,498.45,541.82
41.4676,498.36,540.86
41.4876,498.29,540.48
41.5076,497.63,539.99
41.5276,497.5,541.19
41.5475,497.8,541.95
41.5675,498.64,541.76
41.5876,499.11,541.21
41.6074,500.09,542.17
41.6275,499.07,542.93
41.6474,497.86,542.75
41.6675,497.29,542.6
41.6885,497.83,542.28
41.7084,498.06,542.22
41.7285,498.85,542.18
41.7496,498.88,541.54
41.7696,499.5,541.23
41.7897,499.2,541.19
41.8095,498.96,540.35
41.8297,498.77,540.68
41.8494,497.82,540.74
41.8694,497.65,541
41.8894,497.52,541.2
41.9095,497.42,541.96
41.9294,497.33,542.17
41.9494,497.47,542.33
41.9694,497.77,542.27
41.9897,498.42,542.01
42.0096,498.94,542.61
42.0297,498.75,542.69
42.0495,497.8,541.55
42.0696,498.04,541.04
42.0896,498.23,541.03
42.1094,498.18,542.03
42.1294,497.95,541.02
42.1494,498.96,540.82
42.1694,498.57,541.05
42.1894,497.85,541.24
42.2094,497.68,542.19
42.2295,498.55,542.96
42.2496,499.04,542.36
42.2696,499.83,542.49
42.2894,500.06,542.39
42.3094,499.65,542.31
42.3294,499.72,542.05
42.3494,499.98,542.44
42.3694,499.98,541.75
42.3894,498.79,542.4
42.4094,499.03,541.72
42.4294,497.82,541.18
42.4494,498.46,540.74
42.4696,497.77,540.79
42.4896,497.21,541.63
42.5096,498.17,542.51
42.5294,497.54,541.61
42.5496,497.83,541.09
42.5697,497.06,541.47
42.5896,496.25,541.37
42.6096,496.6,540.9
42.6295,496.88,540.52
42.6496,496.1,539.62
42.6697,495.68,538.89
42.6896,495.15,538.91
42.7095,493.52,539.33
42.7295,493.61,539.46
42.7495,493.69,539.77
42.7695,494.35,540.02
42.7895,495.28,539.61
42.8095,495.83,539.89
42.8296,495.26,540.11
42.8496,495.81,539.49
42.8695,494.85,539.19
42.8894,494.88,539.15
42.9094,494.5,539.12
42.9295,494.4,538.7
42.9504,494.92,538.76
42.9705,494.54,539.01
42.9905,494.23,539.21
43.0115,494.18,540.96
43.0324,506.35,547.57
43.0524,528.68,559.46
43.0734,558.54,572.97
43.0944,590.23,585.17
43.1144,620.39,592.94
43.1346,644.71,595.35
43.1546,661.57,592.48
43.1747,670.45,586.58
43.1946,671.96,577.67
43.2143,669.97,569.93
43.2347,662.18,561.95
43.2546,651.54,553.36
43.2744,639.23,547.29
43.2944,626.79,541.63
43.3144,615.03,537.7
43.3345,602.82,533.56
43.3544,591.46,530.85
43.3743,580.17,528.88
43.3943,569.53,528.5
43.4145,560.43,529
43.4344,551.74,530.4
43.4554,542.79,532.12
43.4765,534.83,534.3
43.4964,528.27,536.64
43.5167,522.41,537.71
43.5365,517.53,539.37
43.5566,513.83,540.49
43.5767,510.66,541.4
43.5964,507.93,543.12
43.6165,504.54,544.69
43.6368,502.43,545.75
43.6567,500.55,547.2
43.6767,498.64,547.56
43.6966,497.11,547.45
43.7165,495.29,547.16
43.7363,493.63,547.13
43.7566,492.9,547.5
43.7765,492.12,548.2
43.7963,490.9,548.76
43.8166,489.92,548.41
43.8365,489.94,548.13
43.8566,490.15,547.9
43.8766,487.12,548.32
43.8965,477.49,551.86
43.9173,458.2,554.49
43.9376,433.36,554.99
43.9576,405.69,551.79
43.9777,376.75,546.03
43.9975,347.6,538.63
44.0176,323.68,532.3
44.0377,307.54,527.64
44.0577,302.83,524.91
44.0775,306.07,523.53
44.0974,315.05,523.22
44.1176,326.24,523.38
44.1373,339.99,524.7
44.1573,353.4,526.16
44.1778,367.52,527.73
44.1974,380.81,529.78
44.2177,393.45,532.43
44.2377,405.36,534.14
44.2576,415.89,534.91
44.2776,425.31,535.73
44.2973,434.25,536.18
44.3177,442.2,537.55
44.3376,448.16,539.04
44.3575,453.33,539.43
44.3775,458.06,541.34
44.3976,462.25,543.28
44.4174,466,544.42
44.4375,469.6,545.74
44.4575,473.28,546.79
44.4775,474.42,547.03
44.4974,476.14,547.22
44.5176,478.31,546.98
44.5375,479.85,547.78
44.5575,481.68,548.03
44.5773,482.54,547.02
44.5975,483.23,547.02
44.6175,482.99,546.81
44.6374,483.99,548.25
44.6575,483.59,547.8
44.6774,484.67,547.84
44.6983,485.94,547.67
44.7185,486.95,547.74
44.7384,486.96,548.19
44.7586,487.37,548.75
44.7785,487.89,549.6
44.7986,487.72,550.28
44.8185,487.57,549.83
44.8385,488.66,549.46
44.8584,488.53,549.77
44.8784,489.42,549.21
44.8994,489.74,550.17
44.9194,490.19,551.14
44.9404,491.95,551.51
44.9604,491.76,551.21
44.9814,491.61,551.57
45.0013,491.49,552.25
45.0213,490.99,552
45.0414,491.59,551.6
45.0613,492.07,551.28
45.0814,491.46,551.03
45.1014,492.17,552.22
45.1214,493.13,552.58
45.1414,494.31,553.66
45.1615,495.25,554.33
45.1819,494.8,554.06
45.2016,494.04,554.45
45.2215,495.03,554.16
45.2416,495.02,554.33
45.2614,495.62,553.46
45.2815,496.3,553.57
45.3013,496.64,553.86
45.3213,496.31,553.88
45.3415,495.25,553.71
45.3615,495.2,553.37
45.3815,494.76,554.09
45.4013,494.61,553.87
45.4224,495.29,552.7
45.4434,495.23,551.16
45.4634,495.98,549.93
45.4844,496.19,548.54
45.5054,497.35,546.63
45.5264,496.68,544.71
45.5464,496.94,543.17
45.5673,497.55,542.73
45.5874,498.24,542.59
45.6074,498.19,541.87
45.6275,497.56,541.7
45.6475,497.04,541.76
45.6676,496.64,540.6
45.6875,496.11,541.08
45.7075,495.69,541.27
45.7274,496.15,540.41
45.7475,495.32,540.13
45.7673,495.66,539.9
45.7884,495.52,540.12
45.8083,495.42,539.9
45.8283,496.14,540.12
45.8484,495.51,539.1
45.8685,494.81,538.68
45.8885,495.45,538.74
45.9085,496.76,539.19
45.9285,496.01,539.15
45.9486,496.4,539.12
45.9685,495.72,539.7
45.9884,496.38,538.76
46.0085,497.1,538.41
46.0284,497.68,538.53
46.0493,496.35,538.62
46.0706,497.28,538.5
46.0905,496.62,538.2
46.1105,495.9,539.16
46.1305,495.32,539.13
46.1507,496.45,539.5
46.1705,496.76,539.8
46.1905,496.41,539.24
46.2105,496.73,538.99
46.2305,496.18,538.79
46.2503,496.75,539.44
46.2705,496,540.55
46.2904,495.8,540.64
46.3104,495.24,541.11
46.3306,495.99,540.89
46.3505,496.19,541.11
46.3705,496.55,541.49
46.3905,496.24,542.59
46.4105,496.39,541.87
46.4304,496.12,542.1
46.4505,496.69,542.08
46.4703,496.95,541.46
46.4906,496.96,540.57
46.5105,497.37,541.06
46.5305,496.7,541.45
46.5505,496.36,541.16
46.5705,496.49,541.12
46.5903,497.39,541.1
46.6114,496.71,541.28
46.6313,496.97,541.42
46.6512,497.37,541.74
46.6714,496.7,541.79
46.6915,495.96,542.03
46.7114,494.97,543.23
46.7313,494.77,542.98
46.7515,494.62,543.58
46.7715,495.1,544.07
46.7915,494.68,543.65
46.8115,494.54,542.72
46.8315,494.43,542.78
46.8514,493.75,542.42
46.8716,494,542.54
46.8915,494.2,542.63
46.9116,493.96,541.9
46.9317,494.97,542.12
46.9516,494.97,542.7
46.9715,494.78,543.56
46.9914,494.42,543.05
47.0115,493.74,542.84
47.0313,493.79,542.07
47.0515,493.83,541.46
47.0714,493.67,540.76
47.0916,494.53,541.01
47.1115,495.83,540.41
47.1315,496.26,540.53
47.1515,499.01,541.62
47.1715,508.41,546.1
47.1914,526.33,554.88
47.2115,549.66,567.9
47.2315,572.93,581.72
47.2515,596.14,592.58
47.2714,616.71,600.26
47.2914,633.77,604.01
47.3112,647.22,605.21
47.3315,655.17,601.37
47.3515,657.34,595.29
47.3715,655.87,587.23
47.3915,649.9,577.59
47.4115,641.32,567.07
47.4318,631.05,556.46
47.4515,621.44,547.16
47.4714,610.75,538.73
47.4926,598.4,531.19
47.5124,586.92,525.75
47.5325,577.14,522.6
47.5526,565.51,519.28
47.5725,555.41,516.82
47.5923,545.73,515.06
47.6124,537.78,515.25
47.6326,531.23,516.2
47.6524,526.18,517.36
47.6726,520.94,518.29
47.6923,516.16,521.43
47.7124,513.52,525.34
47.7325,512.62,528.87
47.7526,511.3,530.7
47.7724,510.44,532.96
47.7924,508.15,534.97
47.8124,506.12,536.17
47.8323,504.5,537.54
47.8523,501.8,539.03
47.8726,499.44,539.43
47.8925,496.55,539.94
47.9125,493.64,540.15
47.9326,491.11,541.12
47.9523,490.69,542.3
47.9725,490.15,541.64
47.9925,490.32,541.71
48.0126,491.26,542.57
48.0325,491.21,543.05
48.0525,490.96,543.44
48.0723,491.57,544.15
48.0923,490.06,544.72
48.1124,482.25,546.18
48.1323,468.8,549.34
48.1525,448.84,551.67
48.1723,424.07,553.74
48.1925,396.06,553.39
48.2124,369.24,549.11
48.2324,346,542.89
48.2524,327,533.91
48.2725,312.4,526.93
48.2924,307.72,521.14
48.3125,311.37,517.72
48.3323,320.1,516.37
48.3525,331.68,514.9
48.3726,344.34,515.32
48.3924,357.47,515.45
48.4123,371.18,517.16
48.4324,384.14,518.93
48.4524,395.72,520.34
48.4724,407.77,522.08
48.4925,416.62,523.86
48.5125,425.69,525.29
48.5325,433.76,527.43
48.5524,440.2,528.54
48.5725,446.76,530.44
48.5926,453.81,531.95
48.6125,459.85,532.96
48.6324,463.28,534.37
48.6524,466.02,535.69
48.6725,468.42,536.15
48.6925,472.13,536.72
48.7124,475.51,536.98
48.7325,477.21,538.98
48.7524,478.77,539.39
48.7726,480.21,539.91
48.7924,481.17,540.93
48.8125,481.54,541.14
48.8324,482.43,541.71
48.8524,482.94,542.57
48.8723,484.35,542.66
48.8925,485.68,543.53
48.9125,487.15,543.22
48.9334,488.32,543.58
48.9535,488.05,544.26
48.9734,487.04,544.81
48.9935,487.43,545.25
49.0134,487.75,546.4
49.0335,488.4,547.92
49.0535,488.52,548.13
49.0735,488.61,547.71
49.0934,488.29,546.77
49.1133,487.83,546.81
49.1344,487.87,547.25
49.1543,487.49,547.4
49.1744,487.39,547.52
49.1942,488.12,548.02
49.2143,488.29,548.21
49.2355,488.03,548.77
49.2553,488.23,549.82
49.2755,490.18,550.05
49.2955,490.75,550.24
49.3152,491.2,551.19
49.3354,491.56,551.36
49.3554,491.25,551.08
49.3753,492.6,551.47
49.3954,491.48,551.37
49.4155,489.98,551.3
49.4352,489.19,551.84
49.4556,488.75,551.47
49.4755,488.8,550.98
49.4953,489.04,551.38
49.5154,489.03,551.11
49.5352,489.02,551.08
49.5554,489.02,550.27
49.5756,488.62,550.41
49.5955,488.69,549.93
49.6152,488.75,549.74
49.6353,488.8,549.4
49.6553,489.04,549.32
49.6754,489.63,549.45
49.6954,489.31,549.76
49.7153,489.45,550.01
49.7352,490.16,549.61
49.7554,490.33,548.69
49.7754,490.26,547.55
49.7954,491.21,548.24
49.8155,490.57,548.59
49.8356,490.45,548.87
49.8554,490.96,549.1
49.8753,490.97,549.68
49.8964,492.18,549.74
49.9163,492.54,549.99
49.9374,492.63,549.8
49.9576,491.91,550.64
49.9783,492.12,550.31
49.9983,492.5,550.65
50.0184,492,550.92
50.0384,491.8,550.73
50.0583,494.04,550.19
50.0783,495.43,550.15
50.0993,495.95,550.32
50.1194,496.36,549.86
50.1394,496.89,549.48
50.1594,497.91,549.79
50.1793,497.93,550.43
50.1993,496.74,550.34
50.2196,497.19,550.48
50.2395,497.35,550.58
50.2593,497.88,551.06
50.2793,497.71,550.05
50.3003,496.77,549.04
50.3204,496.41,548.43
50.3404,495.93,548.15
50.3602,496.14,547.12
50.3802,495.72,547.49
50.4004,496.17,546.59
50.4214,495.74,545.48
50.4413,495.99,544.58
50.4613,496.99,543.66
50.4814,496.59,542.73
50.5014,496.07,542.39
50.5214,495.46,542.31
50.5414,494.97,542.45
50.5613,494.37,542.16
50.5815,495.3,542.13
50.6012,495.24,541.9
50.6214,495.59,541.92
50.6414,495.27,542.14
50.6614,496.22,541.51
50.6814,496.37,540.81
50.7014,495.7,540.45
50.7212,495.56,540.96
50.7424,496.05,541.37
50.7625,495.64,542.29
50.7823,506.11,547.23
50.8024,527.29,557.19
50.8223,555.43,570.15
50.8423,586.94,584.52
50.8624,616.36,592.62
50.8825,639.28,595.49
50.9024,656.03,593.59
50.9224,664.62,587.48
50.9424,667.9,579.78
50.9624,666.52,571.22
50.9824,661.01,561.98
51.0024,652.21,553.38
51.0224,641.57,546.91
51.0424,629.26,540.93
51.0624,617,535.54
51.0823,605.2,531.63
51.1025,594.96,529.11
51.1234,583.77,528.68
51.1434,572.42,528.15
51.1632,562.93,528.32
51.1834,553.55,528.05
51.2034,546.24,527.64
51.2233,539.59,527.91
51.2433,534.47,528.13
51.2632,527.98,528.31
51.2834,524.38,528.84
51.3033,520.11,529.68
51.3234,516.48,530.74
51.3434,513.99,531.39
51.3633,510.79,532.51
51.3832,508.83,533.81
51.4033,506.67,535.45
51.4233,505.53,536.56
51.4432,504.43,537.45
51.4633,503.74,538.36
51.4833,502.59,538.49
51.5032,501.67,538.39
51.5234,501.54,538.51
51.5433,501.23,538.61
51.5633,501.39,539.09
51.5833,500.91,539.27
51.6033,499.73,539.82
51.6233,498.78,539.85
51.6434,499.22,540.08
51.6634,499.78,539.07
51.6833,493.62,539.25
51.7034,480.7,541
51.7232,462.56,541.4
51.7433,439.05,541.52
51.7632,411.84,538.62
51.7834,383.67,531.29
51.8033,357.94,521.83
51.8232,336.35,513.07
51.8434,326.28,506.85
51.8632,325.62,503.88
51.8833,330.5,503.31
51.9034,339.4,504.65
51.9234,350.12,507.12
51.9433,363.5,510.29
51.9633,377.8,512.63
51.9833,390.64,515.91
52.0033,403.51,518.73
52.0233,415.21,521.98
52.0433,425.77,525.18
52.0632,435.61,527.75
52.0834,443.29,529.8
52.1034,449.63,531.64
52.1234,456.91,532.91
52.1432,462.72,534.93
52.1634,467.78,535.54
52.1834,470.82,536.63
52.2033,475.06,537.31
52.2234,478.65,537.65
52.2434,481.72,537.92
52.2633,483.37,537.53
52.2845,484.9,538.43
52.3045,488.32,538.54
52.3243,489.06,538.43
52.3444,490.84,538.75
52.3643,491.08,539.6
52.3843,491.86,539.48
52.4044,493.09,538.98
52.4243,493.47,539.59
52.4444,494.38,539.27
52.4644,494.3,539.21
52.4842,494.84,538.97
52.5044,496.07,538.78
52.5244,496.86,539.42
52.5444,497.29,539.74
52.5643,498.03,540.19
52.5844,497.82,540.35
52.6041,499.26,540.08
52.6243,498.21,539.87
52.6443,497.57,540.89
