Program Time [s],data 0,data 1
34.5599,528.93,506.79
34.58,517.34,507.24
34.601,511.87,505.99
34.6218,510.9,501.19
34.642,511.92,494.35
34.6619,502.53,489.88
34.682,481.63,486.71
34.7019,458.9,487.36
34.7221,444.72,488.49
34.7421,437.78,490.99
34.7621,437.22,498.79
34.7822,440.18,508.84
34.8018,445.34,514.87
34.8221,448.47,520.09
34.842,453.58,524.68
34.862,457.86,526.94
34.882,461.09,532.35
34.9021,463.27,545.48
34.922,465.02,558.39
34.942,473.41,563.51
34.962,481.53,568.01
34.982,481.63,568.41
35.0019,480.3,571.72
35.0218,481.44,579.38
35.0429,485.35,583.9
35.0629,486.48,586.92
35.0828,489.99,585.14
35.1028,492.39,576.71
35.124,492.91,571.97
35.1441,494.33,566.57
35.1641,483.86,560.26
35.184,485.69,555.61
35.2039,491.35,551.09
35.224,496.68,546.87
35.244,497.15,548.1
35.264,498.32,550.88
35.2838,495.05,552.5
35.3049,488.24,556.2
35.3249,481.99,558.36
35.345,479.8,564.09
35.3649,480.44,567.27
35.385,480.95,569.22
35.4051,482.16,570.97
35.4249,482.13,571.78
35.445,484.5,572.22
35.4652,484.6,570.78
35.4848,485.88,566.62
35.5048,486.3,559.7
35.525,488.44,553.16
35.5449,489.56,549.33
35.5649,489.84,546.06
35.5851,489.88,542.25
35.6049,490.7,540.6
35.625,491.96,538.48
35.645,491.77,537.38
35.6648,491.61,539.51
35.6851,498.29,547.01
35.7049,516.43,562
35.7251,542.55,581.2
35.7448,572.64,599.56
35.7649,601.31,615.05
35.7848,623.65,626.64
35.805,639.12,631.31
35.8251,647.09,631.05
35.8458,648.68,628.64
35.8661,644.74,623.71
35.8859,638.19,619.37
35.9059,630.75,612.7
35.927,621,606.36
35.947,610.6,600.49
35.9671,600.08,593.59
35.987,589.87,587.27
36.0068,579.29,581.62
36.0269,569.43,574.89
36.0469,561.55,569.71
36.0668,553.64,565.77
36.0869,546.51,562.02
36.1071,539.01,559.81
36.1271,533.21,558.45
36.1469,527.77,556.56
36.1669,522.61,555.65
36.187,517.49,556.32
36.207,512.99,557.26
36.2268,509.79,559
36.2479,507.23,561
36.2679,506.19,562.6
36.288,504.95,564.28
36.3079,504.16,566.03
36.3279,502.33,566.22
36.348,501.46,566.58
36.3681,499.97,567.06
36.3881,499.98,567.05
36.4081,499.58,566.64
36.428,499.46,565.11
36.4478,497.97,563.89
36.468,493.98,564.31
36.488,482.38,562.85
36.5078,463.91,557.08
36.528,440.12,551.06
36.548,415.9,550.65
36.5678,391.12,548.32
36.5889,365.3,541.26
36.6088,342.04,531.01
36.6289,329.83,522.2
36.649,327.06,515.16
36.669,332.45,512.33
36.6892,340.36,510.86
36.709,351.69,509.89
36.729,362.75,509.51
36.7489,375.6,513.01
36.7689,388.48,517.61
36.7888,401.38,522.09
36.8089,412.71,526.27
36.8289,424.17,530.62
36.8488,433.73,534.49
36.8688,441.99,535.99
36.889,449.79,538.8
36.9089,457.03,541.64
36.929,462.02,543.31
36.949,466.82,544.85
36.9689,470.66,545.68
36.9889,474.52,545.94
37.0087,478.22,548.95
37.0289,481.98,550.56
37.0499,484.98,551.25
37.0699,486.98,553.4
37.0898,487.39,554.12
37.1098,488.51,553.9
37.1299,490.21,553.92
37.1507,490.97,552.53
37.1708,492.17,552.63
37.1909,493.94,551.7
37.2109,494.95,550.36
37.231,495.96,551.09
37.2509,497.17,551.07
37.2708,497.93,550.06
37.291,498.95,549.65
37.3109,498.76,548.92
37.3309,499.41,548.13
37.3508,498.93,546.91
37.3722,499.74,546.13
37.3919,499.39,545.3
37.4119,498.11,543.04
37.4318,498.49,542.63
37.4518,498.79,543.51
37.4719,498.43,544.4
37.4918,498.55,544.72
37.5118,498.44,546.58
37.5317,498.15,547.06
37.552,497.52,549.05
37.5717,497.02,549.24
37.5919,497.01,550.39
37.6118,496.01,551.11
37.632,497.01,552.09
37.6519,495.81,552.27
37.673,495.25,551.22
37.693,495.6,551.77
37.713,495.28,550.02
37.7329,496.22,550.62
37.7529,495.78,549.89
37.7728,495.42,548.91
37.7928,494.54,548.93
37.8129,494.43,549.15
37.8329,494.34,549.12
37.8538,493.48,547.09
37.8739,493.78,547.07
37.8937,493.82,547.66
37.914,492.46,547.13
37.9338,492.97,546.1
37.954,493.37,545.28
37.9737,493.7,544.63
37.9939,493.56,545.5
38.0138,494.25,545.4
38.0339,494,545.92
38.0541,492.8,546.74
38.0737,493.64,546.39
38.0939,493.51,547.71
38.1139,494.41,547.17
38.1338,494.93,547.54
38.154,494.74,546.43
38.1739,493.99,544.74
38.1937,494.59,544.39
38.2138,494.68,544.72
38.2337,495.54,544.77
38.2542,496.03,545.22
38.2738,497.43,548.77
38.2937,501.14,556.22
38.3138,515.91,576.78
38.3338,543.53,604.82
38.3538,579.82,636.06
38.3739,612.66,663.45
38.3939,637.93,682.36
38.414,653.14,689.28
38.4337,663.91,684.23
38.4538,668.53,671.18
38.4737,667.82,649.75
38.4938,660.86,621.6
38.5138,648.89,594.48
38.5337,635.31,568.78
38.5537,621.85,552.03
38.5739,607.68,538.62
38.5937,595.14,528.3
38.6137,583.71,522.64
38.6338,573.17,519.31
38.6539,562.34,518.25
38.6739,552.07,518.2
38.6939,543.06,518.76
38.7139,534.64,520.01
38.7338,528.72,522.81
38.7539,522.37,525.44
38.7739,516.9,527.36
38.7938,512.32,528.48
38.8138,508.25,530.19
38.8337,506,533.15
38.854,503.2,535.12
38.8737,501.36,536.3
38.894,498.49,539.04
38.9149,498.39,540.63
38.9348,498.11,541.5
38.9548,497.49,541.4
38.9749,496.19,542.32
38.9951,495.95,543.06
39.0159,496.16,542.85
39.0357,495.73,544.28
39.0568,495.18,544.02
39.0769,495.75,544.22
39.0968,495,545.37
39.1168,494.6,545.9
39.1367,494.68,546.12
39.1567,494.74,546.7
39.1768,494.79,545.96
39.1967,493.84,545.97
39.2169,492.47,547.37
39.2369,492.37,549.3
39.257,492.1,550.44
39.2768,492.48,551.15
39.2967,491.98,550.92
39.3168,485.79,553.74
39.3368,474.43,562.19
39.3571,459.14,581.75
39.377,438.91,598.2
39.397,416.13,604.96
39.4171,390.91,593.77
39.437,362.72,570.41
39.457,336.98,542.13
39.4769,316.98,515.71
39.4969,310.59,496.16
39.5168,312.07,483.53
39.5368,319.66,476.83
39.5567,330.92,473.86
39.577,344.14,472.29
39.5971,357.51,474.03
39.6169,372.01,479.02
39.6369,385.41,483.42
39.6569,398.53,490.54
39.6769,411.02,495.83
39.697,420.82,501.26
39.7169,429.85,507.61
39.737,437.08,511.09
39.757,444.67,516.67
39.777,452.13,522.74
39.797,458.91,527.39
39.817,464.13,528.91
39.837,469.5,532.33
39.8569,473.6,535.86
39.8769,476.28,538.09
39.897,478.02,539.47
39.917,479.82,540.98
39.9369,480.66,542.78
39.957,481.92,545.43
39.9769,483.14,545.94
39.9968,482.91,546.35
40.0171,484.33,548.28
40.0369,486.26,547.83
40.0569,487.01,547.46
40.0768,487.41,546.97
40.097,488.33,548.17
40.1169,488.66,547.34
40.137,489.13,547.87
40.1569,489.7,547.9
40.1769,489.76,547.92
40.1967,490.01,549.13
40.2168,491.01,548.51
40.2367,491.01,549.81
40.257,491.41,551.24
40.277,491.52,551
40.2969,491.42,550
40.3167,491.34,549.4
40.3368,491.27,549.52
40.3569,492.61,548.61
40.3769,493.09,549.69
40.3969,493.87,549.15
40.4168,493.7,549.92
40.437,492.76,550.54
40.457,492.21,548.63
40.4769,493.17,547.1
40.4969,492.53,547.48
40.5168,493.03,548.79
40.5369,493.42,549.83
40.5569,492.74,550.46
40.5769,492.99,551.17
40.5969,492.59,551.14
40.617,492.67,550.71
40.6369,492.14,549.97
40.6569,491.91,549.97
40.6769,491.73,549.98
40.697,491.18,551.58
40.7169,491.55,552.27
40.737,491.64,552.01
40.7569,492.31,551.01
40.7769,491.85,548.61
40.7969,491.08,548.89
40.817,491.46,549.31
40.8369,491.77,548.65
40.8569,491.42,549.52
40.8769,491.93,549.01
40.8969,491.15,548.41
40.917,490.92,549.33
40.9371,490.93,550.86
40.957,490.95,552.49
40.9769,492.16,552.99
40.9968,493.53,551.99
41.017,493.42,551
41.0369,492.74,552.4
41.0569,493.99,552.92
41.0769,493.99,551.73
41.0969,492.99,550.59
41.1167,492.19,551.07
41.1369,491.56,551.46
41.1569,491.44,553.16
41.1768,491.76,551.73
41.1968,491.6,552.19
41.2168,492.08,551.75
41.237,492.47,552.8
41.2568,492.97,553.04
41.2769,493.38,553.23
41.2969,493.3,555.18
41.3169,492.04,552.55
41.3368,491.43,553.44
41.3568,491.75,552.75
41.3767,493.2,553.6
41.3967,493.16,553.68
41.4168,492.53,553.14
41.4368,491.42,553.92
41.4567,490.94,553.73
41.4769,492.35,554.59
41.4966,493.28,553.47
41.5167,494.02,554.37
41.5367,493.02,552.5
41.5568,493.02,552
41.5769,491.81,551.6
41.5968,492.45,551.88
41.6167,491.96,550.7
41.6368,491.17,550.76
41.6568,490.33,551.41
41.6768,490.47,551.93
41.6968,490.37,551.74
41.717,490.5,552.39
41.7367,491,553.32
41.7569,491.8,553.65
41.7768,492.24,553.52
41.7968,492.59,554.22
41.8169,492.87,555.77
41.8368,492.9,554.42
41.8568,493.12,554.14
41.8768,491.7,553.31
41.897,492.36,552.85
41.9169,492.48,552.48
41.9369,492.19,552.58
41.9569,491.55,552.67
41.9768,491.24,552.13
41.997,491.19,554.31
42.0169,501.15,557.24
42.0369,522.12,566.8
42.0569,551.7,578.84
42.0769,583.96,589.87
42.0968,612.77,598.1
42.1169,636.41,602.28
42.1371,652.93,602.62
42.1568,663.94,599.3
42.1768,667.56,593.84
42.1968,665.84,587.27
42.2169,660.08,581.22
42.2369,650.86,576.57
42.2569,639.49,571.86
42.2768,627.79,567.89
42.297,616.03,562.71
42.317,604.43,560.37
42.3368,591.94,558.49
42.3569,580.55,556.2
42.3768,570.24,554.16
42.3968,561.99,553.92
42.417,554.19,554.74
42.4368,547.56,555.19
42.4569,540.84,555.55
42.477,534.68,555.84
42.4969,527.94,556.47
42.5168,522.55,558.38
42.5368,519.24,558.1
42.5569,515.59,558.68
42.577,513.07,560.55
42.5971,511.06,561.24
42.6169,508.45,560.79
42.6367,505.76,560.23
42.6568,503.61,558.59
42.6768,502.69,557.67
42.6968,501.95,557.13
42.7171,499.56,557.51
42.7369,498.65,557.61
42.7568,498.32,557.88
42.7768,496.85,558.11
42.7968,495.48,558.09
42.8168,494.39,557.27
42.8368,494.11,556.82
42.8569,493.29,557.05
42.8768,491.43,557.24
42.8967,490.74,557.19
42.9168,490,557.95
42.9368,489.8,557.56
42.9568,490.64,558.45
42.9769,490.91,557.56
42.997,491.33,557.05
43.0169,491.26,556.64
43.0369,487.21,559.31
43.0568,482.97,567.65
43.0768,477.37,585.52
43.0968,470.1,607.82
43.1169,461.08,628.85
43.1368,449.66,645.88
43.1568,436.93,655.71
43.1769,421.94,653.96
43.1969,401.96,637.77
43.2168,380.16,609.02
43.2368,356.53,572.21
43.2569,335.83,533.17
43.2767,321.86,499.14
43.2969,319.09,475.91
43.317,321.87,460.93
43.3368,328.9,453.74
43.3569,338.92,449.59
43.3769,350.53,451.07
43.3968,361.63,455.86
43.417,373.7,461.89
43.4369,385.96,468.51
43.4568,397.17,476.21
43.4768,408.54,483.17
43.4968,419.23,491.93
43.5169,428.38,499.95
43.5369,436.51,508.16
43.5569,445,515.73
43.5769,450.4,522.18
43.5968,456.72,527.14
43.6169,461.98,531.32
43.6367,465.18,535.05
43.6567,469.35,537.84
43.6768,470.68,541.27
43.6966,473.54,543.22
43.7167,475.83,545.58
43.7366,476.27,546.66
43.7568,478.01,548.33
43.7766,479.81,551.66
43.7969,482.05,553.13
43.8166,483.64,554.9
43.8369,484.51,556.32
43.8568,485.61,557.46
43.8768,485.89,556.97
43.8968,486.71,557.37
43.9167,485.77,557.3
43.9368,485.21,557.44
43.9568,485.57,556.95
43.9767,485.86,557.16
43.9969,486.29,557.13
44.0169,486.83,557.1
44.0369,486.86,556.88
44.0569,488.09,557.91
44.0769,488.47,558.12
44.0968,488.58,558.1
44.117,487.86,558.28
44.1369,488.89,558.42
44.1568,489.11,557.74
44.177,489.89,557.39
44.1968,490.51,558.71
44.2169,490.21,558.17
44.2368,488.77,558.14
44.2569,488.81,557.51
44.2768,488.85,558.41
44.2968,489.28,558.33
44.3169,488.62,557.26
44.3368,487.7,556.61
44.3568,487.16,556.89
44.3769,488.53,557.31
44.3968,487.82,556.45
44.4169,488.26,556.56
44.4369,489.01,556.65
44.4569,488.81,555.92
44.4768,488.44,557.13
44.4969,488.56,556.91
44.5168,488.04,556.93
44.5367,488.64,557.14
44.5569,487.91,557.31
44.5769,487.73,557.25
44.5968,487.38,557.6
44.6169,487.11,557.48
44.6368,486.68,558.18
44.6568,487.55,558.75
44.6767,486.84,558.6
44.6966,487.47,557.68
44.7166,486.98,557.94
44.7366,486.78,557.15
44.7568,487.62,557.32
44.7766,485.7,556.46
44.7969,484.76,555.57
44.8168,486.01,554.65
44.8366,486.01,555.12
44.8568,486.81,554.9
44.8768,486.84,553.72
44.8967,487.28,554.57
44.9168,488.02,554.66
44.9368,487.02,556.13
44.9569,488.01,556.5
44.9767,487.61,556.8
44.9966,487.29,558.24
45.0167,487.83,557.99
45.0365,487.66,556.59
45.0568,488.13,556.48
45.0768,487.91,556.78
45.0967,487.52,556.82
45.1167,487.02,556.86
45.1369,486.62,556.09
45.1568,486.69,556.47
45.1768,486.15,555.18
45.1969,485.72,554.54
45.2168,485.98,553.23
45.2368,485.38,553.19
45.2568,485.11,553.35
45.2767,484.68,552.48
45.2969,484.15,553.38
45.3167,485.12,553.31
45.3366,485.49,554.05
45.3568,485.4,554.24
45.3767,486.12,554.39
45.3968,486.49,555.31
45.4168,487.19,556.45
45.4368,487.56,556.96
45.4568,487.44,556.17
45.4768,487.36,556.53
45.4969,486.48,556.23
45.5168,487.79,555.58
45.5368,486.43,555.67
45.5569,494.34,557.13
45.5768,513.48,562.71
45.5968,538.38,569.16
45.6167,563.9,570.73
45.6369,586.92,569.59
45.6578,607.94,572.67
45.6779,625.75,572.93
45.6979,637.6,572.55
45.7178,644.28,572.04
45.7379,645.22,569.83
45.7577,643.18,568.86
45.7777,637.14,569.09
45.7977,629.51,568.87
45.8175,620.81,568.1
45.8377,610.45,567.08
45.8577,600.56,567.06
45.8777,590.45,566.85
45.8976,579.16,567.28
45.9177,569.13,568.62
45.9377,559.9,567.9
45.9576,551.72,567.32
45.9776,543.38,566.06
45.9977,535.7,565.24
46.0177,529.56,564
46.0377,524.45,563.4
46.0577,519.56,562.52
46.0778,514.65,562.41
46.0976,511.32,562.53
46.1185,507.85,562.62
46.1386,504.68,563.5
46.1587,502.75,563.2
46.1788,502.2,563.16
46.1987,501.56,562.93
46.2189,500.85,562.94
46.2386,500.48,562.55
46.2587,499.18,562.64
46.2787,496.35,563.11
46.2985,494.68,563.89
46.3185,493.34,563.91
46.3385,492.67,563.93
46.3587,492.14,563.54
46.3787,491.91,563.04
46.3987,491.73,564.23
46.4188,491.58,562.78
46.4388,490.47,563.43
46.4587,490.37,563.14
46.4787,490.1,561.91
46.4987,488.28,561.53
46.5187,486.82,561.02
46.5389,488.26,561.82
46.5588,486.01,561.26
46.5787,478.21,563.2
46.5987,464.76,563.76
46.6188,445.61,560.81
46.6388,422.89,553.85
46.6587,396.91,547.08
46.6788,370.13,536.66
46.6987,345.5,525.93
46.7187,323.8,516.14
46.7389,306.84,510.32
46.7588,299.47,504.05
46.7787,301.98,503.44
46.7989,309.98,504.15
46.8188,320.59,506.92
46.8388,334.47,510.74
46.8589,348.58,516.39
46.8789,362.86,522.91
46.8989,377.69,528.13
46.9188,390.55,531.5
46.9388,401.64,534.6
46.9587,413.11,537.08
46.9788,422.69,539.67
46.9988,431.95,539.93
47.0189,439.56,540.15
47.0388,446.85,542.92
47.0588,452.28,546.13
47.0788,456.42,546.91
47.0988,460.34,548.33
47.1189,463.87,547.66
47.1388,467.3,548.13
47.1588,471.44,550.7
47.1787,474.35,552.16
47.1987,476.68,553.93
47.2185,479.14,555.54
47.2387,480.72,556.84
47.2589,481.97,556.47
47.2787,482.98,556.37
47.2988,484.98,556.9
47.3186,486.19,557.32
47.3387,487.55,557.46
47.3588,487.84,557.56
47.3787,489.07,558.05
47.3988,489.86,559.64
47.4188,489.29,560.91
47.4387,489.43,561.73
47.4587,489.14,563.18
47.4789,489.11,564.15
47.4987,490.29,564.52
47.5188,490.23,565.41
47.5387,491.19,566.33
47.5587,490.75,565.27
47.5788,490.8,564.61
47.5987,490.44,563.29
47.6189,490.75,562.43
47.6387,490.4,560.95
47.6588,490.52,560.56
47.6787,490.62,560.25
47.6987,490.09,560.6
47.7187,490.07,559.48
47.7387,489.66,558.78
47.7587,488.73,558.43
47.7787,488.98,559.14
47.7989,489.19,559.51
47.8188,489.75,559.41
47.8388,489.8,559.13
47.8588,490.44,559.1
47.8787,490.35,559.08
47.8986,490.08,559.67
47.9189,491.66,560.13
47.9388,491.93,559.51
47.9589,491.55,560.2
47.9788,492.04,558.16
47.9986,493.83,558.93
48.0185,493.26,559.74
48.0387,492.41,560.2
48.0587,491.93,560.56
48.0787,490.34,561.25
48.0987,488.87,562
48.1187,489.3,561
48.1387,489.04,560
48.1588,489.03,560.4
48.1787,489.43,559.72
48.1988,490.34,559.57
48.2185,490.47,559.26
48.2386,490.38,558.41
48.2586,490.3,559.73
48.2787,490.24,559.98
48.2987,489.99,559.78
48.3187,489.99,560.43
48.3386,490.8,561.14
48.3587,490.64,561.51
48.3784,490.51,561.81
48.3987,490.61,561.85
48.4187,490.89,561.28
48.4387,490.91,560.82
48.4586,490.73,559.66
48.4785,489.98,558.53
48.4987,489.79,557.82
48.519,490.03,558.06
48.5387,489.82,558.05
48.5586,489.06,558.04
48.5786,489.25,557.03
48.5987,489.4,557.82
48.6188,489.72,557.66
48.6386,489.17,557.73
48.6586,489.34,557.58
48.6787,488.87,558.87
48.6986,489.1,558.49
48.7188,489.28,557.59
48.7387,488.82,556.88
48.7587,489.46,555.7
48.7787,490.17,556.16
48.7987,490.13,556.33
48.8187,490.31,556.86
48.8387,491.05,557.49
48.8587,491.44,557.79
48.8788,491.75,558.03
48.8987,491.8,558.03
48.9187,491.44,558.82
48.9386,490.35,559.26
48.9587,489.48,559.81
48.9787,488.98,560.84
48.9987,487.59,560.88
49.0185,486.67,560.3
49.0388,486.94,560.64
49.0588,487.35,560.71
49.0786,487.28,560.97
49.0987,487.62,558.98
49.1187,488.1,558.98
49.1386,488.68,558.98
49.1585,489.54,557.99
49.1786,489.43,557.59
49.1987,490.15,556.87
49.2187,490.52,557.1
49.2387,491.21,557.08
49.2587,491.77,556.66
49.2786,491.42,556.13
49.2987,490.93,555.7
49.3186,491.15,555.76
49.3385,490.92,556.41
49.3587,491.33,557.73
49.3787,490.67,558.38
49.3986,489.93,558.51
49.4188,490.35,559
49.4388,490.08,559.6
49.4588,490.06,559.48
49.4786,489.25,559.19
49.4986,488.6,558.35
49.5185,489.08,559.28
49.5385,489.06,559.02
49.5588,490.05,559.62
49.5787,490.64,559.9
49.5987,491.31,560.32
49.6188,491.85,560.65
49.6385,492.88,562.12
49.6586,491.5,563.5
49.6786,495.8,558.2
49.6986,497.84,549.36
49.7189,500.27,544.89
49.7388,500.42,541.71
49.7588,501.34,540.37
49.7787,500.67,539.69
49.7986,499.93,541.56
49.8186,498.55,542.64
49.8386,497.64,544.92
49.8586,497.11,546.53
49.8787,496.49,547.43
49.8987,495.39,548.14
49.9187,494.91,548.91
49.9389,494.13,548.93
49.9588,494.7,548.94
49.9788,493.16,549.36
49.9987,493.33,549.28
50.0187,493.46,550.43
50.0387,494.37,551.14
50.0588,493.5,551.71
50.0789,493.4,551.97
50.0988,492.72,552.98
50.1188,491.97,553.18
50.1388,491.58,553.35
50.1587,490.66,554.48
50.1786,497.73,558.58
50.1987,515.18,565.46
50.2185,540.75,577.77
50.2387,570,590.02
50.2588,598.2,598.21
50.2787,621.36,603.97
50.2986,639.89,606.78
50.3186,650.71,607.82
50.3387,655.77,606.86
50.3586,655.21,604.89
50.3786,651.77,600.51
50.3987,644.02,597.81
50.4189,634.21,592.85
50.4388,623.57,589.28
50.4585,612.06,585.62
50.4785,600.45,582.9
50.4986,589.76,579.52
50.5185,578.81,577.41
50.5387,568.24,574.93
50.5586,559.2,572.95
50.5787,550.96,570.76
50.5986,543.56,569.2
50.6187,538.25,567.96
50.6386,531.2,566.17
50.6586,525.36,565.14
50.6786,520.89,563.71
50.6987,517.51,562.57
50.7187,514.21,561.65
50.7388,511.17,560.92
50.7586,508.93,559.54
50.7786,506.15,559.03
50.7987,504.32,558.82
50.8188,504.25,558.46
50.8387,502,557.97
50.8586,500.2,557.57
50.8787,499.76,557.06
50.8986,498.61,557.25
50.9187,498.29,556.8
50.9387,498.23,556.04
50.9587,498.38,556.23
50.9787,497.71,555.58
50.9988,496.97,556.27
51.0188,496.17,556.81
51.0387,495.54,556.45
51.0587,494.63,557.56
51.0788,493.9,559.25
51.0987,493.92,562.2
51.1188,492.34,565.96
51.1386,491.07,572.17
51.1587,489.46,578.53
51.1787,486.17,581.83
51.1986,479.53,583.66
51.2187,465.83,579.53
51.2386,446.06,570.42
51.2587,420.65,553.94
51.2787,392.32,530.75
51.2987,363.86,506.4
51.3185,338.48,484.12
51.3387,319.39,470.1
51.3587,312.51,461.88
51.3787,313.41,459.7
51.3988,320.93,462.76
51.4187,331.14,468.61
51.4386,344.51,475.29
51.4587,358.01,482.43
51.4787,371.81,490.54
51.4987,384.85,499.44
51.5186,397.08,507.35
51.5387,409.06,514.48
51.5586,420.45,521.78
51.5787,430.16,527.63
51.5986,438.33,533.1
51.6187,446.26,537.28
51.6386,452.21,541.82
51.6587,458.17,544.86
51.6786,463.53,547.29
51.6986,468.03,549.43
51.7187,471.62,550.54
51.7385,475.5,551.84
51.7586,478.6,552.87
51.7788,480.68,553.49
51.7986,483.94,554.4
51.8189,486.75,555.72
51.8386,489,555.57
51.8587,490.6,556.06
51.8785,491.28,556.25
51.8986,492.63,556.8
51.9185,493.5,558.04
51.9386,493.6,558.03
51.9586,493.68,558.02
51.9787,493.74,558.02
51.9987,493.2,557.82
52.0188,494.16,557.85
52.0386,493.73,557.68
52.0586,494.58,557.15
52.0787,493.86,557.52
52.0986,494.49,557.61
52.1188,495.39,557.29
52.1387,496.31,557.03
52.1588,496.65,556.63
52.1786,495.72,557.5
52.1988,495.18,557
52.2188,494.74,556.4
52.2387,493.59,556.32
52.2586,493.87,555.26
52.2786,493.9,554.01
52.2987,493.92,553.4
52.3188,494.54,554.32
52.3387,494.43,553.66
52.3586,492.94,555.13
52.3786,492.55,555.3
52.3986,492.84,556.04
52.4188,492.27,556.43
52.4387,492.42,557.35
52.4586,491.94,558.48
52.4786,492.95,559.18
52.4986,492.96,558.95
52.5188,493.17,559.76
52.5386,492.93,559.6
52.5588,493.15,559.48
52.5786,494.12,560.19
52.5987,493.89,559.95
52.6186,494.72,558.76
52.6387,493.57,559.41
52.6589,492.86,557.93
52.6786,492.49,558.14
52.6986,493.39,558.11
52.7186,493.11,558.29
52.7385,492.89,558.03
52.7586,492.11,558.63
52.7786,493.49,560.1
52.7986,493.19,561.28
52.8186,493.95,563.42
52.8387,494.76,563.94
52.8588,495.81,564.35
52.8788,495.65,563.88
52.8986,495.92,563.91
52.9187,495.73,564.12
52.9387,495.59,563.9
52.9587,495.67,563.72
52.9784,496.34,563.38
52.9986,496.07,561.9
53.0186,496.26,561.32
53.0386,497,560.86
53.0586,497.2,559.48
53.0785,497.96,559.19
53.0984,496.97,559.15
53.1186,496.58,558.72
53.1386,497.26,558.58
53.1586,496.61,558.46
53.1786,497.69,558.37
53.1986,498.35,558.7
53.2187,497.48,558.16
53.2387,497.58,559.52
53.2586,496.27,559.82
53.2786,496.01,560.26
53.2986,497.21,560.4
53.3186,496.37,559.52
53.3387,496.69,558.22
53.3586,496.16,558.18
53.3786,497.32,557.74
53.3987,497.86,557.19
53.4187,496.89,558.15
53.4388,496.31,558.12
53.4586,497.05,558.7
53.4787,497.64,558.76
53.4987,497.91,558.41
53.5188,497.13,557.73
53.5387,496.7,557.18
53.5586,497.76,557.14
53.5784,497.81,557.32
53.5987,498.05,557.45
53.6185,497.84,557.56
53.6387,497.27,557.65
53.6588,496.62,557.32
53.6787,496.69,557.06
53.6986,496.15,556.84
53.7186,495.92,557.08
53.7388,495.54,555.26
53.7585,495.43,554.41
53.7786,496.34,553.73
53.7986,495.88,553.58
53.8188,493.9,554.47
53.8388,502.12,559.17
53.8586,519.9,568.54
53.8786,545.12,579.43
53.8987,574.29,592.34
53.9189,604.43,602.48
53.9387,629.35,608.78
53.9588,649.48,611.22
53.9786,662.18,610.38
53.9986,668.15,606.1
54.0184,668.72,600.88
54.0385,664.37,594.91
54.0586,657.7,588.32
54.0786,647.16,582.06
54.0987,635.53,575.65
54.1186,624.02,571.12
54.1386,613.02,566.89
54.1586,600.41,563.72
54.1787,589.73,561.77
54.1985,579.98,560.42
54.2185,570.19,559.53
54.2386,560.75,559.03
54.2586,552.4,558.82
54.2786,544.72,558.06
54.2985,539.18,558.05
54.3195,533.34,557.44
54.3395,528.07,556.55
54.3597,523.66,556.24
54.3796,520.73,555.79
54.3997,517.18,555.43
54.4196,514.15,555.35
54.4395,511.52,555.08
54.4597,509.21,555.06
54.4797,507.77,554.45
54.4995,507.22,554.96
54.5196,507.37,554.77
54.5396,505.7,554.21
54.5597,505.16,553.97
54.5795,504.53,553.58
54.5997,502.62,553.66
54.6197,502.1,553.13
54.6396,499.88,552.7
54.6595,498.9,552.76
54.6795,498.52,553.21
54.6998,497.02,554.17
54.7197,496.41,554.13
54.7396,496.13,553.51
54.7598,497.3,552.81
54.7796,497.84,552.84
54.7995,497.68,552.88
54.8196,497.74,553.3
54.8395,497.79,554.04
54.8598,497.23,553.83
54.8796,496.19,554.47
54.8996,495.95,554.37
54.9194,495.76,555.1
54.9395,493.81,555.28
54.9595,488.85,558.02
54.9795,479.68,559.62
54.9995,465.54,561.29
55.0195,447.83,561.44
55.0396,425.87,557.55
55.0596,403.09,549.84
55.0795,379.07,536.27
55.0995,356.86,522.82
55.1196,336.89,508.25
55.1395,320.91,496.8
55.1595,313.53,488.84
55.1795,316.02,485.67
55.1996,323.62,486.74
55.2196,334.69,490.79
55.2396,348.16,496.83
55.2595,362.72,502.87
55.2794,376.18,509.09
55.2997,389.54,515.47
55.3197,402.23,521.58
55.3395,413.59,526.46
55.3597,423.47,530.77
55.3794,431.98,533.62
55.3995,440.38,535.49
55.4196,447.7,536.79
55.4396,453.96,538.04
55.4594,459.57,538.63
55.4794,465.06,540.9
55.4996,470.45,542.12
55.5194,474.96,542.9
55.5397,478.77,543.52
55.5595,483.61,544.61
55.5795,485.49,544.69
55.5996,486.59,544.15
55.6198,488.07,544.52
55.6395,490.66,545.22
55.6596,491.33,544.97
55.6795,491.66,544.18
55.6997,492.93,543.94
55.7197,493.74,545.35
55.7396,494.39,546.08
55.7595,494.92,546.27
55.7797,496.33,546.21
55.7997,496.87,546.57
55.8197,497.89,547.06
55.8396,498.71,548.65
55.8596,498.37,549.52
55.8796,497.7,549.81
55.8997,496.96,549.25
55.9196,497.17,550.4
55.9397,496.73,550.52
55.9597,495.99,550.42
55.9797,495.79,550.93
55.9995,495.63,550.15
56.0196,494.91,550.32
56.0396,494.32,548.85
56.0596,494.06,550.28
56.0795,493.05,550.03
56.0997,493.24,549.22
56.1196,494.79,549.38
56.1397,494.83,549.5
56.1597,494.27,549.6
56.1796,494.21,549.88
56.1996,494.37,550.1
56.2195,495.9,549.68
56.2396,495.72,549.95
56.2597,495.37,549.56
56.2797,495.5,549.45
56.2996,495.8,550.16
56.3197,496.84,550.33
56.3396,497.27,549.66
56.3596,498.22,549.33
56.3795,497.97,549.26
56.3997,497.18,548.81
56.4195,496.74,548.25
56.4396,496.99,548.2
56.4595,497.8,548.36
56.4794,498.44,548.09
56.4996,498.15,548.47
56.5195,498.32,547.78
56.5395,497.66,548.02
56.5595,497.72,548.62
56.5796,498.38,548.49
56.5997,499.1,547.99
56.6195,499.68,547.8
56.6395,500.55,546.84
56.6596,501.44,547.27
56.6797,501.75,546.42
56.6998,500.4,545.73
56.7196,499.72,546.39
56.7395,500.38,547.71
56.7595,499.7,548.17
56.7798,499.36,548.93
56.7996,498.89,549.15
56.8196,498.51,549.72
56.8395,499.01,549.57
56.8596,500.61,549.86
56.8797,501.09,549.09
56.8996,501.47,548.67
56.9197,501.77,548.34
56.9396,502.02,548.87
56.9597,500.02,548.89
56.9797,499.01,548.52
56.9997,498.21,549.01
57.0196,497.57,548.61
57.0396,498.05,548.69
57.0595,497.84,549.35
57.0796,498.67,548.68
57.0995,499.14,549.54
57.1196,499.51,549.44
57.1396,498.61,550.35
57.1596,497.69,550.88
57.1796,498.35,551.1
57.1998,499.88,551.48
57.2197,500.1,551.99
57.2396,498.88,551.39
57.2596,498.11,550.91
57.2796,498.69,549.93
57.2996,498.55,548.54
57.3196,499.44,548.23
57.3396,498.35,547.79
57.3597,498.88,548.23
57.3795,498.9,547.58
57.3996,498.12,547.07
57.4196,497.5,546.65
57.4396,497.6,546.32
57.4595,497.48,547.06
57.4797,497.58,547.65
57.4998,498.47,547.12
57.5195,499.97,546.89
57.5395,499.78,545.92
57.5595,499.62,544.53
57.5795,499.1,544.83
57.5996,498.88,544.46
57.6195,498.7,544.97
57.6395,498.76,544.97
57.6595,499.41,545.18
57.6795,500.13,545.34
57.6996,499.7,545.88
57.7194,503.96,546.7
57.7394,515.57,551.96
57.7595,534.66,561.77
57.7795,557.72,571.81
57.7995,581.58,579.65
57.8195,605.06,585.92
57.8395,626.85,590.14
57.8595,643.08,592.31
57.8795,654.06,590.85
57.8996,660.45,586.68
57.9195,660.76,580.54
57.9395,658.01,574.43
57.9595,650.81,569.55
57.9795,642.65,565.44
57.9996,633.72,561.75
58.0196,622.97,558
58.0398,612.38,556.8
58.0596,601.3,554.64
58.0795,590.04,552.91
58.0994,580.23,551.73
58.1194,570.99,549.78
58.1395,562.59,549.03
58.1595,555.67,548.42
58.1796,548.14,548.94
58.1996,541.11,549.15
58.2196,535.69,549.32
58.2396,531.35,548.86
58.2595,526.08,549.08
58.2795,522.26,548.67
58.2997,520.81,549.13
58.3195,517.05,549.91
58.3395,513.04,549.93
58.3595,511.43,550.14
58.3795,510.55,550.31
58.3996,508.64,550.45
58.4196,507.11,550.56
58.4395,505.69,551.65
58.4595,503.95,551.92
58.4795,501.56,551.53
58.4995,500.65,551.03
58.5197,500.72,551.02
58.5395,499.37,550.22
58.5597,497.7,550.17
58.5796,497.96,549.34
58.5996,498.57,548.27
58.6196,498.45,547.22
58.6395,498.16,548.37
58.6595,498.13,548.5
58.6796,498.1,548
58.6996,496.68,548.4
58.7195,497.35,548.52
58.7395,496.08,549.82
58.7594,491.06,551.45
58.7794,480.45,550.96
58.7995,463.16,549.37
58.8194,440.73,546.5
58.8395,415.38,540.8
58.8596,390.51,533.04
58.8795,366,523.03
58.8995,343.4,510.62
58.9194,324.72,499.5
58.9395,312.98,491.4
58.9595,312.18,488.52
58.9796,318.35,488.82
58.9996,327.08,491.05
59.0195,338.86,493.84
59.0395,351.89,498.87
59.0595,366.91,504.1
59.0795,381.13,509.28
59.0996,393.9,513.82
59.1195,406.12,518.66
59.1395,417.9,524.13
59.1595,428.52,528.9
59.1795,437.61,533.32
59.1997,445.29,535.86
59.2195,452.43,537.89
59.2395,458.35,540.31
59.2594,463.28,542.05
59.2795,467.82,543.44
59.2995,471.46,545.35
59.3195,474.57,544.88
59.3395,477.25,545.3
59.3595,480.8,546.24
59.3795,482.84,546.99
59.3996,484.87,546.8
59.4194,486.9,547.24
59.4394,488.32,547.79
59.4594,489.46,548.43
59.4794,490.96,550.15
59.4994,490.97,550.32
59.5193,492.18,549.45
59.5395,493.34,550.36
59.5593,493.47,549.69
59.5794,493.78,548.75
59.5995,493.22,548.8
59.6194,496.78,552.64
59.6394,502.62,556.31
59.6595,506.3,558.85
59.6795,508.64,559.48
59.6996,509.91,559.38
59.7199,509.93,558.11
59.7395,509.74,557.29
59.7594,508.59,556.63
59.7796,507.28,556.3
59.7995,506.42,555.84
59.8196,506.34,554.87
59.8395,505.67,554.5
59.8596,505.34,553.6
59.8795,503.87,552.48
59.8996,503.29,551.78
59.9195,503.04,551.83
59.9395,501.43,550.86
59.9595,500.74,550.69
59.9794,501.19,551.35
59.9995,500.36,551.28
60.0196,499.68,551.02
60.0403,499.15,552.22
60.0603,498.32,552.78
60.0805,498.85,552.42
60.1002,497.48,551.74
60.1205,497.59,551.19
60.1404,497.07,550.15
60.1605,496.46,550.12
60.1805,496.76,549.9
60.2006,496.01,550.12
60.2204,497.41,549.89
60.2404,497.93,549.92
60.2604,498.34,549.93
60.2805,497.27,549.55
60.3005,497.22,549.64
60.3204,495.78,548.71
60.3406,497.02,548.57
60.3605,496.42,547.85
60.3805,495.13,548.28
60.4006,495.71,548.03
60.4205,494.77,548.82
60.4404,494.41,548.46
60.4605,494.93,547.97
60.4807,494.14,547.77
60.5005,494.71,547.22
60.5206,494.77,546.77
60.5405,494.62,545.82
60.5605,494.69,545.46
60.5806,495.16,545.96
60.6004,495.92,546.77
60.6206,496.54,547.42
60.6406,495.43,548.53
60.6605,495.15,548.43
60.6804,494.52,548.34
60.7002,494.21,548.47
60.7207,493.57,548.38
60.7405,494.26,548.5
60.7605,494.21,548.8
60.7804,494.96,549.24
60.8004,493.97,549.59
60.8205,494.18,549.47
60.8406,495.54,550.18
60.8605,496.63,551.14
60.8805,496.71,551.52
60.9004,496.17,551.21
60.9206,496.53,550.97
60.9405,495.63,551.18
60.9605,494.1,551.14
60.9805,494.08,550.11
61.0005,494.06,549.49
61.0202,493.45,548.99
61.0404,493.56,548.79
61.0604,494.45,548.83
61.0804,494.56,549.27
61.1003,497.85,549.61
61.1205,507.68,552.89
61.1405,523.54,558.91
61.1605,544.63,566.33
61.1805,567.91,576.06
61.2004,590.33,583.85
61.2208,611.66,590.88
61.2405,629.13,596.3
61.2605,642.9,600.44
61.2805,652.12,601.16
61.3004,655.9,600.72
61.3205,653.72,595.58
61.3405,649.17,588.26
61.3604,641.34,579.81
61.3805,630.27,573.25
61.4004,618.82,566
61.4207,606.85,558.6
61.4405,595.48,552.08
61.4605,583.39,546.86
61.4805,572.91,542.89
61.5005,563.53,540.51
61.5205,555.02,539.81
61.5406,548.22,540.05
61.5605,541.77,539.84
61.5805,536.82,540.47
61.6005,531.46,542.38
61.6203,525.76,543.1
61.6405,521.21,543.68
61.6604,517.37,543.54
61.6805,514.1,542.64
61.7003,511.48,541.11
61.7203,508.58,541.29
61.7403,507.06,541.63
61.7602,505.65,541.3
61.7805,504.32,541.24
61.8003,502.46,542.39
61.8204,500.97,542.12
61.8405,500.37,543.09
61.8605,499.9,542.67
61.8806,498.32,542.74
61.9002,498.05,543.39
61.9202,498.64,544.11
61.9405,497.92,545.49
61.9604,497.13,546.19
61.9804,497.71,546.95
62.0002,497.96,546.96
62.0205,497.37,546.77
62.0403,497.7,546.82
62.0603,497.96,547.25
62.0805,496.37,547.2
62.1004,496.69,547.76
62.1204,497.35,547.81
62.1405,496.88,547.45
62.1602,496.11,547.56
62.1805,495.89,547.45
62.2005,495.71,547.56
62.2204,494.77,547.25
62.2404,494.41,546.8
62.2604,495.13,547.64
62.2805,494.9,547.31
62.3002,494.32,547.45
62.3204,494.26,547.16
62.3405,493.61,547.13
62.3603,493.09,548.3
62.3813,493.87,549.04
62.4023,489.69,551.03
62.4224,480.36,553.83
62.4424,465.28,554.26
62.4625,444.63,551.81
62.4825,421.7,549.05
62.5024,398.76,545.24
62.5225,377.41,539.79
62.5424,357.53,531.83
62.5625,341.02,523.67
62.5825,332.62,518.33
62.6024,332.89,515.27
62.6225,337.32,515.41
62.6425,346.85,515.93
62.6624,357.88,516.94
62.6824,369.11,518.56
62.7025,379.68,521.44
62.7224,391.15,524.76
62.7435,401.92,527.6
62.7636,411.53,529.88
62.7835,421.03,532.91
62.8035,428.62,536.13
62.8234,436.3,538.3
62.8433,443.84,539.84
62.8635,449.87,543.07
62.8834,455.1,545.26
62.9035,459.28,547.01
62.9234,463.22,548.4
62.9433,466.18,548.92
62.9634,469.34,549.74
62.9835,472.47,549.59
63.0034,475.18,549.47
63.0235,477.54,549.18
63.0434,480.03,549.54
63.0634,481.43,549.83
63.0833,482.34,550.47
63.1035,482.67,550.57
63.1235,483.94,551.86
63.1434,484.55,553.09
63.1635,486.24,553.27
63.1834,487.79,554.62
63.2032,486.63,555.09
63.2233,486.71,554.87
63.2433,485.97,556.1
63.2634,486.37,556.68
63.2832,486.5,556.34
63.3046,486,556.47
63.3244,486,556.58
63.3444,485.8,555.86
63.3644,485.84,555.89
63.3843,485.67,556.11
63.4045,485.14,556.29
63.4243,485.11,556.03
63.4442,485.49,555.63
63.4644,484.99,555.7
63.4842,485.19,556.96
63.5044,485.95,557.97
63.5244,486.76,557.97
63.5444,487.41,558.78
63.5643,488.13,558.02
63.5846,489.1,558.82
63.6044,489.08,558.86
63.6244,489.27,558.88
63.6444,489.41,558.71
63.6643,489.53,558.17
63.6842,489.02,556.93
63.7045,488.42,556.15
63.7244,487.94,556.52
63.7445,487.95,556.81
63.7645,487.76,556.45
63.7846,488.81,556.96
63.8045,489.65,557.37
63.8245,489.92,558.29
63.8444,490.53,558.44
63.8644,490.23,558.15
63.8845,490.18,558.92
63.9042,489.14,559.94
63.9241,488.32,559.55
63.9443,488.25,559.44
63.9643,487.6,558.55
63.9845,487.08,557.04
64.0042,487.07,557.03
64.0243,487.85,556.63
64.0443,488.28,556.3
64.0643,488.83,556.64
64.0842,489.26,556.71
64.1043,490.21,556.77
64.1243,490.17,557.02
64.1445,489.33,556.41
64.1644,488.67,556.73
64.1847,488.53,556.38
64.2045,488.43,556.11
64.2243,488.14,555.49
64.2445,488.91,556.79
64.2644,488.33,557.03
64.2843,488.66,557.22
64.3045,489.53,556.18
64.3244,488.63,555.54
64.3444,487.5,555.84
64.3643,487.2,555.47
64.3846,487.56,555.77
64.4045,487.25,556.22
64.4244,487,555.58
64.4445,487,555.46
64.4643,486.6,556.17
64.4844,486.68,555.73
64.5044,487.14,555.79
64.5245,487.51,556.23
64.5444,488.61,556.38
64.5643,489.29,556.31
64.5844,489.03,556.45
64.6044,489.23,556.76
64.6243,489.18,556.61
64.6442,489.34,557.08
64.6643,488.68,556.87
64.6842,489.14,557.89
64.7043,489.51,557.72
64.7242,488.21,557.17
64.7453,487.77,557.14
64.7653,487.61,557.11
64.7852,487.89,557.29
64.8055,487.51,557.23
64.8255,488.01,557.18
64.8454,489.21,556.15
64.8653,489.17,557.32
64.8854,489.53,557.65
64.9053,490.23,557.12
64.9253,489.18,557.9
64.9454,488.75,557.52
64.9653,488.4,556.82
64.9854,486.32,557.25
65.0055,486.45,557.2
65.0254,486.56,557.96
65.0454,486.85,557.97
65.0653,487.28,558.58
65.0855,487.82,558.06
65.1053,488.26,557.85
65.1253,488.81,556.88
65.1454,489.45,556.3
65.1653,488.96,555.84
65.1855,488.37,555.67
65.2053,487.69,555.94
65.2253,487.95,556.15
65.2453,487.56,555.92
65.2653,487.85,556.14
65.2856,489.28,556.11
65.3055,489.42,556.69
65.3254,492.94,558.75
65.3453,506.75,564.4
65.3653,529.8,573.92
65.3855,557.44,585.74
65.4053,585.35,595.59
65.4254,609.88,603.07
65.4454,628.51,608.06
65.4653,640.6,607.85
65.4856,645.68,605.68
65.5053,645.35,600.14
65.5256,640.28,592.51
65.5454,632.62,586.61
65.5653,623.9,579.49
65.5852,613.72,572.59
65.6051,604.17,567.07
65.6251,593.14,563.06
65.6451,582.91,559.65
65.6652,572.73,556.72
65.6862,563.18,554.37
65.7061,553.35,552.9
65.7262,545.68,552.92
65.7462,537.74,552.14
65.7662,532.39,552.51
65.7862,526.51,552.61
65.8063,521.61,553.09
65.8264,517.09,555.07
65.8464,513.07,555.05
65.8662,510.46,556.24
65.8863,507.97,557.19
65.9064,505.77,557.36
65.9263,502.82,556.68
65.9464,500.85,557.75
65.9662,500.28,558.4
65.9863,498.83,559.32
66.0064,497.86,560.45
66.0263,496.29,560.56
66.0463,496.03,561.45
66.0661,495.03,560.56
66.0861,494.22,560.25
66.1072,493.78,559.6
66.1273,494.02,558.48
66.1474,494.02,558.98
66.1674,493.41,558.39
66.1874,493.33,558.11
66.2073,492.66,557.49
66.2271,493.73,558.39
66.2472,493.19,559.11
66.2671,493.95,559.49
66.2874,492.56,558.99
66.3072,490.25,558.79
66.3273,484.8,558.83
66.3472,474.44,557.47
66.3673,459.35,555.37
66.3874,439.28,552.3
66.4073,417.02,549.04
66.4274,394.22,544.63
66.4473,373.98,538.51
66.4673,355.58,531.8
66.4875,340.86,523.24
66.5074,329.69,516.59
66.5274,325.75,511.28
66.5473,329.2,509.82
66.5675,337.56,509.86
66.5875,349.05,511.29
66.6073,361.04,514.43
66.6273,374.43,518.94
66.6473,386.55,523.55
66.6675,397.84,527.24
66.6874,408.27,530.39
66.7073,419.22,535.12
66.7274,428.57,538.69
66.7475,436.46,541.95
66.7674,444.57,544.36
66.7873,451.25,545.49
66.8075,457.2,546.59
66.8275,461.36,549.47
66.8473,465.49,551.78
66.8675,468.79,552.82
66.8875,472.43,553.86
66.9073,475.75,554.49
66.9273,478.4,554.59
66.9471,480.52,554.27
66.9671,482.61,554.42
66.9874,484.49,554.33
67.0075,486.39,554.87
67.0275,487.71,555.49
67.0471,488.37,555.99
67.0672,489.5,557
67.0873,490,557.2
67.1073,491.6,558.16
67.1273,493.68,557.53
67.1473,494.74,556.62
67.1672,495.39,556.3
67.1883,494.52,556.04
67.2084,494.41,555.43
67.2283,493.73,554.54
67.2482,493.78,555.04
67.2683,494.03,555.03
67.2882,495.42,555.02
67.3082,495.94,555.62
67.3283,496.35,556.09
67.3483,495.88,555.88
67.3684,495.5,555.7
67.3882,495,555.96
67.4082,494.6,556.57
67.4283,494.48,556.25
67.4483,494.39,555.8
67.4684,494.31,555.04
67.4882,494.45,554.63
67.5083,494.36,554.51
67.5284,494.09,553.01
67.5484,493.47,552.6
67.5683,494.18,551.48
67.5885,494.34,550.99
67.6083,494.07,550.79
67.6283,493.06,551.43
67.6483,493.25,552.15
67.6685,492.8,552.52
67.6883,492.44,553.01
67.7083,492.35,552.61
67.7283,492.08,552.09
67.7485,493.46,551.87
67.7686,493.77,552.1
67.7886,493.82,552.28
67.8083,494.05,552.82
67.8283,494.04,553.06
67.8483,493.43,553.25
67.8682,492.55,553.4
67.8882,491.44,552.92
67.9084,491.95,553.33
67.9283,492.96,553.07
67.9483,493.37,552.25
67.9683,492.69,553.2
67.9883,492.36,552.56
68.0083,493.28,552.65
68.0283,493.63,552.92
68.0484,494.7,552.14
68.0682,495.76,552.31
68.0882,497.81,552.05
68.1082,497.65,552.44
68.1284,497.92,552.75
68.1483,498.93,552.4
68.1684,498.55,552.52
68.1883,497.64,552.02
68.2083,497.91,552.41
68.2283,498.53,552.73
68.2484,499.22,552.98
68.2682,499.78,552.19
68.2884,499.62,552.35
68.3083,499.9,551.68
68.3282,499.92,550.54
68.3482,500.13,549.64
68.3683,500.31,549.31
68.3882,501.65,549.85
68.4084,502.32,550.48
68.4284,500.85,551.78
68.4484,501.68,552.23
68.4681,500.95,552.78
68.4881,500.96,553.22
68.5081,499.77,553.78
68.5282,499.21,553.22
68.5482,497.77,553.98
68.5683,497.22,553.18
68.5882,497.37,551.95
68.6084,497.7,550.16
68.6282,497.76,550.33
68.6482,497.01,550.06
68.6681,497.21,550.05
68.6881,497.56,550.44
68.7083,498.45,550.95
68.7283,498.76,550.96
68.7482,498.61,551.57
68.7684,498.69,551.45
68.7881,497.35,552.76
68.8082,497.48,552.81
68.8282,496.98,552.25
68.8484,496.39,552
68.8685,496.51,551.8
68.8883,497.01,551.24
68.9082,496.41,551.19
68.9283,497.12,551.75
68.9482,497.7,552.6
68.9682,497.76,552.08
68.9883,499.01,553.27
69.0082,499.01,553.21
69.0283,497.81,552.37
69.0482,497.64,551.9
69.0683,498.52,551.32
69.0884,498.41,551.25
69.1083,498.33,551.8
69.1282,497.66,551.24
69.1482,497.73,551.59
69.1681,496.78,551.08
69.1882,497.03,550.86
69.2082,496.62,550.69
69.2282,495.9,550.75
69.2483,496.12,550.6
69.2683,495.49,551.28
69.2884,495.2,551.02
69.3082,495.96,551.62
69.3282,495.77,551.3
69.3482,496.41,550.44
69.3682,497.73,549.95
69.388,498.38,549.36
69.4083,499.31,548.69
69.4283,498.25,548.35
69.4481,499,547.88
69.4682,499.2,546.9
69.488,499.36,547.32
69.508,498.49,547.26
69.5281,498.19,547.21
69.5484,498.95,546.97
69.5683,499.36,546.97
69.5883,499.29,546.78
69.6082,498.43,547.02
69.6282,498.74,547.42
69.6482,498.6,546.93
69.6681,498.28,547.35
69.6883,497.62,547.08
69.7084,497.9,546.06
69.7284,497.12,545.85
69.748,496.29,546.88
69.7682,496.04,547.3
69.7881,495.83,547.04
69.808,495.26,546.83
69.8282,496.61,546.87
69.8481,496.29,547.09
69.868,496.43,547.48
69.888,496.54,547.78
69.9092,506.44,552.62
69.9293,525.15,559.3
69.9493,550.72,569.84
69.9691,577.17,580.47
69.9892,604.14,589.38
70.0092,625.91,595.1
70.0291,642.13,597.08
70.0491,652.7,596.47
70.0692,657.96,593.77
70.0892,656.97,588.62
70.1092,651.58,582.49
70.1291,644.86,578.2
70.1493,635.49,572.76
70.1693,625.19,568.2
70.189,613.15,564.96
70.2091,602.32,562.77
70.2291,591.66,560.22
70.2493,580.93,558.17
70.2693,571.74,557.14
70.2891,561.99,555.91
70.3092,554.59,554.53
70.3291,547.08,553.62
70.3503,539.46,553.7
70.3702,533.37,552.76
70.39,527.09,552.41
70.4102,523.08,551.73
70.4302,521.06,549.98
70.4505,518.65,548.38
70.4702,516.72,547.11
70.4902,514.97,546.69
70.5102,512.98,548.35
70.5302,511.58,547.68
70.55,509.27,547.54
70.5702,506.41,546.63
70.5902,504.93,546.31
70.6103,504.34,547.25
70.6303,502.28,547.8
70.6502,501.82,548.64
70.6702,501.06,549.91
70.6902,500.45,550.13
70.7102,499.36,550.1
70.7301,498.08,550.08
70.7502,497.87,550.07
70.7701,497.29,550.85
70.7902,496.64,550.88
70.8102,496.91,551.71
70.8302,496.13,552.16
70.85,495.5,551.33
70.8703,495.8,551.87
70.8902,495.84,552.69
70.9102,496.07,552.95
70.9302,496.66,552.76
70.9502,496.93,552.01
70.9703,496.14,551.41
70.9902,496.71,550.73
71.0102,494.37,551.38
71.0302,485.3,550.51
71.0502,467.64,545.6
71.0701,442.31,536.88
71.0902,413.05,525.31
71.1102,384.64,513.45
71.1304,358.51,504.56
71.1501,340.81,498.24
71.1702,336.05,496
71.1902,337.64,497
71.2102,344.11,498.8
71.2303,353.89,502.64
71.2502,365.71,506.31
71.2701,377.97,510.05
71.2902,389.97,514.24
71.3102,400.78,518.59
71.3303,411.22,521.67
71.3501,421.38,525.54
71.3703,431.1,528.63
71.3901,439.88,531.3
71.411,447.11,533.44
71.431,452.48,535.95
71.451,458.39,538.16
71.471,463.11,539.73
71.491,467.29,540.98
71.511,470.83,542.19
71.531,474.06,543.75
71.551,476.65,545.2
71.571,478.52,546.56
71.5909,481.02,548.05
71.6112,482.81,548.44
71.6312,484.45,549.55
71.6511,485.96,549.64
71.6711,488.37,550.51
71.691,489.29,550.61
71.7113,490.44,550.49
71.7311,491.15,549.99
71.7511,491.32,549.19
71.7714,491.26,548.55
71.7911,491.6,548.44
71.8112,492.28,549.15
71.8312,491.43,549.32
71.8512,490.94,548.86
71.8712,490.55,548.49
71.8912,490.84,547.19
71.9113,491.27,547.75
71.931,492.02,548.2
71.9511,492.22,549.56
71.9712,491.97,549.25
71.9911,492.18,548.8
72.0112,492.54,548.44
72.031,492.43,547.75
72.051,491.75,548.2
72.0713,491.4,549.36
72.0911,491.92,549.69
72.1111,492.53,550.95
72.1309,492.83,551.16
72.151,492.86,550.13
72.1711,492.69,549.1
72.191,493.75,548.48
72.211,493,548.79
72.231,492.6,549.83
72.251,492.48,550.46
72.271,492.18,550.37
72.2911,492.35,550.7
72.3111,491.88,550.76
72.3311,492.1,551.41
72.3511,491.48,550.92
72.3713,491.99,551.54
72.3912,492.59,551.83
72.4112,493.67,552.27
72.4311,494.54,552.41
72.4512,495.43,552.53
72.4712,495.34,552.22
72.4911,494.87,552.58
72.5112,494.1,553.06
72.5312,493.28,553.85
72.5512,492.62,554.28
72.5712,493.9,553.62
72.5912,495.32,553.7
72.6111,495.86,554.16
72.6312,497.08,553.53
72.651,496.07,552.62
72.6713,495.65,552.3
72.6911,495.32,551.24
72.7112,494.26,551.59
72.731,493.41,551.47
72.756,492.93,550.78
72.7712,492.14,551.02
72.791,492.51,551.02
72.8112,492.41,553.41
72.8312,495.73,557.73
72.8511,493.38,566.79
72.8711,491.91,583.63
72.8912,486.52,603.1
72.911,477.42,623.88
72.9311,467.14,641.51
72.951,457.91,652.8
72.9711,447.13,650.04
72.9912,437.9,635.03
73.0112,431.12,608.43
73.0321,427.7,575.14
73.0521,429.76,547.71
73.0721,433.41,525.17
73.0921,437.72,508.74
73.1122,442.58,498.59
73.1321,447.26,490.87
73.152,452.81,486.1
73.1721,458.65,486.28
73.1922,465.12,487.82
73.2131,469.9,491.46
73.2332,475.52,494.57
73.2532,480.21,502.25
73.2731,482.97,507
73.2931,491.58,506.6
73.3132,497.66,508.88
73.3332,502.73,513.31
73.3533,505.38,518.64
73.3732,506.91,524.12
73.393,505.33,534.69
73.4131,505.66,539.55
73.4332,504.33,547.24
73.4532,503.86,546.19
73.4731,501.89,550.16
73.4931,499.91,559.52
73.513,497.93,562.22
73.533,495.54,558.18
73.5529,493.03,567.94
73.573,493.43,556.95
73.5929,497.74,543.56
73.6129,496.59,547.45
73.6329,497.88,542.76
73.6529,497.7,550.61
73.6731,497.96,555.09
73.6931,498.57,551.27
73.714,492.45,556.82
73.7349,486.56,564.25
73.7549,481.45,558.4
73.775,474.36,558.12
73.795,475.69,572.3
73.815,472.15,570.64
73.835,473.32,588.31
73.8551,476.46,576.45
73.8759,477.57,558.56
73.896,476.65,566.25
73.916,480.12,563
