Program Time [s],data 0,data 1
8.97371,410.35,517.33
8.99352,410.68,517.46
9.01372,412.74,520.57
9.03369,412.79,522.46
9.05362,411.83,521.37
9.07461,414.87,523.69
9.09464,409.49,517.95
9.11468,408.4,515.96
9.13467,407.12,512.17
9.15471,403.49,508.34
9.17468,406.19,515.07
9.19471,404.96,512.86
9.21472,406.96,519.28
9.23472,408.17,518.63
9.25464,408.34,516.1
9.27476,406.07,516.68
9.29471,403.66,511.55
9.31457,400.72,507.44
9.33472,402.78,515.75
9.35476,401.82,515.4
9.37559,399.66,510.92
9.39557,399.53,513.74
9.41581,400.62,517.59
9.43655,402.3,517.07
9.45652,402.44,516.66
9.47667,400.75,516.13
9.49657,401.8,514.7
9.51674,401.84,512.76
9.5365,403.27,516.01
9.55666,402.02,511.01
9.57669,403.41,513.41
9.5967,402.53,510.92
9.61673,404.43,517.14
9.63659,405.34,520.11
9.65653,407.07,521.89
9.6769,410.86,528.11
9.69651,408.49,524.49
9.71667,409.79,523.99
9.7365,410.43,527.79
9.75678,409.34,522.83
9.77656,408.48,522.07
9.79674,410.58,522.65
9.81667,412.66,524.12
9.83673,413.73,525.7
9.8568,412.79,524.16
9.87666,412.63,522.93
9.89673,412.3,524.74
9.91665,413.24,523.39
9.93662,414.59,520.71
9.95654,413.87,521.17
9.97677,412.9,519.74
9.99675,412.52,517.39
10.0167,413.82,517.51
10.0366,413.65,517.81
10.0568,414.52,517.05
10.0767,413.82,515.24
10.0967,411.25,513.99
10.1167,417.6,516.19
10.1366,432.48,523.95
10.1565,452.59,535.36
10.1767,476.47,548.69
10.1967,502.58,559.35
10.2166,524.26,561.28
10.2366,544.01,566.23
10.2567,556.61,563.58
10.2767,563.09,557.06
10.2967,564.67,549.45
10.3168,563.53,541.36
10.3368,556.23,532.09
10.3566,548.58,524.27
10.3775,539.47,516.02
10.3976,529.57,510.41
10.4177,520.06,507.93
10.4378,510.45,504.74
10.4576,499.16,501.6
10.4777,490.53,502.28
10.4975,481.62,502.02
10.5176,471.9,499.82
10.5378,463.72,498.05
10.5576,459.17,501.24
10.5776,453.94,504.59
10.5977,449.15,502.48
10.6176,442.92,501.58
10.6377,440.14,502.46
10.6586,436.51,504.77
10.6787,434.01,508.42
10.6987,430.61,506.13
10.7185,428.88,508.11
10.7387,427.71,510.29
10.7587,427.97,515.23
10.7787,426.97,516.18
10.7986,425.58,516.35
10.8186,425.06,517.68
10.8395,423.45,518.54
10.8596,423.96,521.03
10.8806,424.17,522.03
10.9015,424.53,521.22
10.9218,422.63,521.18
10.9417,420.7,521.54
10.9625,419.16,519.23
10.9826,418.73,518.79
11.0035,417.98,520.23
11.0236,416.79,521.18
11.0446,416.03,520.55
11.0645,413.82,519.44
11.0847,410.66,519.95
11.1055,409.53,520.16
11.1256,408.62,518.73
11.1466,407.9,519.98
11.1666,404.32,522.79
11.1868,393.65,522.83
11.2066,378.32,526.46
11.2266,356.66,524.17
11.2466,335.13,518.34
11.2667,313.5,513.47
11.2867,291,505.58
11.3067,272.8,501.86
11.3266,258.44,494.69
11.3466,255.35,491.55
11.3665,256.48,488.84
11.3867,263.39,489.07
11.4066,272.71,488.46
11.4266,282.57,488.57
11.4466,292.85,487.65
11.4666,305.28,490.72
11.4866,318.03,494.58
11.5066,328.02,497.06
11.5266,334.82,495.85
11.5466,342.65,500.88
11.5665,350.32,502.3
11.5865,357.86,503.64
11.6065,364.49,502.51
11.6267,370.99,505.61
11.6467,376.39,507.49
11.6666,379.31,507.99
11.6866,383.65,510.19
11.7067,386.52,511.95
11.7265,389.62,514.16
11.7466,392.69,515.33
11.7667,394.35,516.26
11.7865,396.08,516.61
11.8066,397.27,516.69
11.8265,398.41,517.15
11.8466,400.53,517.32
11.8666,400.82,516.06
11.8865,401.86,517.25
11.9067,402.69,518.2
11.9266,402.75,519.16
11.9466,401.8,517.33
11.9665,403.04,516.86
11.9865,403.23,518.49
12.0065,404.19,518.59
12.0266,403.55,518.87
12.0465,403.64,519.7
12.0665,404.31,520.96
12.0865,404.45,521.17
12.1067,404.96,521.73
12.1266,404.37,521.79
12.1466,404.89,522.03
12.1666,404.52,522.22
12.1867,404.61,522.18
12.2067,404.29,522.34
12.2266,404.43,523.07
12.2466,404.35,522.86
12.2666,404.48,522.89
12.2866,403.78,521.31
12.3067,404.02,520.65
12.3266,404.02,519.12
12.3467,403.02,517.09
12.3666,403.41,515.68
12.3866,403.73,515.34
12.4066,403.58,513.67
12.4266,404.27,513.74
12.4465,404.01,512.39
12.4666,404.21,512.71
12.4866,404.57,512.17
12.5065,405.46,512.54
12.5266,404.96,512.83
12.5467,405.57,511.86
12.5666,405.66,512.29
12.5865,405.13,511.63
12.6067,405.3,512.11
12.6267,405.24,511.68
12.6466,403.99,511.35
12.6666,404.19,510.88
12.6866,404.76,511.1
12.7065,405.4,512.08
12.7266,403.92,511.47
12.7467,404.34,511.17
12.7666,405.47,511.94
12.7868,404.58,512.15
12.8067,404.66,513.12
12.8267,404.93,513.3
12.8467,404.94,514.84
12.8667,404.55,515.47
12.8866,404.84,516.78
12.9068,405.47,517.22
12.9266,405.78,517.38
12.9466,406.02,517.7
12.9666,406.62,517.16
12.9865,404.9,516.93
13.0066,403.72,516.74
13.0267,403.77,516.79
13.0467,402.82,516.84
13.0667,402.65,515.47
13.0865,402.92,514.37
13.1066,401.74,514.5
13.1266,402.39,515.2
13.1466,402.91,515.76
13.1666,401.53,516.21
13.1878,399.82,516.77
13.2076,400.26,516.81
13.2276,400.41,516.45
13.2474,401.73,515.96
13.2684,401.98,515.57
13.2886,403.38,514.65
13.3085,403.71,514.52
13.3297,404.97,514.82
13.3495,406.37,515.26
13.3695,407.7,516.8
13.3904,408.76,516.84
13.4105,409.21,517.07
13.4308,410.17,517.86
13.4506,415.53,520.89
13.4706,429.23,526.71
13.4907,450.38,539.57
13.5107,475.1,554.45
13.5306,502.08,566.36
13.5507,525.87,573.49
13.5706,544.89,575.79
13.5907,558.51,573.83
13.6105,564.81,567.27
13.6305,566.05,558.21
13.6506,564.44,546.97
13.6705,558.55,535.58
13.6905,550.64,525.06
13.7107,540.51,515.25
13.7307,531.21,507.2
13.7507,520.57,500.76
13.7708,509.85,496.41
13.7906,499.88,494.33
13.8107,490.91,493.06
13.8307,481.93,493.05
13.8507,473.74,494.44
13.8705,466.39,496.15
13.8906,459.11,497.12
13.9107,453.29,498.3
13.9305,447.63,500.84
13.9506,443.91,502.47
13.9705,439.53,503.78
13.9906,436.02,505.22
14.0106,433.42,506.98
14.0306,430.33,507.78
14.0506,428.47,509.63
14.0704,426.17,511.3
14.0906,425.54,512.24
14.1105,425.03,513.19
14.1306,424.22,513.35
14.1505,422.98,514.28
14.1707,422.78,514.63
14.1906,421.83,514.9
14.2105,421.26,515.12
14.2306,421.01,515.1
14.2506,421.21,515.08
14.2706,421.57,515.46
14.2906,421.25,515.57
14.3107,420.6,515.26
14.3308,420.28,515.4
14.3506,420.43,515.52
14.3707,417.94,517.02
14.3907,413.95,517.82
14.4106,406.96,517.45
14.4308,396.37,515.76
14.4504,384.7,515.81
14.4707,368.16,515.85
14.4905,347.73,514.68
14.5108,324.18,511.74
14.5307,301.54,505.79
14.5506,280.44,498.64
14.5706,265.15,491.91
14.5906,259.92,487.33
14.6107,261.93,485.46
14.6304,268.35,484.77
14.6506,278.48,484.82
14.6706,289.18,485.65
14.6905,300.15,487.52
14.7107,311.72,489.82
14.7306,324.17,492.25
14.7506,334.74,494
14.7705,344.99,496.2
14.7906,354.19,498.56
14.8106,362.75,500.85
14.8305,369.8,503.48
14.8507,376.04,504.58
14.8707,382.03,505.87
14.8906,387.63,508.29
14.9106,394.1,510.43
14.9306,399.28,511.55
14.9506,403.23,512.44
14.9704,406.18,512.95
14.9906,409.14,513.96
15.0106,410.92,514.57
15.0306,412.33,515.05
15.0506,414.27,515.24
15.0707,415.41,515.6
15.0907,415.33,515.48
15.1105,415.86,515.98
15.1306,417.29,516.98
15.1505,418.23,517.79
15.1706,418.39,517.43
15.1906,418.51,517.14
15.2106,418.41,517.92
15.2306,418.93,518.13
15.2506,419.54,518.11
15.2708,419.83,518.08
15.2905,419.27,518.67
15.3106,419.01,518.53
15.3305,419.61,518.23
15.3506,419.49,518.38
15.3706,419.19,518.51
15.3906,419.15,518.6
15.4106,418.72,518.48
15.4306,419.18,518.59
15.4506,418.94,518.67
15.471,418.75,518.54
15.4906,419.2,518.03
15.5106,420.16,518.02
15.5306,419.73,518.02
15.5508,419.38,518.21
15.5706,419.11,517.97
15.5904,419.89,517.98
15.6105,420.91,517.18
15.6305,420.93,517.15
15.6504,420.54,516.92
15.6706,419.43,517.73
15.6905,419.15,517.99
15.7106,418.72,518.19
15.7306,417.97,517.55
15.7504,416.98,517.24
15.7706,416.58,516.99
15.7905,417.27,516.99
15.8106,417.81,517
15.8306,417.85,517.4
15.8506,417.08,517.72
15.8707,417.46,517.77
15.8906,417.77,518.42
15.9106,418.22,518.94
15.9305,418.97,518.75
15.9506,419.18,519.4
15.9706,418.94,519.92
15.9906,418.95,519.34
16.0105,418.76,519.67
16.0304,418.01,519.33
16.0506,417.21,519.07
16.0707,417.37,518.85
16.0905,417.09,519.28
16.1106,417.07,518.63
16.1306,417.46,518.5
16.1506,417.57,519
16.1706,416.85,519
16.1906,417.08,518.6
16.2106,417.47,518.48
16.2306,418.17,518.38
16.2505,418.94,518.31
16.2708,419.35,517.45
16.2906,418.28,516.76
16.3106,417.02,516.21
16.3305,417.22,515.76
16.3506,416.78,514.41
16.3709,416.42,513.53
16.3906,415.94,514.02
16.4107,415.75,513.22
16.4306,416.2,513.17
16.4506,415.76,512.34
16.4704,415.41,511.07
16.4906,416.13,510.26
16.5106,415.9,511.01
16.5306,415.72,512
16.5505,415.38,513.8
16.5706,421.7,518.04
16.5906,439.36,526.03
16.6106,464.69,539.83
16.6306,493.55,553.06
16.6506,521.04,560.45
16.6705,542.63,562.36
16.6906,557.51,561.09
16.7107,565.6,556.67
16.7306,569.08,549.54
16.7506,567.87,541.63
16.7707,562.89,532.7
16.7905,555.71,525.96
16.8106,546.77,519.57
16.8306,536.02,514.26
16.8506,525.41,510.8
16.8708,515.53,507.44
16.8906,506.23,505.76
16.9106,496.38,505.6
16.9307,486.5,505.88
16.9505,477.6,506.71
16.9703,469.28,508.17
16.9906,462.23,509.73
17.0103,455.98,511.19
17.0305,450.38,512.55
17.0504,445.71,514.24
17.0703,441.17,515.39
17.0905,436.73,516.11
17.1105,433.79,517.09
17.1305,431.63,518.27
17.1506,429.7,519.22
17.1706,427.36,519.17
17.1906,425.89,518.74
17.2106,425.71,519.39
17.2305,424.17,519.11
17.2506,423.14,518.69
17.2706,422.11,519.15
17.2903,421.29,519.72
17.3106,420.83,519.58
17.3305,420.46,518.46
17.3505,419.77,518.77
17.3706,418.62,519.42
17.3904,417.49,520.13
17.4105,417.39,520.51
17.4306,416.72,521.4
17.4506,416.37,521.32
17.4706,416.5,521.66
17.4906,416.6,522.33
17.5106,412.28,522.86
17.5305,402.02,525.49
17.5507,383.42,527.79
17.5707,358.93,528.03
17.5904,332.95,526.03
17.6104,307.36,522.22
17.6306,284.49,516.58
17.6505,267.79,509.86
17.6703,260.83,504.29
17.6906,261.07,500.83
17.7103,266.05,498.87
17.7305,274.44,498.29
17.7505,284.55,497.23
17.7705,295.84,498.19
17.7905,307.27,499.95
17.8106,317.82,501.96
17.8306,328.26,504.77
17.8506,338,506.81
17.8707,347.6,508.45
17.8904,355.88,509.96
17.9104,363.31,510.57
17.9303,371.64,511.86
17.9503,377.92,512.28
17.9704,383.33,513.03
17.9905,388.87,513.42
18.0106,392.09,513.94
18.0306,394.87,513.75
18.0505,398.1,513
18.0704,400.28,512.4
18.0906,402.22,512.72
18.1105,403.58,513.58
18.1306,405.46,514.46
18.1505,406.37,514.97
18.1703,407.1,515.37
18.1904,407.88,515.9
18.2105,407.9,516.12
18.2303,408.12,516.3
18.2506,407.5,516.64
18.2706,407.4,517.51
18.2905,406.92,518.21
18.3106,407.73,519.17
18.3306,407.19,519.93
18.3504,406.95,520.15
18.3705,407.56,519.92
18.3905,408.05,519.73
18.4105,408.04,518.59
18.4305,408.83,517.47
18.4506,408.66,515.98
18.4706,408.33,514.98
18.4905,408.27,513.78
18.5105,408.81,512.43
18.5306,409.65,511.94
18.5506,409.72,511.35
18.5704,408.98,512.28
18.5905,408.38,513.23
18.6105,408.9,513.58
18.6306,409.32,514.46
18.6506,409.46,514.37
18.6706,409.17,514.9
18.6906,409.53,516.12
18.7106,409.23,516.69
18.7307,408.78,517.56
18.7505,408.23,518.24
18.7708,407.78,518
18.7905,408.22,517.4
18.8105,408.38,516.72
18.8307,407.5,516.37
18.8506,407.2,516.5
18.8704,407.76,516.2
18.8905,407.41,515.96
18.9105,406.93,515.77
18.9307,406.34,515.41
18.9505,407.27,515.73
18.9706,407.22,515.98
18.9906,406.98,515.59
19.0105,406.78,515.87
19.0305,407.22,515.7
19.0505,406.98,515.96
19.0706,407.38,515.97
19.0906,407.31,516.57
19.1105,407.65,517.26
19.1305,407.92,517.21
19.1503,408.13,517.37
19.1705,407.51,517.89
19.1906,407.21,517.51
19.2105,406.76,517.21
19.2306,406.61,517.57
19.2504,406.89,517.85
19.2702,406.51,517.88
19.2906,406.61,517.51
19.3106,406.69,516.81
19.3307,406.55,516.84
19.3506,405.84,516.88
19.3708,405.87,516.9
19.3906,406.5,516.72
19.4105,406.4,516.98
19.4306,405.92,517.18
19.4507,406.33,517.14
19.4706,406.47,516.92
19.4904,406.97,517.13
19.5107,406.78,517.31
19.5306,407.42,518.04
19.5505,407.74,518.04
19.5703,408.19,518.23
19.5905,407.75,517.18
19.6105,407,516.95
19.6305,406.4,516.96
19.6505,406.12,517.37
19.6708,405.3,517.69
19.6906,405.24,517.95
19.7105,405.19,517.76
19.7307,405.15,518.01
19.7506,405.32,518.01
19.7707,404.66,518.01
19.7905,404.73,517.61
19.8106,404.18,517.68
19.8306,404.54,517.35
19.8505,404.84,516.68
19.8706,404.27,516.54
19.8905,404.81,515.83
19.9105,405.65,515.27
19.9304,405.92,514.81
19.9505,405.54,514.85
19.9704,404.43,514.68
19.9906,403.94,513.74
20.0105,402.76,514.2
20.0306,409,516.56
20.0505,425.4,523.85
20.0705,449.92,535.68
20.0905,477.34,548.74
20.1103,504.67,559.19
20.1305,527.54,564.75
20.1504,544.63,564
20.1702,554.9,557.4
20.1905,559.52,548.52
20.2105,557.22,537.62
20.2303,551.77,526.89
20.2503,544.22,518.12
20.2702,533.18,509.29
20.2903,522.34,502.03
20.3104,511.27,498.63
20.3304,499.62,495.3
20.3504,489.89,493.04
20.3703,480.92,492.63
20.3905,472.93,492.91
20.4105,464.15,494.73
20.4305,456.72,496.38
20.4504,449.77,498.5
20.4702,442.82,500.2
20.4905,437.25,501.96
20.5103,433.4,502.97
20.5305,428.72,504.38
20.5504,425.58,506.7
20.5704,423.26,507.96
20.5905,421.01,509.57
20.6105,418.41,510.45
20.6305,416.13,511.56
20.6505,413.3,513.25
20.6706,412.04,513.8
20.6904,410.63,514.84
20.7105,409.91,515.47
20.7304,408.92,516.38
20.7505,407.94,516.1
20.7707,407.35,515.68
20.7903,406.28,515.95
20.8106,406.23,516.16
20.8305,406.38,516.73
20.8505,405.5,516.78
20.8702,405,518.02
20.8905,402,521.22
20.9106,394,527.78
20.9306,382,534.82
20.9506,365.4,540.06
20.9705,346.32,542.24
20.9904,327.06,539
21.0104,306.85,531.6
21.0304,287.88,519.28
21.0504,272.1,504.82
21.0702,260.28,491.46
21.0904,256.82,482.17
21.1105,260.06,477.93
21.1305,266.45,476.35
21.1504,275.76,476.88
21.1703,286.41,478.5
21.1904,297.53,480.8
21.2105,309.02,484.24
21.2305,319.62,486.99
21.2504,329.49,490.19
21.2705,339.39,492.96
21.2905,347.52,495.56
21.3104,355.61,497.65
21.3304,360.89,502.72
21.3505,366.91,505.78
21.3703,371.53,507.62
21.3905,377.02,509.5
21.4104,381.82,511
21.4306,385.06,512.2
21.4505,387.24,513.36
21.4707,390.2,514.09
21.4904,392.76,514.47
21.5105,394.8,514.98
21.5305,396.24,515.18
21.5504,398.2,514.94
21.5705,400.36,513.96
21.5905,402.28,514.16
21.6104,403.23,514.33
21.6304,403.18,514.67
21.6504,403.75,514.73
21.6704,404.2,515.99
21.6905,404.36,515.99
21.7104,404.89,516.59
21.7306,405.71,516.07
21.7504,406.17,516.06
21.7704,406.13,516.45
21.7905,406.71,516.76
21.8105,408.17,517.01
21.8304,408.53,516.2
21.8504,408.43,514.96
21.8706,408.34,513.57
21.8905,408.47,513.66
21.9105,407.98,513.13
21.9304,407.58,513.7
21.9504,407.27,513.96
21.9707,407.01,513.17
21.9904,407.41,512.53
22.0106,408.33,511.83
22.0304,408.66,512.06
22.0504,408.33,512.25
22.0704,408.46,512.6
22.0904,408.17,512.88
22.1105,408.34,513.1
22.1304,409.27,513.68
22.1504,409.62,513.95
22.1703,409.49,514.16
22.1904,409.59,514.53
22.2105,409.88,515.42
22.2305,409.9,515.74
22.2505,410.32,515.39
22.2705,409.66,515.31
22.2904,409.72,515.65
22.3105,409.98,516.12
22.3303,409.38,516.3
22.3505,409.71,516.24
22.3703,408.97,516.59
22.3904,408.77,517.27
22.4103,408.82,517.22
22.4303,408.25,517.37
22.4503,408.8,517.5
22.4702,409.44,517.4
22.4903,410.35,517.52
22.5104,410.48,517.22
22.5302,410.59,517.57
22.5502,410.67,517.26
22.5703,411.34,517.21
22.5903,410.87,517.37
22.6103,411.29,517.29
22.6303,411.44,516.63
22.6503,410.95,516.11
22.6703,411.16,516.09
22.6902,410.93,515.07
22.7102,411.54,514.65
22.7302,411.03,514.52
22.7502,410.83,514.82
22.7702,410.86,514.86
22.7902,410.49,514.88
22.8102,410.39,515.11
22.8304,409.51,514.29
22.8504,408.61,514.43
22.8704,408.69,514.74
22.8905,408.15,514.79
22.9105,407.92,515.44
22.9305,408.54,515.55
22.9504,409.43,515.44
22.9705,410.94,515.35
22.9902,411.35,515.68
23.0102,411.88,515.74
23.0302,411.71,515.6
23.0502,411.97,516.08
23.0702,412.57,516.06
23.0904,412.86,516.25
23.1104,412.49,515.8
23.1305,412.19,515.84
23.1504,411.55,515.47
23.1704,412.64,514.98
23.1904,413.91,514.58
23.2104,413.93,514.67
23.2305,414.14,514.73
23.2504,413.72,514.59
23.2702,413.57,513.67
23.2905,412.66,512.93
23.3102,413.13,512.95
23.3302,413.3,512.96
23.3504,414.44,513.17
23.3703,414.35,513.13
23.3902,414.88,513.31
23.4103,414.71,512.85
23.4303,414.56,513.48
23.4502,415.05,513.98
23.4703,414.04,514.98
23.4902,421.43,517.39
23.5102,437.95,522.51
23.5302,462.16,529.01
23.5502,487.73,534.41
23.5705,511.38,536.73
23.5904,530.3,536.38
23.6106,543.44,535.7
23.6306,552.75,533.36
23.6504,558.2,530.29
23.6704,557.56,526.23
23.6903,554.45,522.39
23.7103,548.96,519.11
23.7303,541.17,517.89
23.7502,531.93,515.71
23.7704,522.75,514.17
23.7904,513.8,514.13
23.8104,505.44,513.31
23.8303,496.15,513.25
23.8503,486.32,514.2
23.8705,478.26,514.96
23.8902,471.01,513.97
23.9103,464.6,514.17
23.9303,458.48,514.54
23.9502,453.39,514.43
23.9704,449.71,514.34
23.9904,444.97,514.88
24.0104,439.57,515.3
24.0303,435.66,516.04
24.0504,432.53,516.83
24.0701,430.22,516.67
24.0905,428.58,516.73
24.1104,427.06,516.99
24.1304,426.05,517.19
24.1503,423.84,517.35
24.1704,423.27,517.08
24.1903,421.42,517.06
24.2103,420.93,517.05
24.2303,420.75,516.24
24.2503,420.6,516.59
24.2705,420.28,516.67
24.2905,420.42,516.34
24.3102,419.74,516.27
24.3303,418.59,516.22
24.3503,418.27,516.57
24.3704,416.82,516.66
24.3904,417.65,516.93
24.4103,418.12,516.54
24.4303,414.3,516.83
24.4503,404.84,518.07
24.4707,388.07,518.65
24.4904,366.46,516.72
24.5104,342.97,513.38
24.5303,319.57,508.1
24.5504,298.66,501.48
24.5704,280.13,494.59
24.5905,268.5,490.07
24.6103,265.4,487.25
24.6304,268.72,485.6
24.6504,275.58,485.68
24.6704,284.86,486.55
24.6901,296.29,488.64
24.7104,308.43,490.91
24.7302,319.14,493.73
24.7504,329.72,496.98
24.7703,339.37,499.59
24.7904,349.5,502.47
24.8103,358.8,505.37
24.8303,366.44,507.9
24.8504,373.55,509.52
24.8704,379.24,510.82
24.8903,384.59,512.45
24.9103,388.67,514.36
24.9302,391.54,515.29
24.9503,395.43,515.63
24.9703,398.55,516.71
24.9902,401.44,517.16
25.0102,403.75,517.93
25.0301,405.2,518.15
25.0502,407.16,517.52
25.0701,409.13,517.61
25.0903,410.1,517.89
25.1104,411.68,517.71
25.1303,413.15,517.37
25.1503,413.52,517.7
25.1703,414.21,517.76
25.1903,414.17,517.81
25.2103,413.94,518.04
25.2303,414.15,518.64
25.2503,414.72,518.71
25.2702,414.38,517.77
25.2903,414.9,517.41
25.3103,414.72,516.73
25.3303,414.78,516.58
25.3502,415.22,515.87
25.3703,415.78,515.69
25.3904,416.42,515.36
25.4103,415.94,515.68
25.4302,415.35,515.95
25.4503,415.88,515.36
25.4703,415.7,515.29
25.4903,415.56,514.23
25.5104,415.05,514.78
25.5303,415.84,514.83
25.5503,415.27,514.66
25.5703,415.82,515.13
25.5903,416.65,515.5
25.6103,416.12,515.6
25.6303,416.5,515.88
25.6502,416.2,515.91
25.6701,415.96,516.32
25.6905,415.57,517.06
25.7104,415.45,517.45
25.7303,415.36,517.76
25.7503,415.89,518.61
25.7705,416.11,518.69
25.7904,415.49,518.55
25.8103,415.99,518.64
25.8302,416.39,519.31
25.8503,417.11,520.05
25.8704,416.49,519.64
25.8904,417.59,520.11
25.9104,418.07,520.09
25.9304,417.26,520.47
25.9503,417.21,520.38
25.9702,417.57,521.1
25.9903,416.45,522.68
26.0103,416.76,523.35
26.0302,416.81,524.08
26.0502,417.25,523.66
26.0702,417.4,524.33
26.0902,417.92,524.46
26.1101,417.33,523.77
26.1301,416.07,523.62
26.1504,416.45,523.49
26.1704,415.96,522.99
26.1903,416.97,523
26.2104,416.58,522.6
26.2303,416.06,522.68
26.2503,415.65,522.54
26.2703,416.72,522.63
26.2902,416.38,522.71
26.3102,416.1,523.17
26.3303,415.08,522.53
26.3502,414.86,522.23
26.3703,414.69,521.78
26.3903,414.55,521.62
26.4103,415.24,521.7
26.4303,414.79,521.36
26.4504,414.04,520.69
26.4704,414.03,520.35
26.4904,413.62,520.08
26.5103,413.3,519.66
26.5303,412.84,520.93
26.5501,412.27,520.55
26.5701,412.62,520.44
26.5904,412.69,520.55
26.6103,413.15,520.24
26.6301,413.52,519.99
26.6504,413.42,519.19
26.6703,412.54,518.35
26.6903,412.23,518.28
26.7102,412.58,518.83
26.7302,412.07,518.46
26.7502,412.45,518.37
26.7701,413.36,518.9
26.7901,413.09,518.92
26.8101,412.87,518.73
26.83,412.9,518.59
26.8502,414.12,518.67
26.8702,414.29,519.14
26.8901,414.44,519.11
26.9101,414.95,518.49
26.9302,413.56,519.99
26.9502,421.65,522.79
26.9702,436.92,529.43
26.9903,459.33,539.75
27.0101,483.27,550.4
27.0302,506.81,560.92
27.0502,529.25,568.33
27.0712,544.8,571.07
27.0912,555.24,569.25
27.1113,559.79,563.2
27.1313,558.43,554.76
27.1514,554.35,544.61
27.1711,547.68,535.89
27.1911,540.14,526.91
27.2111,530.51,519.73
27.2314,520.61,512.78
27.2513,510.09,508.83
27.2713,499.27,505.66
27.2912,488.82,504.13
27.3112,480.05,503.7
27.3312,470.84,502.96
27.3513,462.67,502.77
27.3712,455.94,502.62
27.3912,449.55,503.89
27.4112,444.64,505.11
27.4311,440.31,507.49
27.4512,436.45,509.39
27.4712,432.76,510.91
27.4913,429.01,511.33
27.5112,426.61,511.87
27.5314,423.49,512.09
27.5513,421.59,512.47
27.5711,419.67,513.58
27.5911,417.94,514.06
27.6111,416.35,514.45
27.6311,415.48,514.96
27.6512,414.38,515.77
27.6711,413.51,516.41
27.6911,413.61,516.73
27.7111,410.68,517.19
27.7311,398.75,517.35
27.7512,380.2,517.68
27.7711,356.76,516.14
27.7911,330.81,514.91
27.8111,304.45,510.73
27.8311,281.36,505.79
27.8511,266.29,501.23
27.8711,260.63,497.98
27.8911,263.1,496.19
27.9111,268.88,496.55
27.9311,277.91,497.04
27.9511,287.72,498.23
27.9711,299.58,499.99
27.9911,309.46,501.19
28.0111,319.77,503.75
28.0313,330.62,505.8
28.0512,339.89,507.44
28.0711,346.11,509.55
28.0911,351.09,511.04
28.1111,355.87,511.63
28.1311,361.1,511.91
28.1511,366.88,511.33
28.1711,371.1,511.06
28.1912,375.48,510.85
28.2112,379.19,511.48
28.2314,383.15,511.18
28.2514,386.92,512.15
28.271,389.74,512.52
28.2911,391.99,513.01
28.311,394.59,513.21
28.3311,396.07,513.77
28.3512,397.86,514.61
28.3721,399.29,515.09
28.3921,400.83,515.47
28.4121,401.66,516.58
28.4322,402.53,517.86
28.4532,403.02,518.09
28.4732,402.22,517.87
28.4942,402.18,517.9
28.5152,402.54,518.12
28.536,403.03,518.29
28.5561,403.43,518.04
28.5762,403.54,517.63
28.596,404.63,517.3
28.6161,403.31,517.44
28.6361,403.64,517.55
28.6571,404.12,517.24
28.6782,406.29,516.79
28.6981,406.83,516.04
28.7191,408.47,515.83
28.739,410.17,515.46
28.7591,410.74,515.17
28.78,411.99,514.94
28.8001,412.19,514.95
28.8201,413.75,515.16
28.8402,414.4,515.33
28.8612,416.12,516.06
28.8822,417.9,519.05
28.903,418.72,521.44
28.923,419.17,521.75
28.943,418.74,522.2
28.9631,418.79,522.36
28.9831,419.63,522.29
29.003,420.11,522.03
29.0231,419.89,521.42
29.044,419.71,521.34
29.0642,418.77,520.67
29.0851,418.41,519.94
29.1061,417.73,519.75
29.1262,417.18,519.6
29.1472,416.35,519.08
29.1681,415.28,518.26
29.1881,414.62,517.61
29.208,413.5,516.89
29.228,413.6,516.51
29.2481,412.28,515.81
29.2681,411.82,516.05
29.288,412.06,515.44
29.3082,411.05,515.75
29.3291,410.04,515.2
29.3491,409.03,514.96
29.3702,407.82,514.57
29.3902,406.66,513.85
29.4102,406.13,513.68
29.4302,405.9,513.75
29.4502,405.72,514
29.4701,405.98,513
29.49,405.98,512.6
29.5103,405.79,512.08
29.5313,405.63,510.86
29.5522,405.9,511.29
29.5722,405.12,511.63
29.5921,404.5,512.11
29.6122,404.8,511.48
29.632,404.64,510.59
29.6523,404.71,509.87
29.672,404.77,509.7
29.6922,405.21,509.36
29.7122,405.77,510.09
29.7321,405.82,510.07
29.7524,405.25,510.85
29.7723,404.6,510.68
29.7924,404.48,511.75
29.8122,404.99,512.2
29.8323,405.79,512.36
29.8524,405.63,512.49
29.8721,405.7,512.59
29.8924,406.56,512.87
29.9122,407.05,513.3
29.9323,406.84,513.84
29.952,407.27,513.67
29.9732,407.62,514.34
29.993,407.29,515.27
30.0131,407.64,515.22
30.033,407.91,514.17
30.053,407.93,514.34
30.073,408.54,514.07
30.0931,409.23,514.26
30.1141,409.79,513
30.1342,410.43,512.4
30.1543,410.34,512.72
30.1742,410.47,512.18
30.1941,410.78,511.74
30.214,410.42,511.39
30.234,409.54,511.72
30.254,409.63,511.37
30.274,409.71,511.3
30.294,413.96,514.44
30.314,427.57,522.95
30.3341,449.66,537.36
30.3552,479.33,551.29
30.3761,508.86,559.63
30.3961,534.09,561.7
30.4161,551.67,560.96
30.436,561.94,556.57
30.456,565.95,549.86
30.4761,564.56,543.69
30.496,559.85,535.15
30.5172,553.48,526.92
30.538,545.98,519.93
30.5581,536.59,514.55
30.5782,526.87,510.44
30.5982,517.9,508.15
30.6181,507.92,507.32
30.6383,498.13,506.46
30.658,489.11,506.57
30.678,480.09,506.45
30.698,471.87,506.76
30.718,464.29,508.21
30.738,459.04,509.37
30.758,453.03,510.69
30.7781,448.42,512.16
30.7982,444.54,512.92
30.818,441.83,513.74
30.8383,438.86,514.79
30.858,435.89,515.03
30.878,433.51,515.03
30.898,431.81,515.02
30.918,429.45,515.62
30.938,427.56,515.89
30.958,426.65,516.51
30.9781,426.12,516.61
30.9982,425.89,516.69
31.0181,425.12,516.75
31.0383,425.09,516.8
31.0581,424.27,516.64
31.0783,423.42,517.51
31.0982,422.74,518.01
31.1183,422.79,518.01
31.138,422.63,517.81
31.1581,422.7,517.85
31.1791,421.56,517.08
31.2,418.85,516.86
31.221,410.88,517.09
31.241,396.3,514.47
31.261,375.04,509.38
31.281,350.03,503.1
31.302,323.83,497.28
31.3229,298.06,491.82
31.3431,277.45,487.26
31.3632,264.76,483.81
31.384,261.21,483.45
31.405,264.17,485.16
31.425,269.93,486.93
31.445,278.75,488.14
31.4652,289.6,490.51
31.486,300.68,493.81
31.506,310.74,496.85
31.5262,320.99,499.08
31.546,330.6,501.26
31.5671,338.88,503.61
31.5871,346.7,506.09
31.6072,355.36,507.47
31.6272,361.69,508.18
31.6472,367.15,510.14
31.6672,372.52,513.51
31.687,378.22,515.81
31.7072,382.37,516.85
31.7272,386.1,517.08
31.747,387.88,517.66
31.7671,389.1,517.73
31.7869,390.88,517.58
31.8069,392.51,517.27
31.8269,393.6,516.41
31.8472,395.28,515.13
31.867,396.43,514.3
31.887,398.14,514.24
31.9072,398.11,514.6
31.927,399.29,514.68
31.9482,399.03,513.74
31.9681,399.63,513.19
31.9881,399.5,512.55
32.0083,400,512.04
32.0282,400.8,512.43
32.0482,401.64,512.15
32.0681,401.51,512.32
32.0882,402.41,511.65
32.1083,403.13,512.32
32.1282,403.7,512.86
32.1482,404.16,512.89
32.1681,403.73,513.11
32.1881,404.58,513.09
32.2082,403.47,513.27
32.2282,403.97,512.62
32.2482,404.18,512.89
32.268,404.74,513.11
32.2882,404.99,513.69
32.3082,405.6,513.95
32.3283,405.68,512.96
32.3483,405.74,513.37
32.368,406.79,513.3
32.3884,407.23,513.44
32.4082,407.19,512.95
32.428,406.35,513.56
32.448,406.48,513.05
32.468,405.78,513.04
32.4879,405.43,513.23
32.508,405.34,513.58
32.528,404.87,513.67
32.548,404.9,512.93
32.568,405.12,512.35
32.5881,404.9,512.08
32.6082,403.52,512.86
32.6282,403.41,512.09
32.6482,403.73,512.47
32.6679,405.18,512.98
32.6882,405.35,512.98
32.708,405.68,513.39
32.7282,406.14,513.31
32.7481,406.51,513.45
32.7682,407.41,513.56
32.7882,407.33,514.25
32.8081,408.06,514.2
32.8281,407.85,514.36
32.8481,408.48,514.49
32.8681,408.18,514.59
32.8881,409.15,514.87
32.9082,409.12,515.3
32.9283,408.49,515.44
32.9482,407.6,515.15
32.968,406.68,516.32
32.9882,406.34,517.26
33.008,406.07,517
33.028,406.86,517
33.048,406.89,517
33.068,408.11,517.2
33.088,407.69,517.16
33.108,407.35,516.93
33.128,407.08,516.54
33.148,407.66,516.03
33.168,407.93,516.23
33.188,407.54,515.98
33.208,407.64,515.59
33.228,407.11,515.27
33.2479,407.69,514.21
33.268,405.95,513.17
33.288,406.36,512.14
33.308,406.09,512.91
33.3282,406.87,513.53
33.3482,407.5,513.82
33.3681,407,514.06
33.388,406.8,513.85
33.4079,407.44,514.48
33.4279,407.55,515.18
33.448,408.24,515.35
33.4681,408.19,514.28
33.4879,408.35,514.62
33.508,408.28,514.3
33.5291,409.23,515.04
33.5503,409.98,515.23
33.5699,410.78,515.78
33.5901,411.23,516.03
33.6102,411.98,516.02
33.6302,413.19,515.82
33.6501,416.75,517.25
33.6702,431.6,521.4
33.6901,454.68,528.92
33.7101,481.74,537.54
33.7301,508.99,543.63
33.7499,531.8,546.3
33.7701,549.04,546.64
33.7902,560.63,544.71
33.8101,565.5,540.17
33.83,565.8,534.74
33.85,563.44,528.19
33.8699,557.15,522.35
33.8901,549.52,516.88
33.9102,539.42,512.91
33.9302,529.33,510.72
33.9501,519.27,508.38
33.9702,509.41,507.9
33.9899,499.73,507.72
34.0099,490.59,507.18
34.0302,481.87,507.34
34.0499,472.89,508.67
34.0699,465.72,509.94
34.0899,457.97,511.75
34.1101,451.78,512.8
34.1302,447.22,514.04
34.15,442.78,514.63
34.1701,439.22,514.91
34.1902,435.78,515.72
34.2099,433.22,516.18
34.23,431.98,516.34
34.2501,429.18,516.48
34.2702,427.55,516.58
34.2902,425.64,516.06
34.3101,424.31,515.85
34.3299,423.25,515.28
34.3501,422.4,515.42
34.3701,420.72,515.74
34.3902,421.17,516.39
34.4101,420.74,516.51
34.4302,421.19,516.61
34.4502,422.15,516.49
34.4699,421.72,516.99
34.49,420.98,517.39
34.5101,420.98,517.51
34.5303,420.59,517.81
34.5501,418.67,521.65
34.5702,415.14,531.12
34.5902,407.71,543.9
34.6102,395.17,554.52
34.6302,377.93,561.01
34.6501,355.75,560.41
34.6699,330.6,551.73
34.6901,305.08,538.38
34.7102,283.86,523.31
34.7303,271.09,509.64
34.7499,267.47,499.12
34.7699,269.78,492.29
34.7899,277.62,488.23
34.81,287.1,484.79
34.8299,296.88,482.83
34.8499,306.9,482.66
34.8699,318.12,483.53
34.8899,328.9,484.62
34.9109,337.92,486.3
34.932,347.33,489.04
34.9529,354.87,490.83
34.9731,359.49,493.67
34.994,365.8,495.73
35.014,371.04,497.99
35.035,376.03,500.99
35.0559,379.42,502.79
35.076,382.54,504.43
35.0969,385.43,505.55
35.1169,388.94,506.64
35.137,392.16,507.31
35.1569,394.32,507.85
35.1768,395.66,507.68
35.197,397.13,509.54
35.2169,398.9,510.43
35.2369,399.32,511.15
35.2569,399.66,512.12
35.278,399.93,513.09
35.2979,400.94,513.28
35.3179,402.55,513.62
35.3379,403.64,515.1
35.3579,403.11,515.88
35.3779,402.09,515.5
35.3979,401.87,515.4
35.4178,402.1,517.32
35.4379,402.08,518.46
35.4581,402.26,519.37
35.4779,402.01,520.29
35.4982,402.81,520.43
35.518,403.45,520.15
35.5392,403.56,519.32
35.5591,402.85,519.25
35.5789,403.48,519.2
35.5989,403.78,518.16
35.6199,403.63,518.33
35.6399,404.1,517.46
35.6609,403.48,517.37
35.6809,403.18,517.3
35.701,403.55,517.24
35.7209,403.24,517.19
35.741,403.59,516.95
35.7609,404.27,517.16
35.781,405.42,517.13
35.8009,405.13,516.5
35.821,405.31,516.4
35.8419,406.45,516.12
35.8619,406.76,516.5
35.8819,408.01,517.2
35.9019,407.8,517.16
35.9219,405.84,517.13
35.9421,405.87,516.9
35.962,405.5,516.92
35.9819,406.2,517.14
36.0019,406.76,516.71
36.0229,407.01,516.77
36.0429,407.61,517.01
36.0631,407.49,517.01
36.0831,408.59,517.01
36.1028,408.27,517.21
36.1229,409.22,516.77
36.1429,408.57,517.41
36.1632,409.66,517.73
36.1831,409.53,518.78
36.2031,410.42,519.63
36.223,410.74,520.5
36.2432,411.19,520.6
36.2632,411.75,520.48
36.2831,411.6,520.38
36.3029,411.88,519.91
36.3229,411.9,519.13
36.3428,412.12,518.5
36.3629,412.1,518
36.3829,411.88,517
36.4029,410.9,516.8
36.423,410.12,516.64
36.443,410.9,516.91
36.4629,410.32,517.13
36.4841,410.25,517.1
36.5049,410.8,517.28
36.5248,411.64,517.63
36.5448,412.71,517.9
36.565,413.97,518.52
36.5848,414.78,519.22
36.6051,415.62,519.17
36.6253,416.9,519.54
36.6451,417.92,519.23
36.6651,418.53,518.78
36.685,418.43,519.03
36.7048,419.14,518.62
36.7251,418.91,517.9
36.7451,419.13,517.92
36.7651,418.7,517.53
36.7849,418.96,517.63
36.8048,419.37,517.7
36.8251,419.5,516.76
36.845,419.2,516.81
36.8649,419.56,517.05
36.8851,419.45,517.24
36.9051,419.56,517.99
36.925,419.45,517.59
36.945,419.76,517.27
36.965,420.21,517.02
36.9849,419.96,516.22
37.005,419.57,515.17
37.0251,418.66,514.14
37.0452,417.93,513.31
37.065,419.14,513.45
37.0849,420.11,513.36
37.1059,420.69,514.89
37.1258,424.35,517.11
37.1459,437.48,525.29
37.1661,458.99,537.23
37.1858,485.19,548.38
37.2059,510.95,555.91
37.2259,531.76,558.93
37.2459,548.81,559.94
37.2659,559.85,557.95
37.2869,566.08,552.96
37.3079,566.86,547.37
37.3281,564.29,540.7
37.348,558.63,533.36
37.3678,551.11,527.69
37.3878,541.48,521.15
37.4079,531.39,515.12
37.4278,520.91,510.89
37.4478,509.73,508.52
37.4678,498.78,507.21
37.4878,488.43,506.77
37.5078,479.74,506.62
37.528,471.99,506.69
37.5481,464.79,507.15
37.5679,458.44,508.52
37.588,452.75,509.02
37.6078,447.4,510.02
37.6278,442.32,510.81
37.6478,437.46,511.25
37.6679,434.16,512.6
37.6878,430.73,513.88
37.7078,428.59,514.7
37.7278,427.07,514.96
37.7478,425.85,515.37
37.7678,424.88,515.3
37.7878,423.91,515.24
37.808,422.73,515.99
37.828,421.78,516.59
37.8478,421.22,517.47
37.8681,421.78,517.18
37.8882,421.82,517.14
37.908,421.26,516.71
37.9281,419.61,516.77
37.9479,419.29,516.62
37.9683,419.23,516.89
37.988,420.38,516.91
38.0081,413.71,517.93
38.028,399.37,518.35
38.048,378.49,519.08
38.0679,354.39,518.46
38.0881,329.51,515.97
38.108,305.01,511.78
38.1281,285.41,508.02
38.148,276.13,504.02
38.1679,275.1,501.81
38.188,278.88,500.45
38.208,286.11,500.56
38.228,295.08,500.65
38.248,305.87,501.12
38.2679,317.69,502.29
38.288,328.56,504.64
38.3078,338.24,506.71
38.328,346.8,508.37
38.3478,355.24,510.29
38.3679,366.19,511.83
38.3878,375.15,513.07
38.4078,382.72,513.65
38.428,388.18,513.92
38.448,393.94,513.74
38.4678,398.15,513.79
38.4879,403.12,514.03
38.5078,406.7,514.03
38.5278,408.16,515.02
38.5479,409.33,515.62
38.5688,409.66,516.09
38.5888,410.13,516.07
38.6088,410.5,515.66
38.6289,410.4,515.33
38.6498,411.12,515.86
38.6698,410.3,515.49
38.6901,409.24,514.19
38.71,408.99,514.95
38.7299,409.39,515.16
38.75,409.71,515.93
38.7698,409.57,516.14
38.7898,409.66,516.12
38.81,409.93,516.69
38.8298,409.94,516.35
38.8499,410.35,516.28
38.8709,408.88,516.63
38.8911,408.11,516.9
38.9109,407.68,517.12
38.9309,407.95,517.3
38.9509,407.56,516.84
38.971,407.25,516.87
38.991,406.8,517.1
39.0109,405.84,517.48
39.031,405.47,517.78
39.0509,405.58,517.83
39.0708,405.26,517.86
39.091,404.61,517.69
39.111,404.69,517.75
39.1309,404.35,517.8
39.1511,404.68,518.04
39.1708,404.54,518.43
39.1911,404.03,517.95
39.211,404.43,517.76
39.2309,406.94,518.61
39.2508,401.95,518.28
39.2708,393.96,515.83
39.2908,389.17,514.66
39.3109,386.74,513.13
39.3319,384.79,511.9
39.3518,384.83,511.32
39.3729,386.07,511.66
39.3939,387.85,511.33
39.4147,389.08,512.46
39.4348,391.47,513.17
39.4547,392.57,513.74
39.4748,394.26,514.39
39.4947,396.01,515.31
39.5148,397.4,515.85
39.5349,398.92,516.08
39.5558,400.94,516.46
39.5759,401.95,516.37
39.5959,401.36,516.5
39.6159,402.69,517.2
39.6358,404.35,517.36
39.6561,405.48,516.89
39.676,405.78,516.31
39.696,406.43,515.85
39.7159,406.34,515.88
39.736,407.27,516.5
39.756,407.62,516.6
39.776,408.5,517.08
39.7961,408,518.07
39.8159,408.8,518.05
39.8359,409.04,517.44
39.856,409.23,516.75
39.876,409.98,517.4
39.896,410.39,517.52
39.9161,410.31,518.42
39.9358,410.45,518.33
39.9561,410.36,518.27
39.976,411.69,517.61
39.9962,410.55,517.69
40.0158,409.64,517.75
40.0359,409.71,517.8
40.0558,409.77,517.84
40.0758,409.82,517.47
40.0968,411.45,517.18
40.1169,411.96,516.54
40.1367,411.57,516.03
40.1567,411.86,515.63
40.1768,412.48,514.5
40.1967,412.99,513.6
40.2167,413.39,513.68
40.2368,414.11,513.55
40.2568,413.29,514.04
40.2768,412.63,514.63
40.2967,412.11,514.5
40.3168,413.08,513.6
40.3369,413.87,513.88
40.3579,415.09,514.31
40.3779,415.48,514.24
40.3988,415.18,514.2
40.4188,415.74,514.76
40.4398,416.8,515.21
40.4597,416.44,514.96
40.4797,417.35,515.57
40.4997,418.08,516.06
40.5198,418.46,517.05
40.5398,420.77,517.24
40.5598,429.82,515.79
40.5799,444.25,515.43
40.5999,463.2,518.15
40.6199,485.16,524.52
40.6399,507.33,531.81
40.66,527.66,537.65
40.68,542.73,539.92
40.7,552.38,540.34
40.72,557.51,539.27
40.7398,557.81,537.42
40.7599,554.45,534.53
40.78,548.96,530.63
40.8,541.16,527.7
40.82,533.53,524.96
40.8399,525.63,522.57
40.861,516.7,521.45
40.881,507.16,519.96
40.9009,497.13,518.97
40.921,487.9,517.78
40.9408,478.92,517.62
40.9608,470.94,518.3
40.9808,463.95,517.24
41.0008,457.36,516.39
41.0208,453.29,516.31
41.0408,449.43,516.65
41.0609,444.74,516.92
41.0818,441.2,516.94
41.1017,437.36,516.95
41.1228,432.69,517.16
41.1428,429.95,517.53
41.1627,427.56,517.82
41.1828,425.85,517.86
41.2028,424.08,517.89
41.2229,422.66,517.91
41.2427,421.93,517.73
41.2628,421.14,517.98
41.2828,419.91,518.19
41.3028,418.53,517.75
41.3227,417.43,518.2
41.3427,415.34,518.16
41.3629,415.67,518.13
41.3828,414.74,518.1
41.4028,414.79,517.08
41.4227,415.23,517.27
41.4429,414.19,516.81
41.463,414.35,516.85
41.4828,414.48,516.08
41.5029,407.78,517.06
41.5227,392.43,518.65
41.5428,371.14,519.52
41.5628,346.31,519.42
41.5838,319.25,514.13
41.6048,293.4,508.71
41.6248,272.52,503.37
41.6448,262.22,498.89
41.6658,260.17,496.11
41.6868,263.94,494.89
41.7068,269.95,494.71
41.7277,278.76,494.37
41.7477,289.41,495.1
41.7677,300.33,496.28
41.7878,311.46,497.42
41.8088,322.17,498.34
41.8288,332.54,499.67
41.8499,341.83,501.34
41.87,349.46,503.67
41.89,354.57,507.53
41.9098,359.86,511.43
41.9297,365.68,514.14
41.9499,370.75,515.71
41.9698,375.6,516.77
41.9898,380.08,517.42
42.0098,383.06,518.53
42.0297,385.65,519.03
42.0497,388.32,518.62
42.0697,390.46,517.7
42.0897,392.76,517.16
42.1097,394.61,517.53
42.1297,396.69,519.02
42.1497,398.75,519.62
42.1707,399.8,519.29
42.1909,401.04,519.83
42.2108,402.03,520.07
42.2308,402.23,520.05
42.2517,403.58,519.84
42.2717,403.86,519.07
42.2917,404.29,518.46
42.3117,404.63,518.17
42.3317,405.51,518.33
42.3517,405.81,518.27
42.3717,406.44,518.21
42.3918,407.76,517.97
42.4128,409,517.98
42.4338,410,517.78
42.4538,410.4,517.23
42.4737,410.92,517.38
42.4937,412.74,517.1
42.5139,414.39,517.08
42.5336,415.71,517.07
42.5537,416.17,517.05
42.5737,416.74,517.04
42.5939,416.39,517.23
42.6139,417.11,516.99
42.6339,417.29,517.19
42.6537,417.43,516.75
42.6739,416.94,516.8
42.6938,416.36,516.84
42.7137,416.48,516.27
42.7339,415.39,514.82
42.7539,415.71,513.85
42.7738,415.57,513.68
42.7938,416.65,513.55
42.8137,417.52,512.64
42.8339,417.82,513.11
42.854,417.86,513.89
42.8739,417.68,513.91
42.8939,417.75,514.33
42.9137,418.6,514.26
42.934,419.28,514.61
42.9539,418.22,514.89
42.9739,417.98,514.11
42.994,417.38,513.89
43.0139,417.51,513.71
43.0339,416.8,513.57
43.0539,417.04,513.45
43.0739,417.44,512.96
43.0941,417.95,512.37
43.1137,417.16,512.7
43.1337,418.13,512.96
43.1537,417.9,513.37
43.1737,417.92,514.49
43.1937,417.34,514.99
43.2137,418.07,515.4
43.2337,417.26,515.12
43.254,417.4,514.69
43.274,416.92,514.95
43.2937,416.54,515.36
43.3137,417.03,515.49
43.3337,417.02,515.59
43.3538,417.62,515.87
43.3737,417.7,515.9
43.3937,418.76,516.32
43.4138,419.01,516.66
43.4337,419.2,516.12
43.4539,419.36,515.5
43.4739,419.69,515.6
43.494,419.35,515.08
43.5138,419.48,514.66
43.5341,419.99,514.53
43.5539,420.19,513.62
43.5739,419.75,513.9
43.594,419.2,513.72
43.6138,419.16,514.18
43.6339,418.93,513.94
43.654,419.34,514.35
43.6739,420.07,515.08
43.6939,420.46,515.27
43.7138,419.37,515.41
43.7337,419.69,515.93
43.7547,419.16,515.94
43.7747,419.12,516.16
43.7947,418.3,516.32
43.8147,419.04,516.26
43.8347,418.83,516.21
43.8547,418.67,516.37
43.8747,418.33,516.89
43.895,418.07,517.11
43.9146,418.05,517.29
43.9348,417.24,517.43
43.9548,417.59,517.15
43.9749,419.27,516.52
43.9947,422.42,517.01
44.0158,433.34,523.61
44.0357,454.07,534.49
44.0567,481.06,545.79
44.0767,509.24,554.03
44.0966,533.6,557.23
44.1167,551.28,557.18
44.1379,561.62,553.54
44.1577,565.9,548.84
44.1777,565.92,542.87
44.1978,561.13,536.89
44.2178,554.11,531.12
44.2387,545.29,526.09
44.2587,534.83,521.07
44.2786,523.66,517.06
44.2986,513.73,514.05
44.3188,503.58,512.44
44.3397,492.07,511.75
44.3598,481.25,511.2
44.3797,471.8,511.56
44.3998,463.24,512.05
44.4206,454.19,512.24
44.4407,447.36,511.99
44.4617,440.88,511.79
44.4827,435.51,511.23
44.5028,431.01,512.19
44.5236,426.2,512.55
44.5436,422.16,513.44
44.5637,420.33,513.75
44.5836,418.46,514.2
44.6036,416.77,514.16
44.6237,414.62,514.13
44.6447,412.69,514.7
44.6648,411.36,514.56
44.6847,409.88,514.65
44.7047,408.31,514.72
44.7247,407.85,515.38
44.7447,407.28,515.5
44.7647,406.22,515.2
44.7857,405.38,515.76
44.8056,406.9,516.21
44.8257,401.92,515.77
44.8457,386.74,514.81
44.8657,364.59,512.45
44.8857,337.87,508.76
44.9057,310.1,502.41
44.9258,282.68,495.53
44.9466,261.74,490.02
44.9666,251.99,485.42
44.9867,250.8,483.33
45.0066,255.64,483.67
45.0268,263.91,485.13
45.0467,274.53,486.71
45.0669,285.82,489.57
45.0867,297.86,492.25
45.1068,309.69,494.4
45.1268,321.55,496.92
45.1466,332.64,498.94
45.1669,342.71,500.55
45.1867,351.57,502.24
45.2069,359.46,503.59
45.227,366.76,504.27
45.2468,372.21,506.02
45.267,378.57,507.62
45.2869,383.06,508.69
45.3068,386.84,509.55
45.327,391.48,510.84
45.3467,394.18,510.47
45.3668,396.94,511.38
45.3867,398.56,511.9
45.4067,401.04,512.32
45.4267,402.84,513.06
45.4468,404.07,513.25
45.4677,405.05,513.4
45.4877,406.44,514.12
45.5077,407.35,514.09
45.5288,408.88,514.68
45.5496,410.91,515.14
45.5697,412.33,515.91
45.5896,413.26,516.13
45.6096,414.21,516.5
45.6296,413.97,516.8
45.6496,415.17,517.24
45.6698,415.74,516.99
45.6898,415.99,516.8
45.7098,416.59,516.04
45.7298,417.07,515.63
45.7498,417.46,514.5
45.7696,417.57,513
45.7898,418.45,513.2
45.8101,418.36,513.36
45.8297,419.09,513.29
45.8497,418.87,513.83
45.8708,418.5,514.67
45.8909,417.8,515.53
45.9109,418.04,515.83
45.9308,417.83,516.46
45.9507,416.86,517.37
45.9707,416.89,518.09
45.9909,417.11,518.68
46.0108,417.69,518.74
46.0308,417.55,519.19
46.0509,418.44,519.95
46.0708,418.15,520.16
46.0909,417.52,520.53
46.1108,417.82,520.62
46.1308,417.65,520.9
46.1507,417.92,521.32
46.1708,417.74,521.66
46.1908,417.79,521.72
46.2107,417.63,521.18
46.2307,417.71,520.74
46.2506,417.77,520.99
46.2706,418.21,521
46.2906,417.97,521.2
46.3106,418.58,521.56
46.3307,417.86,521.45
46.3517,417.09,520.96
46.3726,417.27,520.77
46.3927,417.42,520.41
46.4126,417.73,520.93
46.4328,418.39,520.94
46.4526,418.31,520.96
46.4727,417.65,520.56
46.4929,418.52,519.65
46.5128,417.81,519.52
46.5329,417.85,518.82
46.5529,418.08,518.05
46.5726,417.86,517.04
46.5928,416.69,517.23
46.6128,416.75,516.99
46.6328,416.2,516.79
46.6526,415.36,516.63
46.6726,414.29,516.71
46.6928,414.23,516.96
46.7137,414.99,516.97
46.7348,414.79,517.38
46.7547,413.43,517.5
46.7756,412.54,517.4
46.7957,412.04,517.72
46.8156,410.83,518.98
46.8358,410.26,521.78
46.8558,410.81,525.23
46.8757,412.65,531.18
46.8957,412.12,539.74
46.9157,410.29,554.4
46.9358,410.04,575.92
46.9557,409.83,596.93
46.9757,407.66,610.75
46.9956,403.93,612.4
47.0158,399.74,600.72
47.0357,397.4,575.77
47.0559,395.52,544.82
47.0758,395.21,514.66
47.0959,394.97,489.52
47.1159,394.78,471.22
47.1356,394.62,457.78
47.1558,395.5,448.82
47.1758,396,443.86
47.1958,396.4,441.89
47.2157,395.12,443.51
47.2357,398.09,446.61
47.2556,398.48,450.49
47.2757,400.38,454.99
47.2958,401.9,460.39
47.3157,401.92,466.31
47.3355,402.34,471.65
47.3556,407.07,476.72
47.3758,417.06,480.18
47.3956,424.65,483.14
47.4159,428.52,486.11
47.4356,432.21,488.89
47.4559,432.77,490.71
47.4758,431.22,492.17
47.4955,430.97,495.14
47.5156,429.78,497.31
47.5357,427.62,498.25
47.5557,426.5,500.4
47.5766,425,503.12
47.5966,421.8,505.89
47.6166,420.44,508.12
47.6368,418.75,510.09
