Program Time [s],data 0,data 1
98.0477,384.97,409.87
98.0675,388.58,418.7
98.0878,389.06,421.96
98.1075,383.45,415.17
98.1275,387.76,416.93
98.1475,389.61,432.55
98.1674,395.89,437.64
98.1874,397.91,433.11
98.2075,403.93,446.89
98.2275,401.94,456.51
98.2475,398.95,450.21
98.2673,404.56,457.57
98.2876,401.65,474.45
98.3074,399.92,475.96
98.3275,400.94,473.37
98.3474,404.55,484.1
98.3674,403.04,491.48
98.3876,403.23,493.18
98.4075,405.59,507.75
98.4275,402.27,504.8
98.4475,400.41,505.84
98.4672,395.93,500.47
98.4877,395.55,500.98
98.5075,396.84,497.98
98.5275,397.27,499.78
98.5474,394.82,497.63
98.5675,396.05,490.5
98.5884,394.64,494.4
98.6085,392.91,495.12
98.6284,394.93,491.1
98.6483,396.94,496.08
98.6685,397.16,497.06
98.6894,398.32,496.25
98.7104,394.46,500
98.7314,395.17,504.6
98.7524,392.13,501.88
98.7723,392.71,502.7
98.7924,391.37,501.16
98.8124,391.69,503.73
98.8324,392.75,502.38
98.8523,395.2,498.11
98.8722,395.76,510.89
98.8923,395.41,513.91
98.9134,393.33,517.73
98.9334,395.86,520.98
98.9544,395.89,518.79
98.9743,394.91,515.03
98.9954,396.73,513.22
99.0163,402.38,513.38
99.0364,407.31,515.7
99.0573,412.25,519.16
99.0773,413.6,521.13
99.0972,415.08,521.3
99.1172,411.86,516.04
99.1372,411.69,516.63
99.1572,412.95,517.91
99.1773,412.96,516.13
99.1974,413.37,513.9
99.2184,416.1,507.72
99.2393,418.48,513.78
99.2603,417.18,516.22
99.2813,417.34,518.78
99.3013,418.28,518.82
99.3214,421.62,513.86
99.3415,423.1,513.29
99.3612,425.08,522.23
99.3813,423.86,521.38
99.4025,421.69,522.31
99.4225,418.55,520.45
99.4425,421.04,521.76
99.4623,420.83,521.8
99.4825,418.07,527.24
99.5023,416.85,523.8
99.5225,416.28,521.04
99.5423,420.03,527.83
99.5624,415.02,522.46
99.5824,415.82,523.77
99.6025,416.25,522.82
99.6224,414.2,529.25
99.6424,414.16,526.2
99.6623,415.93,524.36
99.6823,416.14,524.09
99.7025,415.91,523.07
99.7223,416.13,519.46
99.7423,416.51,518.77
99.7623,415,519.61
99.7823,416.6,520.69
99.8026,416.88,520.35
99.8223,415.71,522.08
99.8423,416.97,520.87
99.8623,417.17,521.69
99.8824,415.74,523.35
99.9025,415.39,524.08
99.9223,414.31,524.27
99.9423,414.05,523.01
99.9625,414.04,524.41
99.9822,415.63,525.53
100.003,416.11,529.02
100.022,414.88,527.62
100.043,413.51,525.89
100.062,413.81,523.52
100.082,412.04,525.21
100.102,411.04,523.37
100.122,411.43,523.5
100.142,411.34,525
100.162,410.87,524.6
100.182,410.5,522.68
100.202,412,523.34
100.222,414.2,523.27
100.242,413.56,522.62
100.263,414.65,525.1
100.282,414.72,525.88
100.302,417.37,526.1
100.322,415.5,526.68
100.342,413.6,525.14
100.362,413.48,523.92
100.382,413.58,524.33
100.403,413.87,523.27
100.422,413.89,522.41
100.442,414.51,524.93
100.462,413.61,524.94
100.483,412.89,521.96
100.503,412.31,522.76
100.522,411.25,524.21
100.542,412.8,522.37
100.562,415.24,524.5
100.582,414.99,524
100.603,414.79,523.6
100.624,415.43,522.48
100.645,412.95,521.58
100.666,409.56,521.47
100.687,416.25,524.77
100.708,429.8,533.62
100.728,450.84,543.49
100.747,473.47,548.2
100.768,495.98,552.56
100.788,509.98,551.65
100.809,518.58,546.32
100.83,522.07,538.85
100.85,524.25,531.88
100.871,523.8,523.31
100.891,519.64,518.64
100.912,513.51,520.72
100.933,507.81,515.97
100.952,499.25,512.18
100.972,494.2,514.14
100.992,486.16,519.91
101.012,478.73,516.13
101.032,472.18,515.9
101.052,465.95,515.92
101.073,461.96,517.34
101.093,456.37,517.47
101.113,451.09,519.58
101.134,446.27,520.06
101.154,441.82,519.45
101.174,441.46,520.76
101.195,438.56,520.81
101.216,436.05,522.45
101.236,434.84,522.36
101.256,432.87,526.89
101.277,432.5,525.71
101.298,430.6,525.97
101.318,428.08,525.17
101.338,428.66,525.34
101.358,427.93,525.47
101.378,428.14,525.78
101.399,427.92,524.22
101.419,426.53,523.78
101.439,422.43,526.82
101.459,412.74,530.66
101.479,399.39,538.93
101.499,383.31,553.74
101.519,365.65,568.79
101.539,343.52,575.63
101.56,320.22,565.11
101.579,297.97,544.49
101.599,278.78,516.79
101.619,266.62,498.43
101.639,260.5,476.74
101.659,266.2,464
101.68,273.96,458.6
101.7,282.97,454.08
101.72,295.17,458.06
101.741,307.54,458.85
101.76,320.43,464.08
101.781,329.34,466.86
101.8,340.68,472.09
101.821,348.14,479.67
101.841,355.51,483.54
101.861,361.61,489.83
101.881,368.29,495.46
101.901,373.43,500.17
101.921,375.94,500.34
101.941,381.16,506.07
101.961,384.52,507.46
101.981,388.02,507.76
102.001,391.42,511.41
102.021,394.33,512.53
102.041,397.27,512.62
102.061,400.81,513.7
102.081,401.85,512.36
102.101,405.28,513.29
102.122,405.42,512.63
102.142,407.94,516.5
102.162,409.95,517.8
102.182,409.96,518.24
102.202,410.57,524.59
102.222,410.26,525.88
102.242,410.6,527.7
102.262,409.28,525.96
102.283,405.23,527.37
102.302,406.98,522.29
102.322,406.59,520.64
102.343,408.27,519.91
102.362,406.81,523.73
102.382,406.45,522.18
102.402,406.96,521.95
102.422,407.97,523.36
102.442,407.78,528.08
102.462,407.22,527.27
102.482,407.58,526.21
102.502,406.06,526.37
102.522,407.05,523.7
102.542,405.24,526.76
102.562,404.79,524.01
102.582,406.23,523.6
102.603,407.59,522.28
102.623,407.87,521.63
102.642,407.1,522.7
102.662,405.88,523.36
102.682,405.3,530.09
102.702,404.04,526.07
102.723,403.83,522.46
102.743,404.67,522.97
102.763,403.13,523.37
102.783,402.31,521.7
102.803,400.85,518.76
102.823,401.28,519.61
102.844,403.22,516.09
102.865,402.18,515.67
102.885,404.14,516.93
102.906,402.71,519.95
102.926,403.17,519.16
102.946,404.34,515.53
102.967,403.87,516.62
102.987,405.7,514.5
103.007,403.16,516
103.027,404.12,517
103.047,401.5,516.4
103.068,403.4,518.12
103.088,404.92,517.49
103.108,407.54,518.4
103.128,408.43,519.12
103.148,407.54,520.29
103.169,411.83,519.83
103.189,412.87,519.47
103.209,414.09,520.37
103.229,414.68,521.5
103.249,413.54,525.8
103.269,413.43,521.64
103.289,412.15,521.71
103.309,414.92,519.17
103.329,413.13,517.34
103.35,415.51,516.07
103.37,416.81,515.65
103.39,416.24,515.52
103.41,417.4,516.02
103.43,417.52,513.42
103.45,417.81,515.93
103.47,416.25,514.15
103.49,415.2,514.52
103.51,414.36,513.01
103.53,414.49,514.81
103.55,415.39,515.25
103.57,415.31,514.2
103.59,415.65,514.36
103.61,416.12,515.89
103.63,418.3,514.71
103.65,418.24,513.57
103.67,419.99,514.65
103.691,421.79,515.52
103.711,422.83,515.82
103.731,422.47,517.45
103.752,422.37,517.76
103.772,418.9,517.01
103.793,418.72,517.01
103.814,420.18,517.81
103.835,422.34,518.85
103.855,423.47,521.08
103.875,422.58,518.86
103.896,422.66,518.69
103.916,424.13,518.75
103.937,422.9,519.4
103.957,422.72,519.92
103.977,422.98,520.14
103.998,420.98,519.31
104.019,417.39,520.65
104.039,415.11,521.72
104.059,413.89,521.37
104.079,413.11,524.7
104.099,411.29,523.16
104.119,409.03,523.53
104.139,408.62,523.42
104.159,409.7,523.94
104.179,408.16,525.15
104.199,407.33,522.72
104.219,406.06,523.38
104.239,406.85,522.1
104.259,407.08,521.48
104.279,406.86,521.78
104.299,406.69,517.63
104.319,407.55,519.5
104.339,416.84,521
104.359,434.27,527
104.379,456.82,531
104.399,478.66,535.8
104.42,498.32,541.64
104.439,515.86,547.71
104.459,530.49,551.37
104.479,538.19,552.1
104.5,541.95,550.28
104.52,541.96,547.02
104.54,541.17,545.42
104.56,535.74,540.73
104.58,528.39,535.79
104.6,521.31,532.83
104.621,512.45,528.86
104.641,501.56,524.29
104.661,490.45,521.43
104.681,481.76,520.75
104.701,471.01,518.6
104.721,461.2,517.48
104.741,451.96,517.58
104.761,443.37,516.07
104.781,436.9,516.05
104.801,432.52,516.04
104.821,427.81,517.43
104.841,424.05,516.55
104.861,420.84,516.04
104.881,417.07,517.23
104.901,414.26,517.38
104.921,412.61,520.11
104.941,410.89,517.49
104.961,408.91,518.59
104.981,406.13,518.67
105.001,405.1,518.94
105.021,404.28,519.55
105.041,404.02,521.04
105.061,404.22,519.63
105.081,405.98,520.51
105.101,401.18,516.6
105.121,398.94,512.88
105.141,396.16,509.71
105.161,395.32,510.57
105.181,394.66,511.25
105.201,394.33,510.8
105.221,393.26,511.64
105.241,394.01,513.51
105.261,398.21,513.41
105.281,388.37,512.93
105.301,368.49,508.94
105.321,341.59,504.35
105.341,314.68,499.88
105.361,289.54,491.71
105.381,268.63,485.77
105.401,255.11,479.61
105.421,248.28,473.69
105.441,249.63,473.75
105.461,254.7,474.2
105.481,264.96,477.16
105.501,274.57,480.53
105.521,286.66,483.82
105.541,298.32,491.46
105.561,309.66,493.37
105.581,321.53,497.89
105.601,331.22,502.11
105.621,339.18,505.09
105.641,346.94,509.07
105.661,354.95,511.46
105.681,360.96,512.37
105.701,365.77,512.89
105.721,370.62,513.91
105.741,374.69,514.53
105.761,378.35,515.03
105.781,381.68,518.62
105.802,384.75,518.3
105.823,386,516.04
105.843,389.2,516.83
105.863,391.16,516.66
105.883,393.33,517.53
105.903,394.06,517.62
105.923,395.05,516.1
105.944,398.04,517.28
105.964,401.43,516.62
105.984,404.95,518.3
106.004,409.76,519.04
106.024,413,517.83
106.044,415,518.07
106.064,415,515.65
106.085,414.2,515.32
106.105,416.76,516.06
106.125,417.81,515.85
106.145,417.25,515.48
106.165,417.2,516.58
106.185,416.56,515.27
106.205,416.05,515.81
106.225,415.24,516.85
106.245,415.59,514.68
106.265,417.07,517.14
106.285,415.86,517.12
106.305,416.09,517.29
106.325,417.27,517.03
106.345,417.62,518.63
106.365,418.49,518.3
106.385,418.39,518.64
106.405,416.71,517.91
106.425,417.17,518.13
106.445,416.74,518.3
106.465,415.19,519.24
106.485,415.95,519.59
106.505,416.96,519.88
106.525,417.17,520.1
106.545,416.34,520.68
106.565,416.67,520.94
106.585,414.93,520.56
106.605,415.35,521.44
106.625,415.08,521.36
106.646,414.26,521.48
106.665,414.21,521.19
106.685,414.17,520.15
106.705,413.53,520.92
106.725,414.23,520.14
106.745,414.38,521.11
106.765,414.51,523.09
106.785,415,523.87
106.805,416.4,524.7
106.825,416.92,525.16
106.845,417.34,524.73
106.865,417.47,523.78
106.885,417.38,523.62
106.905,418.7,523.3
106.925,417.96,521.64
106.945,416.17,520.71
106.965,417.54,519.57
106.985,418.23,519.46
107.005,417.58,519.16
107.025,418.27,518.73
107.045,418.61,517.79
107.065,418.49,518.03
107.085,418.19,518.62
107.105,418.35,519.1
107.125,416.08,519.28
107.145,415.67,518.82
107.165,416.33,518.46
107.185,417.27,518.97
107.205,418.21,519.77
107.225,418.77,519.02
107.245,417.62,519.01
107.265,416.29,519.01
107.285,416.83,520.21
107.305,418.87,519.57
107.325,418.09,518.65
107.345,418.28,517.52
107.365,418.22,518.62
107.385,418.98,518.09
107.405,418.58,517.68
107.425,417.86,517.74
107.445,417.69,516.19
107.465,416.95,516.75
107.485,416.16,516.6
107.505,417.33,516.48
107.525,418.06,516.19
107.545,419.05,516.35
107.565,419.04,517.28
107.585,419.23,517.62
107.605,420.59,517.5
107.625,420.27,517.4
107.645,421.02,517.72
107.665,421.81,518.18
107.685,421.05,518.14
107.705,419.84,518.11
107.725,420.27,518.89
107.745,420.42,518.31
107.765,422.33,519.65
107.785,421.47,519.12
107.805,420.77,519.7
107.825,421.02,519.16
107.845,420.62,519.73
107.865,420.29,518.98
107.885,419.03,519.18
107.905,419.43,520.55
107.925,420.94,520.04
107.945,421.95,519.83
107.965,422.56,519.66
107.985,422.45,518.73
108.006,422.36,518.59
108.026,421.49,518.67
108.046,421.59,518.53
108.066,422.27,518.43
108.086,420.62,518.54
108.106,420.09,519.43
108.126,419.88,519.95
108.146,419.9,520.56
108.166,419.72,520.65
108.186,419.78,522.12
108.206,420.82,520.49
108.226,421.06,521.39
108.246,420.45,521.32
108.266,420.56,520.45
108.286,420.25,520.56
108.306,420.6,521.45
108.326,421.48,522.16
108.346,421.78,521.93
108.366,421.23,521.14
108.386,422.38,521.11
108.406,422.3,520.49
108.426,422.24,519.79
108.446,422.99,519.63
108.466,422.8,519.91
108.486,422.64,519.13
108.506,422.51,518.5
108.526,420.21,520.2
108.546,419.57,519.96
108.566,427.85,526.97
108.586,444.28,539.17
108.606,467.03,558.34
108.626,491.82,573.67
108.646,516.66,584.34
108.666,538.33,589.47
108.686,553.66,590.78
108.706,563.33,583.62
108.726,568.86,576.9
108.746,568.69,566.92
108.766,565.35,558.73
108.786,559.48,548.19
108.806,551.19,539.95
108.826,541.75,530.76
108.846,530.4,524.21
108.866,519.32,520.57
108.886,507.86,518.05
108.906,497.48,515.84
108.926,487.79,516.07
108.946,479.03,517.06
108.966,470.22,516.25
108.986,462.18,516.6
109.006,456.74,517.88
109.026,450.59,518.5
109.046,445.88,518.6
109.066,442.9,520.28
109.086,438.92,520.03
109.106,436.74,521.42
109.126,433.99,521.54
109.146,431.79,522.23
109.166,430.63,521.98
109.186,430.31,522.79
109.206,428.85,521.83
109.226,427.88,522.46
109.246,427.3,522.57
109.266,427.04,522.86
109.286,426.63,522.69
109.306,425.91,523.35
109.326,423.52,523.88
109.346,422.62,523.5
109.366,422.1,523.4
109.386,420.68,523.92
109.406,420.14,524.14
109.426,418.71,523.91
109.446,419.57,524.53
109.466,413.86,524.02
109.486,402.89,523.42
109.506,382.91,521.53
109.526,359.33,519.23
109.546,335.26,515.98
109.566,314.21,513.59
109.586,294.97,508.07
109.606,281.17,501.25
109.626,274.94,495.2
109.646,276.35,492.56
109.666,281.68,490.45
109.686,290.34,490.16
109.706,300.68,490.13
109.726,312.34,492.5
109.746,323.67,494.6
109.766,333.94,495.68
109.786,343.35,497.35
109.806,351.88,499.28
109.826,359.1,501.22
109.846,366.08,502.78
109.866,372.47,503.62
109.886,377.77,504.7
109.906,383.42,506.56
109.926,388.13,507.85
109.946,391.91,508.88
109.966,395.53,510.3
109.986,399.02,511.04
110.006,400.22,512.23
110.026,403.17,513.19
110.046,405.54,513.95
110.066,406.23,514.56
110.086,407.78,514.45
110.106,409.03,514.96
110.126,410.22,515.57
110.146,411.18,516.05
110.166,411.74,517.24
110.186,412.99,518.19
110.206,413.4,517.76
110.226,414.52,518
110.246,416.21,519
110.266,416.77,519
110.286,416.02,519.8
110.306,415.01,520.24
110.326,415.61,520.39
110.346,416.29,519.71
110.366,416.63,520.37
110.386,416.7,519.3
110.406,416.16,519.24
110.426,417.13,519.39
110.446,417.3,519.91
110.466,417.44,519.13
110.486,417.56,519.7
110.506,417.84,519.36
110.526,418.28,519.69
110.546,418.22,519.95
110.566,418.58,519.56
110.586,419.46,519.65
110.606,419.17,518.92
110.626,418.73,519.54
110.646,417.99,520.23
110.666,418.39,521.38
110.686,419.11,520.91
110.706,418.69,521.13
110.726,419.35,520.7
110.746,420.88,520.76
110.766,420.31,520.41
110.786,419.84,520.33
110.806,420.28,520.86
110.826,420.22,521.29
110.846,419.98,521.23
110.866,418.98,520.58
110.886,417.78,521.07
110.906,417.23,520.65
110.926,415.98,520.12
110.946,416.19,520.3
110.966,415.15,520.04
110.986,414.92,519.63
111.006,414.94,519.3
111.026,414.75,519.04
111.046,415.6,519.04
111.066,415.28,518.63
111.086,414.42,518.1
111.106,414.54,516.48
111.126,414.23,516.99
111.146,414.18,517.39
111.166,415.35,518.51
111.186,416.08,518.81
111.206,415.66,518.45
111.226,415.13,517.56
111.247,415.5,517.45
111.267,415.4,517.96
111.287,413.72,517.57
111.307,412.78,517.65
111.327,413.62,518.32
111.347,412.5,517.86
111.367,410.8,518.29
111.387,411.04,518.43
111.407,411.43,518.54
111.427,411.14,518.43
111.447,411.72,518.95
111.467,412.97,518.76
111.487,412.98,518.01
111.507,413.18,518.21
111.527,412.95,518.56
111.547,412.36,517.85
111.567,412.49,518.48
111.587,412.79,517.78
111.607,412.23,517.63
111.627,411.98,517.5
111.647,411.79,517.4
111.667,411.03,517.52
111.687,410.82,517.62
111.707,410.86,518.09
111.727,410.29,517.47
111.747,411.23,517.18
111.767,412.38,517.54
111.787,411.31,516.64
111.807,411.25,516.51
111.827,411,517.41
111.847,411.4,516.53
111.867,408.92,516.42
111.887,409.33,516.94
111.907,408.47,516.95
111.927,409.57,517.76
111.947,409.26,518.21
111.967,409.41,518.97
111.987,409.33,519.37
112.007,409.46,519.1
112.027,408.77,517.88
112.047,408.21,516.3
112.067,408.17,517.44
112.088,406.34,517.75
112.108,404.47,518
112.128,403.98,517.6
112.148,404.98,516.88
112.168,404.58,516.91
112.188,405.07,517.52
112.208,405.25,516.62
112.228,405.2,516.1
112.248,404.96,516.08
112.268,404.77,515.66
112.288,406.82,516.33
112.308,416.05,521.26
112.328,432.44,530.81
112.348,452.95,544.05
112.368,475.96,556.44
112.388,498.97,564.55
112.408,517.98,567.84
112.428,531.58,568.47
112.448,539.66,565.38
112.468,543.13,558.9
112.488,542.31,550.52
112.508,536.44,541.42
112.528,528.76,537.73
112.548,521.8,528.19
112.568,511.64,519.95
112.588,502.31,514.56
112.608,493.05,510.45
112.628,483.04,507.16
112.648,473.83,505.33
112.668,465.27,503.26
112.688,457.41,504.41
112.708,450.53,505.53
112.728,444.62,505.82
112.748,438.5,506.66
112.768,434.6,508.53
112.788,429.88,510.02
112.808,424.9,512.22
112.828,421.52,513.37
112.848,418.62,515.1
112.868,416.09,515.68
112.888,413.88,516.74
112.909,410.9,516.99
112.929,408.92,517.2
112.949,406.74,516.96
112.969,405.79,516.37
112.989,404.43,516.29
113.009,403.95,516.03
113.029,402.76,514.43
113.049,402,514.94
113.069,402,514.75
113.089,401.2,515.4
113.109,401.16,516.52
113.129,402.33,517.82
113.149,397.66,517.85
113.169,384.53,517.28
113.19,369.02,516.43
113.21,348.42,513.14
113.23,328.54,509.31
113.25,308.03,503.65
113.27,289.42,496.52
113.29,274.54,490.22
113.31,264.23,484.77
113.33,261.98,481.42
113.35,265.19,480.93
113.37,271.95,480.95
113.39,279.56,481.96
113.41,289.85,483.37
113.43,299.68,485.69
113.45,310.74,489.15
113.47,321.59,491.52
113.49,331.48,494.42
113.51,340.18,497.54
113.53,346.34,499.83
113.55,354.28,502.66
113.57,361.02,504.93
113.59,366.82,507.14
113.61,371.45,508.92
113.63,375.76,510.93
113.65,378.41,511.55
113.67,380.93,512.64
113.69,384.14,513.11
113.71,386.11,513.09
113.73,388.49,512.07
113.75,391.19,512.26
113.77,391.75,514
113.79,393,514
113.81,395.2,514.2
113.83,395.76,514.16
113.851,398.01,514.93
113.871,397.81,515.74
113.891,398.05,516
113.911,398.24,515.8
113.931,399.39,515.24
113.951,399.31,514.39
113.971,400.25,514.31
113.991,400.6,515.25
114.012,401.88,515.8
114.032,402.7,516.24
114.052,403.96,516.39
114.072,405.17,516.71
114.092,405.94,517.17
114.112,407.15,517.14
114.132,407.72,517.11
114.152,408.38,517.29
114.172,408.1,517.23
114.192,409.08,517.38
114.212,409.06,517.31
114.232,409.25,516.65
114.252,409.2,516.12
114.272,408.36,516.29
114.292,408.69,516.43
114.312,408.35,516.35
114.332,408.28,516.48
114.352,409.02,516.58
114.372,409.82,516.27
114.392,409.26,514.81
114.412,409.4,515.25
114.432,409.52,515.6
114.452,409.02,515.48
114.472,409.22,516.38
114.492,408.77,516.71
114.512,409.22,516.57
114.532,408.77,516.65
114.552,408.82,516.52
114.572,409.86,517.02
114.592,411.28,517.21
114.612,412.43,517.57
114.632,412.54,517.06
114.652,413.03,517.45
114.672,414.23,516.56
114.692,413.98,516.85
114.712,413.79,516.48
114.732,412.83,516.18
114.752,412.46,516.54
114.772,412.17,515.84
114.792,412.54,517.27
114.812,411.83,517.41
114.832,410.86,517.13
114.852,412.49,518.11
114.872,412.39,518.88
114.892,411.31,518.71
114.912,412.45,519.17
114.932,412.16,517.33
114.952,412.53,516.67
114.972,413.02,515.13
114.992,414.62,514.91
115.012,414.09,513.93
115.032,413.28,512.94
115.052,412.62,512.15
115.072,412.5,512.52
115.092,412.2,511.82
115.112,411.56,511.45
115.132,411.45,511.36
115.152,411.36,510.69
115.172,412.49,510.35
115.192,412.59,510.08
115.212,412.87,511.47
115.232,413.3,511.77
115.252,413.04,512.22
115.272,412.23,513.37
115.292,412.38,513.3
115.312,413.31,513.64
115.332,413.45,513.71
115.352,414.56,514.17
115.372,414.45,515.54
115.392,414.16,516.23
115.412,414.72,516.18
115.432,415.58,516.35
115.452,416.46,516.08
115.472,417.17,515.66
115.492,416.74,515.33
115.512,416.79,514.26
115.532,416.23,514.61
115.552,415.79,514.49
115.572,415.63,514.39
115.592,416.1,514.31
115.612,416.48,515.05
115.632,415.19,514.04
115.652,416.75,514.23
115.672,416.4,513.99
115.692,416.72,514.19
115.712,416.78,513.35
115.732,417.82,514.88
115.752,418.06,514.7
115.772,418.04,514.96
115.792,418.44,514.77
115.812,418.55,514.42
115.832,418.44,514.33
115.852,417.55,514.27
115.872,417.64,514.61
115.892,417.91,515.49
115.912,417.73,515.99
115.932,418.58,516.39
115.952,417.67,516.32
115.972,418.53,517.25
115.992,418.23,517.2
116.012,418.78,517.56
116.032,419.43,516.85
116.052,420.54,516.68
116.072,420.03,516.54
116.092,420.63,514.83
116.112,420.1,514.67
116.132,418.88,513.13
116.153,419.5,514.11
116.173,419.6,514.09
116.193,420.28,515.07
116.213,420.23,515.45
116.233,420.78,516.96
116.253,420.62,515.57
116.273,421.3,513.46
116.293,420.04,512.77
116.313,419.83,513.41
116.333,419.47,511.53
116.353,419.97,511.82
116.373,424.78,514.66
116.393,435.62,520.73
116.413,453.3,530.38
116.433,474.24,541.71
116.453,495.99,551.36
116.473,514.99,558.09
116.493,531.99,561.07
116.513,542.8,559.46
116.533,548.64,556.17
116.553,550.71,550.13
116.573,548.97,542.71
116.593,544.57,534.57
116.613,537.66,526.65
116.633,529.53,519.92
116.653,520.62,516.14
116.673,511.1,513.71
116.693,501.88,510.97
116.713,492.9,510.17
116.733,484.32,510.74
116.753,476.46,510.39
116.773,468.57,511.51
116.793,461.65,513.01
116.813,456.12,513.81
116.833,451.7,514.65
116.853,446.76,515.32
116.873,443.41,515.05
116.893,440.53,515.84
116.913,437.42,517.07
116.933,434.14,518.06
116.953,431.11,519.25
116.973,428.49,520.6
116.993,427.19,521.68
117.013,426.15,522.54
117.033,425.52,523.83
117.053,424.82,524.87
117.073,424.85,525.09
117.093,423.88,525.28
117.113,423.51,525.42
117.133,421.61,524.94
117.153,421.08,524.55
117.173,421.47,524.24
117.193,422.57,524.59
117.213,422.66,524.07
117.233,424.13,524.26
117.253,424.7,523.61
117.273,423.36,523.09
117.293,423.29,522.67
117.313,420.03,522.93
117.333,410.83,525.15
117.353,395.46,524.92
117.373,374.37,521.93
117.393,351.09,516.55
117.413,328.48,509.84
117.433,309.58,502.67
117.453,293.46,495.14
117.473,280.97,487.51
117.493,278.38,484.21
117.513,282.3,482.97
117.533,289.24,483.37
117.553,297.59,484.9
117.573,308.07,487.72
117.593,317.86,491.37
117.613,327.89,496.1
117.633,337.51,498.88
117.653,346.21,502.7
117.673,354.57,505.96
117.693,363.05,508.57
117.713,370.04,511.46
117.733,375.83,513.97
117.753,381.27,516.37
117.773,386.01,517.7
117.793,390.21,519.36
117.813,393.17,519.69
117.833,396.34,520.35
117.853,398.47,521.48
117.873,400.77,521.78
117.893,402.22,521.43
117.913,404.18,521.34
117.933,406.74,521.07
117.953,407.99,521.26
117.973,409.99,521.61
117.993,411,521.69
118.013,411.2,522.35
118.033,412.76,522.08
118.054,412.61,521.46
118.074,412.28,520.97
118.094,412.63,520.38
118.114,413.5,520.1
118.134,412.6,520.88
118.154,413.48,521.1
118.174,412.59,521.28
118.194,412.27,520.43
118.214,412.41,520.14
118.234,411.93,520.31
118.254,412.55,519.85
118.274,412.84,520.28
118.294,413.27,519.62
118.314,413.02,520.3
118.334,414.01,520.64
118.354,412.61,520.31
118.374,413.09,520.45
118.394,412.67,520.36
118.414,412.94,521.29
118.434,412.55,521.63
118.454,412.04,521.1
118.474,410.83,521.88
118.494,410.47,521.91
118.514,410.17,522.13
118.534,410.74,522.7
118.554,411.19,522.36
118.574,411.55,522.29
118.594,411.84,521.63
118.614,412.07,521.1
118.634,413.26,520.68
118.654,413.41,519.35
118.674,413.73,519.28
118.694,413.98,519.02
118.714,413.98,518.22
118.734,413.39,517.97
118.754,413.11,518.38
118.774,411.89,519.1
118.794,411.11,519.88
118.814,411.09,519.31
118.834,411.27,519.24
118.854,412.02,520
118.874,411.81,520.2
118.894,411.45,520.76
118.914,411.76,520.01
118.934,411.81,519.8
118.954,411.85,519.44
118.974,411.08,519.96
118.994,411.46,519.56
119.014,411.77,520.05
119.034,411.22,519.84
119.055,410.97,520.07
119.075,410.78,519.66
119.095,411.42,520.73
119.115,411.94,521.78
119.135,410.35,522.03
119.155,410.28,522.02
119.175,409.22,522.82
119.195,409.58,522.85
119.215,409.66,522.68
119.235,409.73,521.95
119.255,408.98,521.16
119.275,408.19,521.33
119.295,406.95,521.26
119.315,405.16,520.61
119.335,403.93,520.09
119.355,404.34,519.27
119.375,403.27,518.22
119.395,404.02,517.97
119.415,405.02,517.78
119.435,404.61,517.82
119.455,404.69,517.46
119.475,404.95,517.57
119.495,405.16,516.65
119.515,405.73,516.52
119.535,406.78,516.02
119.555,406.43,514.81
119.575,405.34,514.65
119.595,404.47,514.72
119.615,404.18,515.18
119.635,404.54,515.54
119.655,405.63,515.23
119.675,405.11,515.59
119.695,405.69,515.07
119.715,405.55,515.46
119.735,405.84,515.76
119.755,405.67,515.61
119.775,404.74,515.49
119.795,404.19,514.39
119.815,404.75,515.31
119.835,404.8,514.05
119.855,404.04,514.44
119.875,404.23,514.35
119.895,404.59,513.28
119.915,405.07,514.23
119.935,405.26,514.98
119.955,404.6,515.18
119.975,409.08,516.75
119.995,422.27,521.8
120.015,441.41,531.64
120.035,464.93,543.51
120.055,489.74,555.21
120.075,513,563.57
120.095,531.6,568.25
120.115,545.08,569.4
120.135,550.46,566.52
120.155,550.37,561.02
120.175,546.5,554.01
120.195,539.8,544.61
120.215,531.44,535.49
120.235,520.75,527.79
120.255,509.6,520.83
120.275,497.68,515.47
120.295,488.54,511.37
120.315,478.64,508.1
120.335,468.91,506.88
120.355,460.13,505.9
120.375,452.3,507.92
120.395,444.64,508.14
120.415,437.91,509.11
120.435,432.33,510.29
120.455,428.66,511.83
120.475,424.53,512.66
120.495,421.03,513.33
120.515,417.82,514.47
120.535,415.06,514.97
120.555,412.84,516.18
120.575,410.88,517.14
120.595,409.5,517.51
120.615,408,518.61
120.635,407.4,519.29
120.655,405.72,520.43
120.675,404.38,520.74
120.695,403.3,521.6
120.715,402.84,521.28
120.735,401.07,521.22
120.755,401.66,521.38
120.775,402.33,520.9
120.795,402.26,519.72
120.815,403.01,519.18
120.835,402.81,519.74
120.855,400.65,520.99
120.875,394.92,521.79
120.895,384.33,522.64
120.915,367.87,522.91
120.935,348.29,521.53
120.955,327.03,518.22
120.975,306.63,512.38
120.995,288.5,504.1
121.015,272.8,495.68
121.035,263.64,488.15
121.055,263.11,483.92
121.075,266.89,482.73
121.095,273.91,481.99
121.115,282.73,483.39
121.135,292.98,485.31
121.155,302.99,487.25
121.175,312.59,490.2
121.195,322.87,492.96
121.215,332.9,495.37
121.235,341.72,498.49
121.255,350.37,501.6
121.275,356.7,503.48
121.295,362.56,505.98
121.315,367.45,506.78
121.335,372.16,509.03
121.355,375.53,509.22
121.375,379.22,509.98
121.395,382.18,510.58
121.415,384.54,511.47
121.435,386.83,511.97
121.455,388.67,511.58
121.475,389.93,510.86
121.495,390.95,511.29
121.515,392.16,512.03
121.535,394.13,512.43
121.555,395.1,511.94
121.575,396.68,512.35
121.595,396.14,512.08
121.615,397.52,512.67
121.635,398.21,513.13
121.655,398.37,513.91
121.675,397.9,514.92
121.695,398.52,513.94
121.715,398.21,512.95
121.735,397.97,512.36
121.755,397.78,511.09
121.775,397.82,511.67
121.795,397.26,510.94
121.815,398.01,510.75
121.835,398,510
121.855,398.2,509.4
121.876,399.56,509.12
121.896,399.25,510.1
121.916,400.4,510.08
121.936,400.12,510.66
121.956,400.3,511.33
121.976,401.44,512.66
121.996,401.35,512.73
122.016,402.08,512.98
122.036,402.26,513.19
122.056,403.61,512.55
122.076,403.29,512.64
122.097,403.23,512.91
122.117,403.38,513.13
122.137,404.11,513.9
122.157,404.49,512.12
122.177,405.39,512.5
122.197,404.11,513
122.217,403.69,513.8
122.237,402.55,513.64
122.257,401.64,513.91
122.277,401.51,514.13
122.297,402.41,515.1
122.317,403.13,515.88
122.338,404.7,515.91
122.357,404.76,514.72
122.377,405.81,513.98
122.397,405.85,514.38
122.417,405.68,514.91
122.437,405.94,513.93
122.457,405.95,514.74
122.477,405.96,514.79
122.497,406.37,515.23
122.517,406.3,515.79
122.537,406.24,515.23
122.557,406.19,515.78
122.577,405.35,516.23
122.597,406.88,516.18
122.617,407.11,516.55
122.637,407.48,516.44
122.657,407.59,516.35
122.677,407.87,516.48
122.697,407.3,516.18
122.717,407.64,517.55
122.737,407.71,516.84
122.757,407.37,517.07
122.777,407.29,517.26
122.797,407.04,517.4
122.817,407.83,517.32
122.837,407.46,516.86
122.857,407.17,516.69
122.877,407.74,516.95
122.897,408.79,516.36
122.917,408.23,516.49
122.937,408.18,515.99
122.957,408.75,516.39
122.977,408.4,517.31
122.997,407.92,517.85
123.017,408.13,518.08
123.037,409.11,517.86
123.057,409.49,517.49
123.077,410.39,517.59
123.097,410.31,517.47
123.117,410.85,516.78
123.137,410.68,516.62
123.158,412.34,516.9
123.178,412.47,516.12
123.198,412.98,516.3
123.218,413.78,515.24
123.238,413.43,514.99
123.258,414.34,515.19
123.278,415.07,514.35
123.298,415.06,514.48
123.318,414.65,514.99
123.338,414.72,515.19
123.358,414.37,513.95
123.378,414.3,514.56
123.398,414.84,514.25
123.418,416.27,514.2
123.438,415.82,515.96
123.458,424.05,519.17
123.478,442.44,528.53
123.498,467.55,540.03
123.518,494.24,550.82
123.538,517.99,558.86
123.558,536.6,561.69
123.578,548.68,560.35
123.598,554.94,555.88
123.618,555.55,548.9
123.638,552.84,541.72
123.658,547.07,533.78
123.678,539.06,526.62
123.698,530.65,520.9
123.718,520.12,516.52
123.738,510.29,511.41
123.758,500.64,509.13
123.778,491.71,506.91
123.798,483.37,505.92
123.818,475.49,505.94
123.838,467.99,505.75
123.858,461.2,506.8
123.878,456.16,507.04
123.898,450.53,508.43
123.918,447.02,510.15
123.938,442.82,511.12
123.958,439.45,512.69
123.978,436.16,513.55
123.998,432.73,513.84
124.018,429.78,516.08
124.038,428.03,516.06
124.058,425.02,517.05
124.078,425.22,516.84
124.098,423.57,517.07
124.118,423.06,517.86
124.138,422.85,517.69
124.158,421.88,517.75
124.178,421.3,517.8
124.198,420.84,517.84
124.218,420.27,517.87
124.238,420.82,517.1
124.258,420.06,516.88
124.278,418.64,519.5
124.298,411.52,525.8
124.318,400.61,534.64
124.338,386.49,545.91
124.358,368.79,551.73
124.378,347.23,547.58
124.398,326.39,535.47
124.418,306.71,519.17
124.438,291.97,503.14
124.458,281.77,490.31
124.478,281.42,481.65
124.498,285.54,476.32
124.518,292.23,473.46
124.538,301.38,471.16
124.558,312.71,472.13
124.578,322.56,474.11
124.598,332.45,477.28
124.618,341.96,480.43
124.639,350.77,484.74
124.659,359.62,488.39
124.679,367.69,491.71
124.699,374.95,495.17
124.719,382.16,499.54
124.739,387.33,502.43
124.759,392.66,503.94
124.779,396.73,506.76
124.799,400.79,509.2
124.819,404.03,510.76
124.839,404.42,512.01
124.859,406.54,513.01
124.879,409.23,514.21
124.899,410.78,514.77
124.919,411.63,515.21
124.939,413.7,516.57
124.959,414.76,517.46
124.979,415.61,517.36
124.999,415.89,517.49
125.019,416.31,517.59
125.039,416.65,517.47
125.059,417.72,517.58
125.079,417.97,517.66
125.099,418.58,518.13
125.119,420.06,518.9
125.139,420.45,519.12
125.159,420.76,519.9
125.179,421.21,520.12
125.199,421.77,520.1
125.219,423.21,519.48
125.239,422.57,520.18
125.259,423.66,520.34
125.279,422.73,520.28
125.299,421.98,520.02
125.319,422.98,520.42
125.339,422.79,520.53
125.359,423.23,519.63
125.379,423.18,519.7
125.399,422.55,520.16
125.419,422.44,518.93
125.439,421.75,518.74
125.459,421.4,518.39
125.479,421.52,518.72
125.499,421.82,519.57
125.519,421.65,520.26
125.539,423.32,520.21
125.559,424.26,519.37
125.579,424.41,519.29
125.599,424.13,518.83
125.619,424.1,518.47
125.639,423.08,518.17
125.659,422.86,519.34
125.679,422.29,519.87
125.699,422.43,519.5
125.719,420.95,519
125.739,420.36,518.8
125.759,421.29,519.24
125.779,420.43,519.19
125.799,420.54,519.75
125.819,420.03,519.4
125.839,419.83,519.72
125.859,420.26,518.78
125.879,419.61,517.82
125.899,419.29,518.66
125.919,419.23,518.33
125.939,419.58,518.46
125.959,419.67,519.17
125.979,419.13,519.53
125.999,418.11,520.43
126.019,418.09,520.74
126.039,418.47,520.79
126.059,417.37,521.04
126.079,416.9,520.63
126.099,417.32,521.3
126.119,417.86,521.44
126.139,417.88,521.15
126.159,418.51,520.52
126.179,418.41,520.02
126.199,418.12,519.81
126.219,417.9,519.05
126.239,417.72,519.44
126.259,417.78,518.55
126.279,416.62,517.64
126.299,416.9,518.31
126.319,416.92,518.85
126.339,417.73,519.08
126.359,418.19,519.06
126.379,418.75,519.25
126.399,418.6,518.8
126.419,418.68,518.84
126.44,419.14,519.07
126.46,419.52,518.46
126.48,420.61,518.97
126.5,420.29,518.57
126.521,419.83,519.26
126.541,418.67,519.01
126.561,416.93,519.01
126.581,416.15,518.8
126.601,415.52,519.24
126.621,415.21,518.39
126.641,414.17,517.92
126.661,413.74,517.93
126.681,413.39,518.15
126.701,414.51,517.92
126.721,414.21,517.53
126.741,414.17,517.83
126.761,413.93,517.86
126.781,413.15,517.69
126.801,412.52,517.15
126.821,412.61,517.32
126.841,412.09,517.86
126.862,410.47,517.89
126.882,410.18,517.31
126.902,409.14,516.85
126.922,409.11,516.48
126.942,408.49,514.58
126.962,408.19,515.27
126.982,408.35,515.21
127.002,408.68,515.97
127.022,408.75,516.98
127.042,408,517.78
127.062,411,519.42
127.082,422,525.74
127.102,439.6,536.79
127.122,462.48,549.83
127.142,485.98,559.07
127.162,508.59,563.45
127.182,526.47,563.76
127.202,538.18,561.01
127.222,543.74,555.61
127.243,544.19,547.89
127.263,541.35,541.71
127.283,536.68,534.17
127.303,528.35,527.73
127.323,519.68,522.19
127.343,508.34,517.35
127.363,498.47,513.88
127.383,488.78,511.5
127.403,478.82,510.6
127.423,469.06,510.28
127.443,461.25,511.03
127.463,452.8,512.42
127.483,446.44,512.74
127.503,440.55,513.39
127.523,433.84,514.31
127.543,429.27,514.85
127.563,426.42,516.28
127.583,423.13,516.02
127.603,419.11,517.42
127.623,416.89,517.73
127.643,414.11,517.79
127.663,411.89,517.63
127.683,410.71,517.5
127.703,410.17,517.4
127.723,407.93,517.12
127.743,405.75,516.9
127.763,404.8,516.92
127.783,403.64,517.33
127.803,403.51,517.67
127.823,402.41,516.73
127.843,401.73,516.99
127.863,398.58,518.99
127.883,391.87,522.19
127.903,378.09,523.55
127.924,359.07,523.04
127.944,338.26,518.23
127.964,315.61,509.39
127.984,295.69,498.51
128.004,278.35,487.41
128.024,268.48,478.73
128.044,265.78,475.18
128.064,268.03,473.54
128.084,274.22,473.64
128.104,282.38,476.11
128.124,291.9,478.69
128.144,302.52,482.75
128.164,312.82,487.2
128.184,323.25,490.96
128.204,331.6,493.97
128.224,340.28,497.17
128.245,348.63,499.74
128.265,354.5,503.39
128.285,359.8,506.31
128.306,365.44,508.05
128.326,371.35,510.04
128.346,374.88,510.23
128.366,377.91,510.99
128.386,380.12,511.59
128.406,384.3,511.27
128.426,386.84,512.62
128.446,388.47,513.49
128.466,390.18,514.39
128.486,391.34,514.52
128.506,392.27,515.01
128.526,392.62,515.41
128.546,394.5,515.53
128.566,395,515.42
128.586,395.2,515.14
128.606,396.56,515.71
128.626,397.65,515.97
128.646,398.32,515.57
128.666,399.05,515.66
128.686,400.24,516.33
128.706,400.59,516.66
128.726,401.08,517.33
128.746,401.66,517.46
128.766,401.93,516.97
128.786,402.54,516.98
128.806,402.43,516.78
128.826,401.75,516.23
128.846,401.8,516.38
128.866,401.64,516.7
128.886,401.71,517.96
128.906,401.37,517.77
128.926,401.29,518.42
128.946,402.24,519.33
128.966,402.99,519.07
128.986,403.99,518.85
129.006,403.99,519.68
129.026,404.79,519.95
129.046,405.24,519.36
129.066,406.19,519.69
129.086,406.35,519.15
129.106,406.28,519.52
129.126,406.02,519.41
129.146,405.62,518.93
129.166,405.9,517.95
129.186,405.52,517.76
129.206,406.21,518.41
129.226,404.37,518.52
129.246,403.3,518.42
129.266,403.04,517.94
129.286,403.03,518.95
129.306,402.62,517.76
129.327,403.3,517.41
129.347,405.44,517.33
129.366,405.35,517.26
129.387,405.28,516.61
129.407,407.62,518.69
129.428,408.9,516.75
129.448,408.72,516.6
129.468,409.58,516.08
129.488,410.46,516.26
129.508,411.17,516.81
129.528,412.13,516.65
129.548,411.71,515.92
129.567,411.77,516.34
129.588,413.41,516.67
129.608,414.13,516.93
129.628,414.1,516.15
129.648,413.08,516.12
129.667,413.47,516.49
129.688,413.57,517
129.708,414.46,517.4
129.728,414.37,518.12
129.748,414.49,518.29
129.769,415.19,519.23
129.789,414.36,519.39
129.809,415.48,519.51
129.829,415.99,519.21
129.849,417.79,518.37
129.869,418.83,517.49
129.889,420.47,518.19
129.909,420.37,517.36
129.929,420.5,518.28
129.949,420,517.23
129.969,418.8,517.38
129.989,419.04,516.71
130.009,417.43,515.96
130.029,418.34,515.57
130.049,415.68,514.46
130.069,416.34,514.97
130.089,416.07,514.77
130.11,417.06,514.62
130.13,418.45,515.69
130.149,419.16,514.56
130.17,419.33,514.24
130.19,420.26,515.6
130.21,421.61,516.28
130.23,421.89,516.82
130.251,422.71,516.26
130.271,421.97,516.01
130.291,421.97,516.6
130.311,421.98,517.68
130.331,422.18,517.35
130.351,422.15,517.28
130.371,422.12,519.02
130.391,421.49,517.42
130.411,421.6,518.13
130.431,422.28,519.11
130.451,422.82,518.89
130.471,422.26,519.51
130.491,422.41,520.21
130.511,422.32,519.97
130.531,421.86,520.97
130.551,421.09,519.78
130.57,421.07,519.42
130.591,422.26,519.34
130.611,422.6,519.07
130.631,422.68,518.86
130.651,423.15,519.68
130.671,422.72,519.35
130.691,423.37,518.68
130.711,423.1,517.94
130.731,422.68,517.55
130.751,423.94,517.04
130.771,424.55,517.43
130.791,423.24,516.95
130.811,422.4,518.56
130.831,422.12,518.45
130.851,421.49,517.56
130.871,421.19,517.45
130.891,422.16,517.36
130.911,422.52,518.09
130.931,423.42,519.07
130.951,423.34,519.45
130.971,427.07,521.76
130.991,439.65,528.01
131.011,461.72,539.41
131.031,488.38,550.53
131.051,513.5,559.82
131.071,533.2,563.86
131.091,547.16,564.09
131.111,555.73,561.07
131.131,557.58,557.05
131.151,556.87,551.04
131.171,551.49,544.24
131.191,544.79,536.99
131.211,536.04,531.39
131.231,527.03,526.51
131.251,517.22,523.01
131.271,507.98,520.01
131.291,498.98,518.21
131.311,489.59,516.57
131.331,481.07,516.25
131.351,472.46,517.2
131.37,465.76,517.16
131.391,459.61,518.53
131.411,455.29,519.02
131.431,451.43,520.02
131.451,446.94,519.01
131.471,442.76,518.81
131.491,439.6,519.65
131.511,437.48,521.12
131.531,434.99,521.1
131.551,433.39,520.08
131.571,430.31,519.66
131.591,429.25,519.93
131.611,427,521.14
131.631,425.6,521.11
131.651,424.88,521.89
131.671,423.7,521.71
131.69,424.16,520.97
131.711,424.33,519.78
131.732,423.26,519.02
131.752,422.21,519.02
131.772,421.97,518.21
131.791,421.18,518.57
131.812,421.34,518.46
131.832,421.07,519.37
131.851,420.46,518.89
131.872,420.17,519.71
131.892,419.53,519.97
131.912,419.63,519.58
131.932,418.3,519.66
131.951,419.04,519.73
131.972,418.83,520.38
131.992,418.07,520.91
132.011,418.25,521.33
132.031,414.4,527.06
132.052,403.12,535.05
132.072,390.3,544.64
132.092,372.64,552.11
132.112,352.31,552.09
132.132,331.65,544.47
132.152,312.32,530.58
132.172,295.05,516.26
132.192,285.04,503.01
132.212,282.84,494.01
132.232,286.27,488.41
132.251,292.21,484.72
132.272,300.37,482.38
132.292,310.1,482.1
132.312,319.68,482.68
132.332,330.74,483.95
132.352,339.59,485.36
132.373,347.88,486.49
132.393,354.5,489.99
132.413,360.8,493.19
132.434,366.64,494.95
132.454,372.31,496.36
132.474,378.05,498.69
132.494,381.64,500.15
132.514,385.51,502.72
132.533,387.81,505.18
132.553,389.65,504.74
132.574,391.52,505.59
132.594,394.21,506.27
132.615,395.17,506.42
132.635,396.34,507.94
132.655,396.87,508.15
132.675,397.1,508.12
132.695,398.88,508.3
132.715,399.3,509.44
132.734,400.64,510.95
132.755,402.11,511.76
132.775,402.69,511.41
132.795,402.75,510.73
132.815,403.2,510.58
132.835,402.36,510.26
132.855,402.69,511.41
132.875,402.75,510.73
132.895,402.4,511.38
132.915,402.12,512.51
132.935,403.5,513.21
132.955,404,513.56
132.975,404,513.65
132.995,403.8,514.72
133.015,403.64,514.98
133.034,403.71,515.98
133.054,402.77,516.59
133.075,401.61,516.27
133.095,402.29,516.21
133.115,401.63,515.57
133.135,401.71,515.86
133.155,400.77,516.29
133.175,401.01,515.83
133.195,400.61,515.86
133.215,401.69,516.29
133.234,402.15,516.23
133.255,401.92,516.39
133.275,401.34,515.91
133.295,402.47,515.73
133.315,399.78,517.58
133.335,397.62,520.07
133.355,395.3,521.85
133.375,394.64,523.48
133.395,394.51,523.79
133.415,392.81,522.63
133.435,393.05,521.9
133.455,393.24,520.92
133.474,394.39,520.14
133.495,394.91,517.91
133.514,396.13,516.33
133.535,396.3,514.86
133.555,396.84,513.29
133.575,397.27,512.63
133.595,397.42,511.31
133.615,398.74,512.24
133.635,398.79,513
133.655,399.23,511.8
133.675,400.38,512.04
133.695,399.31,511.63
133.715,399.05,512.1
133.735,399.04,511.88
133.755,398.63,512.51
133.775,399.1,513.81
133.795,399.08,514.64
133.815,398.87,515.32
133.835,399.29,515.65
133.855,399.83,515.32
133.875,400.07,515.06
133.895,400.65,516.25
133.915,402.12,516.8
133.935,401.5,517.84
133.954,403,518.67
133.974,401.6,520.34
133.995,399.88,517.67
134.015,397.5,507.74
134.035,393,489.19
134.055,388.8,466.75
134.075,387.04,451.4
134.095,385.03,439.72
134.114,383.43,431.18
134.135,379.74,427.74
134.155,378.19,427.39
134.174,378.15,431.71
134.195,378.12,431.37
134.215,377.9,439.5
134.235,378.52,449
134.255,381.62,461
134.275,384.69,468.8
134.295,387.95,477.84
134.314,392.16,486.67
134.334,392.73,489.14
134.354,393.78,495.31
134.375,391.43,515.05
134.395,391.94,529.04
134.415,393.75,538.83
134.434,393.2,542.06
134.454,393.36,545.05
134.475,393.09,544.44
134.495,393.47,537.35
134.515,395.58,533.68
134.535,396.86,540.35
134.554,397.29,536.68
134.574,395.43,531.14
134.595,398.15,526.11
134.615,397.92,533.49
134.635,400.13,534.39
134.654,403.71,532.91
134.675,403.97,542.93
134.694,401.37,540.94
134.715,411.9,542.36
134.735,410.52,553.48
134.754,412.01,554.99
134.775,410.01,541.39
134.795,412.41,552.71
134.815,408.73,538.57
134.834,409.98,517.66
