Program Time [s],data 0,data 1
49.61501,467.52,593.41
49.63455,469.13,593.38
49.65456,469.15,592.90
49.67569,468.45,593.14
49.69424,470.19,592.60
49.71490,467.59,592.25
49.73491,465.04,587.81
49.75531,467.16,588.93
49.77448,468.99,591.26
49.79585,467.45,589.55
49.81491,468.18,587.81
49.83620,468.02,587.21
49.85607,470.58,585.30
49.87461,468.46,583.89
49.89593,469.53,583.48
49.91574,466.83,586.01
49.93569,466.61,585.64
49.95493,467.28,583.78
49.97492,468.96,584.51
49.99625,467.19,584.59
50.01741,467.05,586.31
50.03533,465.26,583.68
50.05615,463.21,583.37
50.07662,465.65,582.68
50.09578,463.07,583.02
50.11535,462.34,582.59
50.13701,464.06,582.57
50.15565,463.61,579.84
50.17630,466.52,582.26
50.19683,467.75,580.33
50.21613,467.70,581.30
50.23595,465.82,584.68
50.25681,465.82,582.56
50.27664,466.65,584.08
50.29719,466.70,583.17
50.31668,464.55,585.18
50.33579,465.46,583.48
50.35597,464.69,586.79
50.37659,465.12,584.81
50.39616,465.01,585.31
50.41715,467.21,582.44
50.43691,464.91,584.26
50.45642,463.14,584.49
50.47723,461.50,581.66
50.49535,454.69,578.15
50.51556,439.66,572.93
50.53626,422.42,566.30
50.55664,402.62,560.54
50.57590,386.24,553.20
50.59677,369.14,544.16
50.61526,358.87,533.92
50.63664,345.63,528.09
50.65718,340.56,523.07
50.67694,340.28,520.70
50.69688,339.88,517.65
50.71823,341.80,519.87
50.73785,347.78,523.25
50.75819,350.91,523.07
50.77778,361.35,528.37
50.79725,369.32,535.17
50.81810,377.05,540.15
50.83739,383.87,545.37
50.85675,391.69,548.50
50.87743,400.19,550.52
50.89799,406.31,555.30
50.91739,414.46,559.07
50.93776,416.01,562.07
50.95799,422.55,565.16
50.97689,427.89,566.36
50.99636,431.83,569.17
51.01771,435.13,574.67
51.03733,437.31,573.80
51.05623,440.28,577.75
51.07771,445.85,580.30
51.09714,447.70,582.40
51.11736,449.64,582.47
51.13630,453.65,583.29
51.15729,453.61,581.03
51.17796,453.98,582.70
51.19706,454.36,582.63
51.21682,455.05,580.18
51.23830,455.25,575.69
51.25758,457.18,574.24
51.27656,457.10,574.08
51.29767,459.55,573.76
51.31713,460.85,571.65
51.33806,457.91,570.59
51.35627,465.86,578.15
51.37644,480.86,586.18
51.39717,497.97,597.09
51.41783,517.87,611.57
51.43761,542.23,620.28
51.45750,565.33,633.58
51.47871,584.62,647.09
51.49887,597.97,654.72
51.51918,602.46,653.29
51.53981,596.25,647.73
51.55962,590.04,645.68
51.57840,582.09,638.78
51.59862,570.02,629.70
51.61912,560.53,622.61
51.63909,550.55,618.78
51.65886,538.14,612.78
51.67964,528.02,607.45
51.70140,517.98,604.35
51.72126,512.17,600.70
51.74073,503.95,598.53
51.76062,496.67,597.12
51.78018,492.08,593.31
51.80072,484.56,590.57
51.82030,482.35,589.68
51.84108,475.40,591.45
51.86189,470.12,586.89
51.88119,467.57,588.62
51.90048,463.89,585.47
51.92182,464.46,585.68
51.94041,462.82,587.06
51.96191,461.52,588.45
51.98204,459.88,591.90
52.00188,458.76,593.70
52.02224,456.06,597.97
52.04199,456.84,596.29
52.06136,453.19,597.44
52.08083,451.30,597.23
52.10209,452.00,595.96
52.12080,453.41,593.78
52.14103,451.47,595.33
52.16206,453.99,596.57
52.18136,453.09,592.43
52.20131,452.58,593.34
52.22047,453.81,591.58
52.24065,451.76,590.87
52.26064,454.82,589.84
52.28041,453.01,588.75
52.30047,452.20,587.39
52.32099,453.66,584.09
52.34063,451.00,586.31
52.36071,452.16,585.86
52.38056,454.64,584.42
52.40094,453.72,584.72
52.42044,452.94,583.34
52.44101,454.10,583.35
52.46088,454.49,583.90
52.48148,453.40,585.51
52.50230,452.07,584.64
52.52221,450.96,582.15
52.54107,451.08,579.47
52.56126,453.74,581.46
52.58237,451.97,576.80
52.60078,450.35,578.76
52.62200,452.17,580.09
52.64040,453.40,579.89
52.66127,450.32,578.27
52.68161,451.40,578.94
52.70174,449.20,579.56
52.72109,450.40,580.31
52.74200,450.77,581.27
52.76121,447.90,580.38
52.78169,451.05,579.83
52.80121,449.69,581.57
52.82126,451.56,580.50
52.84131,449.83,582.08
52.86090,450.22,581.06
52.88068,451.15,580.08
52.90130,450.13,578.91
52.92049,452.12,578.72
52.94179,450.36,581.72
52.96059,451.83,579.90
52.98116,451.05,579.54
53.00106,453.63,580.11
53.02031,452.48,584.34
53.04229,448.97,582.84
53.06030,451.33,583.56
53.08156,451.36,585.04
53.10076,449.94,584.27
53.12107,451.80,582.72
53.14166,448.38,583.68
53.16097,448.77,582.76
53.18039,449.52,582.83
53.20141,450.64,582.15
53.22128,451.87,583.46
53.24181,451.90,581.99
53.26013,450.53,582.22
53.28136,450.49,582.00
53.30101,450.36,582.41
53.32176,454.45,581.49
53.34111,454.26,581.08
53.36111,451.74,582.67
53.38118,452.74,582.66
53.40205,455.56,583.48
53.42180,452.82,581.07
53.44222,454.58,583.02
53.46119,454.80,581.70
53.48134,450.95,578.95
53.50075,452.01,580.52
53.52186,452.28,577.31
53.54153,451.45,577.49
53.56110,451.46,578.80
53.58144,452.64,578.91
53.60070,449.81,575.71
53.62223,452.21,573.00
53.64156,450.21,572.84
53.66031,453.31,569.53
53.68200,452.59,571.68
53.70108,452.92,571.20
53.72169,450.29,570.79
53.74166,450.65,571.10
53.76202,453.03,571.64
53.78154,449.58,574.08
53.80193,452.94,574.62
53.82092,448.73,577.03
53.84064,450.88,576.03
53.86164,451.21,577.88
53.88179,451.09,580.48
53.90260,450.98,579.47
53.92129,451.64,577.81
53.94284,450.45,579.90
53.96279,450.97,577.94
53.98304,449.64,577.26
54.00200,452.94,579.43
54.02247,452.35,579.00
54.04261,450.43,580.00
54.06175,453.45,580.61
54.08160,451.36,578.23
54.10153,445.97,578.52
54.12229,440.53,573.56
54.14290,424.67,570.02
54.16315,404.95,561.68
54.18161,385.67,555.23
54.20302,370.32,547.14
54.22131,356.50,541.40
54.24267,345.12,533.00
54.26281,335.46,527.35
54.28257,332.06,519.87
54.30254,331.32,519.28
54.32227,334.40,516.55
54.34242,339.29,516.55
54.36275,343.78,521.02
54.38385,351.16,529.49
54.40321,358.60,533.46
54.42327,367.25,538.53
54.44264,374.43,545.92
54.46402,381.22,551.73
54.48349,388.40,554.85
54.50296,395.64,559.85
54.52216,404.74,565.14
54.54271,410.33,567.41
54.56377,416.54,568.32
54.58373,422.96,570.99
54.60257,427.32,570.39
54.62246,431.59,572.56
54.64316,433.81,574.50
54.66265,435.43,575.89
54.68404,439.21,577.75
54.70241,442.34,578.34
54.72425,442.59,578.01
54.74212,444.45,580.47
54.76236,447.20,578.44
54.78349,446.22,580.12
54.80362,450.14,581.66
54.82303,448.79,581.91
54.84218,449.06,582.81
54.86281,449.30,583.15
54.88286,451.66,580.04
54.90275,451.32,583.49
54.92265,454.77,581.11
54.94295,456.59,583.12
54.96275,455.32,580.80
54.98405,454.80,584.59
55.00368,455.23,580.76
55.02349,453.52,583.21
55.04248,454.12,581.15
55.06328,456.00,581.09
55.08396,453.09,583.95
55.10233,455.26,581.82
55.12224,466.27,591.07
55.14381,480.14,600.68
55.16298,500.88,614.69
55.18327,522.66,631.34
55.20234,548.79,644.39
55.22318,574.32,656.91
55.24233,593.57,663.23
55.26278,605.48,666.12
55.28345,606.53,658.19
55.30281,604.51,654.65
55.32394,595.56,644.05
55.34423,588.43,636.32
55.36379,576.36,629.81
55.38342,566.00,623.29
55.40252,551.53,618.74
55.42310,542.44,615.19
55.44322,529.82,610.13
55.46399,521.30,605.23
55.48340,514.71,599.38
55.50320,506.52,600.48
55.52377,500.32,597.84
55.54339,494.14,593.46
55.56273,486.57,592.90
55.58305,484.38,592.18
55.60263,479.60,591.30
55.62292,475.78,588.90
55.64357,473.45,589.66
55.66270,471.23,588.90
55.68308,466.66,586.56
55.70388,467.96,588.51
55.72409,464.77,586.81
55.74281,462.71,585.77
55.76342,459.49,583.01
55.78399,459.00,583.73
55.80376,458.49,582.33
55.82377,459.51,580.28
55.84512,458.84,578.58
55.86368,458.88,579.82
55.88360,458.31,577.16
55.90490,458.16,580.14
55.92471,459.02,581.14
55.94475,457.95,583.08
55.96499,459.01,581.54
55.98445,458.63,582.90
56.00391,461.21,580.98
56.02502,457.91,580.74
56.04416,460.17,582.26
56.06414,460.41,583.22
56.08342,461.69,584.12
56.10427,463.24,582.36
56.12324,463.48,579.92
56.14489,460.73,581.69
56.16464,459.66,582.06
56.18430,462.09,581.91
56.20423,461.31,582.46
56.22324,460.21,578.34
56.24336,459.97,577.03
56.26427,460.58,571.72
56.28377,460.30,571.32
56.30448,458.30,571.18
56.32417,459.69,571.57
56.34342,459.01,571.78
56.36517,461.68,572.51
56.38434,461.34,572.49
56.40428,460.25,575.71
56.42312,460.43,575.89
56.44363,461.13,576.33
56.46506,460.26,579.49
56.48411,461.95,580.05
56.50356,460.80,581.58
56.52462,462.15,579.80
56.54373,461.72,580.85
56.56494,462.56,581.57
56.58392,462.19,582.58
56.60483,460.20,584.89
56.62489,462.33,581.47
56.64490,462.87,580.68
56.66444,463.45,582.22
56.68502,461.57,582.94
56.70459,461.86,585.36
56.72371,458.31,583.51
56.74527,460.13,583.59
56.76333,456.68,585.20
56.78353,458.27,585.17
56.80340,457.67,586.69
56.82450,457.81,587.98
56.84449,457.79,590.26
56.86366,459.96,592.36
56.88471,459.83,596.70
56.90398,456.97,594.66
56.92439,457.97,594.17
56.94495,456.41,592.78
56.96378,457.96,592.67
56.98414,460.37,592.04
57.00429,457.52,590.55
57.02311,460.77,590.39
57.04434,459.96,589.64
57.06379,457.55,587.41
57.08489,460.54,587.91
57.10376,461.15,587.39
57.12398,457.06,583.07
57.14459,458.18,584.04
57.16359,459.35,581.50
57.18354,456.92,583.49
57.20422,458.94,582.84
57.22343,458.24,584.03
57.24490,458.34,583.33
57.26326,459.82,581.94
57.28510,459.43,580.21
57.30397,462.99,581.75
57.32318,464.34,581.86
57.34489,464.27,581.51
57.36322,462.21,580.62
57.38380,463.64,582.24
57.40448,459.54,580.86
57.42424,461.88,579.43
57.44440,462.56,579.05
57.46422,459.56,577.50
57.48531,461.37,576.73
57.50415,463.98,575.56
57.52517,463.65,576.56
57.54649,463.15,576.37
57.56697,465.59,577.68
57.58680,468.60,577.22
57.60553,467.86,577.25
57.62574,465.61,575.77
57.64571,465.55,577.87
57.66737,466.70,577.17
57.68743,467.70,576.40
57.70750,469.38,577.64
57.72900,470.34,578.00
57.74936,467.01,581.55
57.76862,468.35,580.62
57.78988,467.25,579.20
57.80919,469.69,581.15
57.82937,468.73,579.82
57.84989,468.16,580.12
57.86889,467.35,580.25
57.88974,469.58,580.63
57.90967,468.77,578.33
57.92943,470.34,580.33
57.94867,468.75,575.42
57.96824,468.12,578.75
57.98890,468.74,578.35
58.00965,468.92,579.76
58.02954,467.93,579.19
58.04815,471.70,580.42
58.06893,469.41,579.06
58.08899,469.88,579.79
58.10953,471.19,580.80
58.12935,471.43,579.99
58.15026,474.87,582.78
58.16945,473.31,583.41
58.19002,474.59,580.29
58.20852,469.04,581.45
58.22835,456.57,579.79
58.24912,435.98,581.38
58.26822,419.11,583.13
58.28986,399.49,582.74
58.30853,381.29,574.36
58.32914,365.42,565.06
58.34927,353.36,555.12
58.37018,348.39,537.49
58.38939,348.65,524.58
58.40994,346.33,509.16
58.42893,351.29,502.17
58.44873,356.87,498.27
58.46849,360.18,498.17
58.48882,367.34,503.44
58.50929,376.59,505.30
58.53037,384.41,512.86
58.54830,391.89,518.82
58.56971,397.67,523.07
58.58980,409.36,532.45
58.60921,414.94,535.84
58.62915,423.34,540.91
58.64898,429.91,549.25
58.66865,432.40,551.13
58.68949,441.27,557.11
58.70917,444.71,558.66
58.72815,447.95,563.56
58.74909,452.07,562.75
58.76967,453.52,568.16
58.78900,456.45,572.91
58.80981,455.38,573.44
58.82889,457.31,574.27
58.84867,458.74,575.42
58.86861,459.50,574.79
58.88837,460.87,578.69
58.90908,464.25,579.70
58.92949,466.20,577.96
58.94874,464.07,579.18
58.96968,467.12,578.61
58.98876,465.79,578.44
59.00902,468.80,579.48
59.02867,469.02,575.61
59.04956,471.04,576.00
59.06833,471.44,572.47
59.08993,473.00,574.33
59.10852,473.70,570.12
59.12873,481.02,577.16
59.14910,491.90,584.60
59.16848,510.40,599.97
59.19000,532.36,614.68
59.21010,555.42,628.80
59.22868,577.66,642.00
59.24911,600.12,650.67
59.26905,617.11,658.81
59.28978,624.18,659.09
59.30832,623.94,653.81
59.32996,616.68,642.74
59.34903,608.75,638.23
59.36884,595.73,629.05
59.38843,582.95,622.31
59.40842,573.78,616.21
59.42878,560.35,610.35
59.44854,549.91,609.31
59.46998,543.87,604.43
59.48944,531.94,601.37
59.50927,525.34,599.18
59.52841,516.93,596.87
59.54956,510.74,595.74
59.56836,507.22,593.26
59.58948,502.29,590.97
59.60938,496.58,589.69
59.62987,493.21,588.02
59.64859,491.35,588.83
59.66916,490.12,589.24
59.68947,487.19,587.18
59.70967,485.60,587.01
59.72878,484.92,586.81
59.74872,481.02,583.84
59.76822,479.97,585.43
59.79003,478.30,586.45
59.81003,477.13,585.92
59.82830,475.73,585.03
59.84855,472.82,589.83
59.86980,475.89,591.68
59.88894,473.25,592.08
59.90994,474.72,597.00
59.92834,475.70,597.98
59.94821,473.65,598.11
59.96869,474.66,596.36
59.98981,474.26,596.82
60.00939,472.23,598.56
60.03052,473.35,594.61
60.04994,472.44,597.18
60.07118,474.35,594.81
60.08958,472.58,594.15
60.11031,474.69,595.52
60.12948,473.08,591.51
60.15042,473.33,594.13
60.16930,472.43,591.75
60.18922,472.90,589.67
60.21021,471.35,590.88
60.23041,469.18,589.53
60.24937,469.71,588.53
60.27070,470.36,589.32
60.29085,471.43,585.58
60.31031,470.67,586.44
60.33070,470.94,587.11
60.34963,472.00,585.88
60.36960,469.92,585.46
60.38928,473.22,583.99
60.41092,471.95,584.14
60.43077,471.70,585.17
60.45116,469.62,583.55
60.47044,469.89,585.28
60.49054,467.69,587.35
60.51086,469.34,585.10
60.52972,468.81,586.31
60.54920,469.87,586.77
60.56957,469.72,585.29
60.58929,469.28,584.03
60.61067,470.37,584.38
60.63064,468.68,584.82
60.65109,469.97,581.46
60.67117,471.35,580.95
60.68967,468.15,580.34
60.70893,470.10,582.26
60.73167,467.94,583.27
60.75181,471.11,581.50
60.77171,469.63,580.30
60.79040,466.75,578.80
60.81214,465.19,580.51
60.83185,466.92,579.52
60.85024,465.34,580.93
60.87027,469.34,582.01
60.89162,467.75,580.49
60.91030,470.12,582.40
60.93225,471.18,582.15
60.95106,473.10,583.29
60.97029,472.28,584.50
60.99064,470.83,584.87
61.01219,470.92,582.84
61.03240,467.09,583.42
61.05306,468.01,583.51
61.07263,466.76,582.76
61.09278,467.59,579.90
61.11240,463.85,583.02
61.13228,464.43,581.77
61.15249,462.97,584.50
61.17242,463.29,584.13
61.19186,463.41,581.91
61.21146,464.45,583.59
61.23136,463.99,582.29
61.25214,461.24,583.66
61.27285,462.85,582.11
61.29122,460.56,583.61
61.31285,463.05,582.64
61.33234,461.02,581.94
61.35124,463.86,581.55
61.37171,463.62,579.90
61.39255,463.48,580.52
61.41295,461.68,583.57
61.43217,462.98,581.12
61.45180,462.20,581.07
61.47280,465.27,583.29
61.49234,463.88,583.95
61.51135,464.23,582.23
61.53304,462.98,580.51
61.55177,463.53,578.58
61.57137,463.38,580.40
61.59239,463.41,579.80
61.61169,463.56,583.08
61.63189,462.58,579.99
61.65228,462.65,583.21
61.67209,460.56,582.33
61.69112,463.35,585.04
61.71200,459.61,586.33
61.73222,451.09,586.75
61.75242,434.69,583.84
61.77208,416.25,583.98
61.79158,396.11,581.45
61.81244,375.50,578.84
61.83303,360.13,569.15
61.85216,347.89,557.05
61.87242,340.90,546.99
61.89233,337.33,534.92
61.91122,332.97,527.29
61.93262,334.07,518.96
61.95137,340.30,512.53
61.97216,343.65,511.79
61.99271,348.83,509.82
62.01281,358.01,513.83
62.03149,367.32,517.56
62.05212,376.76,521.49
62.07153,385.09,526.85
62.09274,394.24,532.96
62.11175,399.28,537.06
62.13208,410.50,543.14
62.15232,415.09,548.61
62.17228,420.04,552.37
62.19212,426.30,556.36
62.21104,431.96,562.41
62.23130,433.64,562.64
62.25111,437.22,566.55
62.27130,442.18,567.57
62.29205,445.93,569.91
62.31151,448.82,570.39
62.33246,451.88,566.03
62.35194,454.28,566.00
62.37212,453.35,565.31
62.39235,456.25,566.35
62.41228,457.56,566.45
62.43279,458.31,570.10
62.45178,456.46,569.78
62.47170,458.60,568.88
62.49294,457.24,572.26
62.51161,463.56,574.16
62.53209,472.88,584.52
62.55152,489.18,594.51
62.57230,509.10,604.24
62.59272,532.07,616.69
62.61172,556.28,627.52
62.63273,579.26,639.12
62.65127,597.72,650.16
62.67176,611.85,654.43
62.69294,619.36,653.25
62.71121,614.48,648.18
62.73169,609.39,642.51
62.75166,597.91,639.73
62.77188,586.59,631.27
62.79273,573.73,621.34
62.81110,563.99,617.91
62.83206,550.84,610.97
62.85197,539.53,609.17
62.87299,529.72,604.47
62.89210,518.87,600.55
62.91123,510.90,596.28
62.93091,508.38,592.16
62.95210,500.23,591.71
62.97153,496.28,589.38
62.99207,491.50,587.77
63.01213,488.20,587.76
63.03192,483.44,586.30
63.05225,477.71,586.78
63.07121,477.78,585.36
63.09172,471.91,583.10
63.11258,471.93,585.29
63.13269,468.71,585.89
63.15115,469.69,583.30
63.17289,468.42,586.75
63.19198,469.58,586.29
63.21327,467.05,587.37
63.23135,467.14,592.12
63.25183,463.70,592.04
63.27102,462.28,592.75
63.29111,461.30,594.34
63.31207,460.01,595.70
63.33152,459.20,594.55
63.35244,459.71,593.47
63.37162,460.90,592.17
63.39107,459.18,592.93
63.41182,458.36,591.58
63.43180,457.71,589.87
63.45202,459.85,589.02
63.47200,462.59,591.98
63.49306,460.13,589.65
63.51294,462.14,589.54
63.53192,462.33,587.18
63.55239,459.57,589.01
63.57225,461.93,585.98
63.59265,459.51,585.25
63.61121,462.12,585.50
63.63283,458.23,586.01
63.65282,460.34,584.33
63.67295,462.73,584.04
63.69231,458.86,585.21
63.71194,459.09,586.23
63.73212,460.15,584.18
63.75265,458.19,585.64
63.77267,460.53,582.26
63.79110,459.42,583.05
63.81186,459.36,583.08
63.83266,461.17,584.02
63.85286,459.57,582.67
63.87294,461.49,584.30
63.89214,461.46,583.12
63.91204,459.34,583.19
63.93135,459.38,582.51
63.95135,459.87,583.44
63.97196,459.61,582.56
63.99264,462.48,581.67
64.01176,460.18,585.44
64.03274,459.56,584.65
64.05155,463.45,585.42
64.07263,463.46,583.59
64.09235,461.23,583.37
64.11190,461.11,584.92
64.13337,461.65,585.41
64.15367,457.53,582.91
64.17443,459.85,584.12
64.19505,457.17,584.05
64.21451,457.09,586.05
64.23461,457.36,584.96
64.25568,456.45,587.65
64.27540,458.43,586.69
64.29463,455.01,584.96
64.31579,453.18,585.50
64.33598,452.68,585.33
64.35522,454.59,584.50
64.37529,453.91,582.66
64.39427,453.05,584.18
64.41484,454.24,583.39
64.43509,453.03,582.42
64.45536,452.86,583.32
64.47402,450.99,584.72
64.49434,449.25,582.33
64.51447,453.19,581.60
64.53529,449.80,585.19
64.55546,450.01,583.46
64.57494,452.70,582.42
64.59562,451.41,585.01
64.61444,451.64,585.32
64.63495,453.33,583.93
64.65468,449.95,585.48
64.67539,450.26,585.21
64.69441,449.17,584.98
64.71501,450.44,584.03
64.73421,449.89,585.97
64.75563,453.45,585.54
64.77547,450.71,583.77
64.79553,453.95,584.22
64.81556,451.30,583.92
64.83647,453.17,583.03
64.85674,451.99,581.51
64.87587,455.05,582.61
64.89697,452.89,582.10
64.91641,453.79,584.22
64.93783,454.48,583.07
64.95842,454.10,582.75
64.97854,453.38,581.73
64.99733,455.48,579.05
65.01771,452.41,581.71
65.03699,448.72,575.99
65.05881,433.56,571.09
65.07810,417.17,561.30
65.09723,394.80,556.02
65.11759,373.76,552.46
65.13711,356.75,550.49
65.15804,344.32,544.84
65.17883,337.75,536.78
65.19750,327.86,531.71
65.21818,327.26,529.68
65.23839,326.40,525.54
65.25736,331.94,524.09
65.27720,335.05,522.73
65.29728,341.26,522.60
65.31889,348.70,524.34
65.33890,357.43,527.30
65.35836,364.25,528.64
65.37782,374.00,532.27
65.39852,380.23,538.21
65.41799,388.98,542.11
65.43776,396.78,544.86
65.45720,402.49,551.63
65.47879,409.35,555.00
65.49725,415.49,557.07
65.51724,420.90,559.53
65.53706,426.28,561.47
65.55691,430.35,563.88
65.57721,433.31,568.64
65.59783,436.02,571.06
65.61875,437.59,572.28
65.63761,440.25,571.71
65.65780,439.02,573.38
65.67858,450.61,579.49
65.69847,474.02,593.48
65.71744,502.73,611.36
65.73797,531.40,627.69
65.75877,559.89,639.40
65.77869,586.91,649.81
65.79893,605.32,648.99
65.81714,612.33,647.34
65.83804,612.31,642.58
65.85809,605.33,636.63
65.87854,595.47,630.01
65.89805,584.68,623.26
65.91814,571.43,618.02
65.93741,560.00,611.09
65.95771,547.64,609.23
65.97836,538.37,603.80
65.99800,526.43,601.14
66.01962,520.87,599.87
66.03812,509.95,594.89
66.05811,505.96,596.65
66.07875,497.97,595.53
66.09853,494.35,593.28
66.11807,490.35,593.28
66.13889,482.77,592.00
66.15853,479.21,588.17
66.17829,475.25,588.13
66.19863,476.11,585.31
66.21930,470.22,584.95
66.23969,468.89,585.85
66.25839,466.03,584.58
66.27827,464.16,583.21
66.29948,464.35,585.98
66.31977,463.89,583.37
66.33831,461.60,582.65
66.35969,460.07,580.72
66.37899,462.56,581.51
66.39921,460.14,581.06
66.41947,460.97,582.05
66.43884,460.64,580.80
66.45796,457.29,580.50
66.47864,460.31,579.21
66.49858,456.12,579.60
66.51885,458.30,578.01
66.53840,458.10,578.94
66.55905,461.14,579.82
66.57933,459.20,580.12
66.59895,460.17,581.71
66.61879,459.96,583.79
66.63918,459.98,581.47
66.65859,458.45,582.34
66.67906,457.37,580.34
66.69974,457.33,580.18
66.71914,459.18,580.59
66.73833,457.16,578.79
66.75964,456.43,579.05
66.77916,456.01,580.48
66.79836,457.31,579.85
66.81882,458.37,579.62
66.83812,458.04,578.32
66.85997,456.75,579.47
66.87884,458.66,579.03
66.89950,456.83,578.40
66.91834,456.25,580.11
66.93847,456.17,577.63
66.95967,458.91,579.15
66.97925,459.33,580.87
66.99938,456.66,579.98
67.01973,458.09,581.74
67.03863,457.57,581.59
67.05874,456.25,579.93
67.07915,459.37,583.35
67.09966,455.06,581.85
67.11864,459.95,582.05
67.13910,457.15,583.57
67.15815,458.89,582.65
67.17825,463.46,579.57
67.19923,463.36,580.53
67.21797,463.70,581.28
67.23834,461.75,580.05
67.25866,461.12,580.64
67.27846,459.68,582.71
67.29882,460.18,582.72
67.31965,459.80,581.76
67.33806,459.51,583.05
67.35902,456.40,584.30
67.37799,460.73,583.15
67.39836,458.02,583.24
67.41885,459.88,582.68
67.43852,461.00,581.98
67.45984,460.00,583.56
67.47892,460.32,581.59
67.49848,457.88,583.44
67.51800,458.80,582.99
67.53937,456.43,578.94
67.55848,458.81,573.76
67.57892,456.69,573.71
67.59862,455.27,573.40
67.61920,458.69,570.28
67.63849,459.32,570.88
67.65882,460.50,573.05
67.67861,461.20,574.06
67.69839,463.58,571.49
67.71919,463.13,571.75
67.73903,462.34,573.54
67.75838,457.77,576.91
67.77952,457.46,577.75
67.79960,457.08,574.32
67.81909,457.92,575.95
67.83837,456.78,577.43
67.85887,458.23,579.65
67.87876,457.45,579.92
67.89868,458.46,580.26
67.91876,456.05,578.96
67.93950,458.04,578.56
67.95880,458.05,579.72
67.97932,455.70,580.41
67.99827,456.28,580.06
68.01936,457.39,581.26
68.03914,455.93,579.44
68.05918,459.71,579.35
68.07817,459.74,578.14
68.09839,457.40,580.09
68.11868,457.22,578.46
68.13806,456.82,579.73
68.15877,458.39,576.43
68.17814,458.46,577.94
68.19929,459.37,577.52
68.21791,457.54,581.51
68.23880,457.38,579.21
68.25823,459.05,579.21
68.27916,457.27,580.15
68.29867,457.78,578.72
68.31844,459.27,577.28
68.33921,458.26,578.20
68.35838,457.64,579.01
68.37924,456.86,579.72
68.39977,459.76,580.26
68.41844,461.18,579.28
68.43948,461.01,580.73
68.45899,450.11,575.12
68.47854,435.50,570.30
68.49924,413.28,567.19
68.51935,394.75,562.73
68.53821,373.78,561.09
68.55826,356.63,554.76
68.57946,342.92,546.58
68.59859,333.58,536.13
68.61823,330.51,529.46
68.63771,330.07,522.88
68.65813,332.17,518.98
68.67900,336.09,517.43
68.69979,340.43,518.54
68.71884,348.51,524.75
68.73841,353.96,528.90
68.75907,363.99,534.44
68.77879,372.75,539.16
68.79894,380.20,546.38
68.81871,386.73,549.69
68.83912,396.09,554.91
68.85884,403.54,560.55
68.87867,409.65,564.05
68.89874,417.36,565.60
68.91873,420.18,570.04
68.93996,427.84,572.17
68.95883,430.82,571.55
68.97831,432.86,573.78
68.99934,434.90,572.20
69.01838,440.56,573.14
69.03866,440.20,575.73
69.05948,444.03,576.84
69.07833,446.18,576.52
69.09918,446.20,577.87
69.11976,447.86,579.19
69.13837,449.64,576.83
69.15914,448.92,578.70
69.17797,451.77,577.21
69.19973,453.03,577.13
69.21968,452.88,578.54
69.23950,461.90,579.96
69.25897,478.49,584.40
69.27934,498.07,593.58
69.29921,520.34,604.76
69.31847,549.87,613.20
69.33957,576.19,625.48
69.35918,599.36,631.93
69.37863,613.14,637.43
69.39828,618.72,641.97
69.41810,611.95,636.87
69.43792,604.85,634.46
69.45824,595.68,632.40
69.47919,583.94,626.98
69.49973,572.71,621.51
69.51817,559.30,617.47
69.53981,550.18,614.85
69.55792,536.80,608.70
69.57949,527.54,607.50
69.60064,518.42,606.81
69.61964,514.84,602.97
69.64085,505.64,600.14
69.66063,499.35,597.90
69.67921,494.97,593.34
69.70086,491.09,591.13
69.72066,486.37,590.44
69.73964,484.84,589.35
69.76041,482.61,589.04
69.77991,478.32,589.30
69.80046,474.07,589.62
69.81973,475.98,588.61
69.84083,472.95,586.35
69.86021,471.87,586.60
69.87960,470.41,584.69
69.90039,467.67,585.23
69.91893,467.12,586.43
69.94007,465.90,587.02
69.95914,466.96,585.02
69.97938,465.05,586.34
69.99972,465.23,583.79
70.01927,465.58,584.76
70.04029,467.05,582.66
70.05970,464.72,583.58
70.07930,468.20,582.54
70.09906,466.91,581.05
70.11964,469.16,579.51
70.13929,465.26,580.96
70.16086,466.80,581.18
70.17995,465.58,579.83
70.19899,464.03,580.28
70.21912,463.78,582.29
70.23923,462.04,579.64
70.25982,464.61,580.46
70.28147,465.12,579.88
70.30114,464.61,580.09
70.32091,468.08,582.12
70.34136,467.62,582.18
70.36149,466.81,579.33
70.38086,468.42,581.52
70.40064,469.26,581.13
70.42019,470.36,582.25
70.44070,470.83,581.26
70.46095,472.15,579.10
70.48083,470.15,581.28
70.50059,468.16,579.53
70.51984,467.43,582.36
70.54132,467.02,582.39
70.56014,466.29,581.87
70.58035,468.62,580.51
70.60216,467.86,582.15
70.62110,466.43,580.49
70.64228,467.85,579.41
70.66228,469.30,579.84
70.68138,466.27,581.28
70.70105,468.69,580.31
70.72197,467.69,580.35
70.74222,469.27,581.93
70.76071,466.64,579.31
70.78162,468.63,579.70
70.80270,470.48,582.40
70.82205,468.69,581.88
70.84262,470.03,579.35
70.86214,469.04,578.57
70.88249,470.23,581.10
70.90127,468.82,579.94
70.92109,471.60,579.87
70.94195,471.15,582.93
70.96157,467.99,581.63
70.98181,466.36,581.57
71.00115,468.65,581.96
71.02199,468.40,581.15
71.04128,468.21,582.09
71.06144,467.75,578.94
71.08252,467.15,580.68
71.10233,467.25,580.48
71.12135,467.79,580.14
71.14196,469.84,582.52
71.16177,467.95,581.61
71.18149,470.51,581.48
71.20159,468.31,583.72
71.22147,472.78,581.02
71.24120,471.14,583.94
71.26118,474.12,582.87
71.28166,474.52,582.45
71.30270,474.55,582.41
71.32266,471.86,581.89
71.34093,471.41,584.07
71.36071,472.78,582.08
71.38162,473.60,583.10
71.40133,472.18,580.94
71.42177,472.31,580.83
71.44174,469.69,582.61
71.46140,469.74,582.51
71.48249,471.15,583.48
71.50198,471.40,581.20
71.52262,469.59,581.39
71.54108,470.48,583.77
71.56130,474.07,583.94
71.58194,471.61,579.79
71.60219,472.16,580.69
71.62221,474.34,579.26
71.64224,471.64,578.32
71.66185,472.95,582.13
71.68181,470.91,580.13
71.70188,471.21,582.45
71.72227,472.19,579.83
71.74119,474.90,580.15
71.76260,473.70,581.12
71.78197,475.13,582.34
71.80171,474.56,582.25
71.82108,474.95,582.66
71.84235,473.17,583.43
71.86136,473.25,582.72
71.88224,476.26,581.34
71.90256,476.12,583.53
71.92197,472.19,582.75
71.94237,471.37,579.61
71.96144,471.28,580.44
71.98225,472.39,580.73
72.00213,471.25,577.20
72.02263,468.78,573.30
72.04245,457.10,569.99
72.06142,441.46,559.88
72.08278,421.59,554.40
72.10219,399.61,550.04
72.12190,380.45,541.36
72.14184,365.12,536.26
72.16077,352.74,530.08
72.18129,341.79,524.31
72.20262,339.28,524.18
72.22184,338.95,521.29
72.24100,338.30,522.94
72.26237,346.03,526.90
72.28154,352.31,528.05
72.30138,359.39,534.39
72.32108,369.53,535.20
72.34215,376.41,538.68
72.36245,387.93,543.81
72.38237,398.51,547.69
72.40240,406.40,553.30
72.42114,414.19,557.43
72.44099,420.93,559.78
72.46121,426.33,560.00
72.48090,433.72,562.23
72.50074,439.72,563.88
72.52194,443.71,565.68
72.54157,448.00,567.51
72.56197,452.92,571.07
72.58205,454.13,573.36
72.60111,453.64,571.53
72.62100,458.52,572.27
72.64139,459.77,577.01
72.66200,460.45,575.54
72.68270,463.71,576.70
72.70159,464.18,578.02
72.72108,466.57,580.04
72.74157,463.75,582.63
72.76208,464.18,582.94
72.78163,467.71,581.12
72.80237,469.20,581.65
72.82087,470.03,584.09
72.84188,470.36,580.50
72.86066,468.37,582.60
72.88248,469.58,582.24
72.90140,482.35,588.11
72.92270,505.74,597.12
72.94234,529.05,605.90
72.96119,557.22,616.79
72.98234,581.19,625.46
73.00097,603.75,631.59
73.02156,619.39,634.22
73.04275,623.08,635.42
73.06087,618.47,631.71
73.08177,612.04,628.63
73.10072,601.81,620.23
73.12125,592.08,616.02
73.14081,581.01,611.41
73.16177,569.69,609.19
73.18119,558.85,604.95
73.20170,547.80,603.29
73.22162,540.72,598.63
73.24262,532.66,598.04
73.26103,522.97,595.20
73.28197,519.64,597.17
73.30229,511.71,592.09
73.32117,504.52,590.73
73.34228,502.49,590.45
73.36120,497.81,589.58
73.38166,493.35,588.49
73.40259,489.72,588.03
73.42272,486.70,584.93
73.44186,486.70,585.26
73.46188,482.16,583.66
73.48120,480.27,582.39
73.50166,481.64,585.40
73.52216,477.52,583.91
73.54134,477.31,585.28
73.56178,476.20,584.86
73.58176,475.41,585.28
73.60084,476.05,584.07
73.62220,474.90,584.56
73.64228,475.45,585.71
73.66117,474.20,585.64
73.68137,474.01,584.93
73.70151,472.07,586.02
73.72107,471.84,583.88
73.74166,470.85,586.58
73.76211,470.46,586.71
73.78206,473.98,585.14
73.80165,474.62,587.36
73.82169,473.73,587.09
73.84081,474.32,584.50
73.86242,476.53,586.03
73.88083,474.83,586.82
73.90138,475.63,586.68
73.92105,475.79,586.85
73.94096,475.05,587.10
73.96083,475.83,583.88
73.98221,474.97,585.95
74.00125,476.60,586.07
74.02123,476.45,584.06
74.04123,474.44,586.78
74.06250,475.17,587.37
74.08179,473.90,587.69
74.10123,472.48,588.03
74.12213,473.58,586.83
74.14228,475.59,586.11
74.16062,475.54,586.95
74.18134,474.57,587.44
74.20133,479.86,589.34
74.22148,478.92,587.77
74.24170,483.80,590.34
74.26198,482.87,589.13
74.28077,481.88,591.47
74.30217,482.69,591.21
74.32138,484.80,590.60
74.34215,485.04,590.50
74.36221,484.05,587.92
74.38143,479.02,589.02
74.40151,477.24,585.17
74.42268,478.21,586.89
74.44185,478.51,584.12
74.46149,475.59,588.03
74.48089,475.89,587.46
74.50229,475.29,585.90
74.52155,474.43,583.38
74.54204,474.43,584.43
74.56166,475.40,584.31
74.58114,477.49,583.75
74.60117,476.09,585.21
74.62208,474.41,582.81
74.64197,474.13,584.11
74.66081,475.17,580.82
74.68173,475.94,577.49
74.70103,473.85,577.41
74.72147,473.78,574.43
74.74241,474.87,574.44
74.76070,475.95,571.32
74.78086,475.28,571.48
74.80109,473.78,573.27
74.82234,474.76,571.89
74.84221,473.70,572.90
74.86079,472.66,574.48
74.88069,474.33,575.58
74.90186,473.74,573.99
74.92225,476.11,575.82
74.94190,477.38,577.36
74.96267,473.99,575.73
74.98269,474.39,577.59
75.00268,474.29,579.02
75.02176,473.51,581.83
75.04227,471.78,582.51
75.06109,474.78,582.87
75.08209,473.14,580.23
75.10100,473.12,584.02
75.12241,476.98,580.68
75.14230,474.25,582.09
75.16214,475.78,582.44
75.18198,475.12,582.34
75.20252,475.21,583.26
75.22128,474.99,581.92
75.24218,475.71,580.90
75.26216,473.53,581.17
75.28248,474.06,582.72
75.30308,473.00,580.28
75.32234,477.77,582.35
75.34337,475.76,583.80
75.36170,475.67,581.31
75.38383,477.46,581.83
75.40248,473.62,583.49
75.42215,474.10,582.74
75.44366,474.94,581.18
75.46187,473.35,583.48
75.48210,470.83,583.29
75.50221,470.01,581.09
75.52358,471.56,581.46
75.54219,469.59,582.68
75.56234,472.64,582.78
75.58373,472.23,582.76
75.60288,471.60,581.13
75.62292,470.18,582.11
75.64265,468.80,583.38
75.66278,471.88,582.83
75.68194,468.99,583.13
75.70333,467.49,579.00
75.72358,469.08,581.32
75.74288,468.76,582.52
75.76338,469.80,581.22
75.78226,469.40,580.70
75.80228,473.01,582.03
75.82339,471.70,582.82
75.84352,473.58,581.89
75.86300,471.71,580.02
75.88258,474.60,580.15
75.90322,473.96,581.10
75.92206,471.11,583.71
75.94257,470.76,582.77
75.96246,470.93,585.10
75.98293,473.21,582.78
76.00331,470.73,582.63
76.02220,470.73,583.12
76.04285,470.34,585.04
76.06220,471.17,583.78
76.08214,471.23,585.65
76.10359,471.01,585.08
76.12267,471.99,583.05
76.14337,470.68,586.95
76.16231,471.92,588.23
76.18205,469.69,588.37
76.20182,472.48,589.76
76.22288,472.43,592.87
76.24276,472.34,592.97
76.26281,469.98,591.07
76.28331,468.43,589.00
76.30201,468.03,587.92
76.32375,469.89,590.15
76.34275,467.56,588.89
76.36168,467.73,593.27
76.38257,471.22,594.58
76.40292,470.12,591.58
76.42345,469.23,591.49
76.44358,470.29,593.66
76.46164,467.63,592.88
76.48354,467.61,590.89
76.50252,468.30,590.02
76.52363,469.34,593.59
76.54232,470.75,589.28
76.56243,471.28,590.88
76.58355,471.05,589.77
76.60211,468.73,588.79
76.62272,469.43,587.27
76.64224,469.98,588.25
76.66359,470.92,585.24
76.68237,466.76,585.65
76.70226,469.91,586.22
76.72252,468.02,587.46
76.74176,465.91,584.37
76.76198,467.70,586.59
76.78318,463.12,584.27
76.80242,445.14,587.03
76.82186,422.68,588.84
76.84267,397.66,591.93
76.86190,373.01,592.38
76.88271,354.54,590.26
76.90335,343.56,584.00
76.92254,335.62,576.41
76.94195,332.69,566.11
76.96354,331.50,558.79
76.98201,336.05,553.25
77.00238,339.64,546.40
77.02286,345.35,542.73
77.04289,353.47,536.73
77.06270,365.04,536.87
77.08260,373.54,533.73
77.10369,383.65,536.09
77.12191,390.10,534.73
77.14300,397.42,541.18
77.16367,404.85,544.78
77.18286,412.73,545.73
77.20217,421.82,551.62
77.22262,427.42,554.92
77.24333,432.41,557.25
77.26165,439.04,558.59
77.28279,444.48,562.89
77.30207,447.92,564.30
77.32228,448.41,567.93
77.34304,451.35,566.92
77.36265,455.08,572.10
77.38221,454.63,574.14
77.40310,458.63,571.31
77.42185,458.94,573.79
77.44308,463.04,577.88
77.46229,473.22,578.93
77.48339,491.16,586.34
77.50340,514.95,597.54
77.52199,544.53,607.80
77.54275,573.83,617.60
77.56203,599.83,625.14
77.58311,620.21,630.58
77.60181,628.92,636.20
77.62294,629.43,634.09
77.64194,625.68,631.58
77.66342,616.76,625.41
77.68315,602.67,622.05
77.70272,589.02,617.02
77.72336,577.50,612.78
77.74233,568.59,609.08
77.76210,555.33,604.41
77.78320,544.67,602.36
77.80298,535.55,599.19
77.82247,526.55,598.31
77.84189,518.71,593.86
77.86153,512.18,591.83
77.88174,507.79,589.73
77.90255,503.31,588.58
77.92304,495.53,588.00
77.94357,492.71,587.58
77.96178,488.84,586.81
77.98169,486.79,584.84
78.00308,484.76,585.16
78.02283,479.88,583.36
78.04269,480.64,584.32
78.06287,479.00,583.22
78.08184,476.19,582.52
78.10325,471.81,581.73
78.12178,472.20,582.91
78.14213,472.13,584.40
78.16230,474.17,585.06
78.18360,470.40,586.02
78.20151,470.95,587.38
78.22302,471.23,584.73
78.24318,468.36,585.85
78.26160,470.72,584.12
78.28328,470.17,586.34
78.30356,473.27,584.22
78.32184,471.83,584.15
78.34259,471.39,583.49
78.36313,470.92,584.15
78.38318,470.92,584.45
78.40263,470.91,584.48
78.42369,468.67,586.27
78.44188,469.87,583.57
78.46353,471.42,584.47
78.48228,470.10,583.82
78.50344,470.97,585.59
78.52161,470.48,585.55
78.54202,471.44,585.80
78.56334,472.25,583.89
78.58267,471.08,584.87
78.60319,468.08,582.98
78.62176,466.52,582.49
78.64225,469.26,582.39
78.66157,470.21,584.17
78.68199,470.64,585.43
78.70242,468.47,584.72
78.72277,466.46,587.14
78.74328,468.46,587.33
78.76223,469.89,587.00
78.78249,468.02,585.47
78.80361,469.60,587.62
78.82215,469.40,587.85
78.84178,468.38,586.47
78.86254,468.73,583.74
78.88339,469.68,585.77
78.90279,468.24,585.80
78.92331,469.19,585.69
78.94275,467.52,585.59
78.96156,465.47,583.40
78.98241,465.69,582.16
79.00196,468.39,583.33
79.02214,467.54,582.54
79.04221,467.99,583.52
79.06346,467.41,583.45
79.08277,468.13,584.60
79.10271,466.36,584.83
79.12365,467.49,583.76
79.14318,465.28,584.89
79.16337,467.28,584.00
79.18345,464.87,584.59
79.20239,467.38,583.08
79.22341,467.65,583.93
79.24331,469.32,585.89
79.26340,470.47,585.03
79.28362,467.92,586.50
79.30223,468.56,583.91
79.32237,468.57,581.77
79.34249,470.02,581.71
79.36320,470.95,580.44
79.38323,467.62,582.16
79.40335,465.38,579.33
79.42350,464.75,579.45
79.44227,466.48,582.48
79.46289,467.69,580.42
79.48202,468.12,579.87
79.50331,466.44,583.32
79.52242,467.63,583.64
79.54294,468.90,583.35
79.56159,468.26,580.93
79.58322,469.06,580.15
79.60289,465.65,580.73
79.62376,465.57,579.39
79.64400,466.99,579.76
79.66381,466.67,580.53
79.68289,468.14,580.66
79.70272,468.00,582.44
79.72433,469.54,582.23
79.74401,468.80,583.92
79.76273,468.83,581.89
79.78275,469.61,580.56
79.80362,468.05,583.08
79.82307,466.25,583.84
79.84430,466.15,581.60
79.86275,465.16,583.60
79.88366,464.06,581.82
79.90339,464.14,583.48
79.92413,467.41,582.98
79.94426,467.62,582.36
79.96546,467.19,581.75
79.98532,466.02,584.56
80.00600,464.24,581.45
80.02548,461.80,581.22
80.04638,464.39,584.54
80.06660,462.14,580.47
80.08593,464.48,583.83
80.10637,462.13,580.93
80.12526,462.93,579.86
80.14657,461.93,581.39
80.16511,462.77,583.30
80.18652,463.07,584.16
80.20524,461.40,584.30
80.22600,462.74,583.37
80.24547,462.62,583.69
80.26582,460.36,582.98
80.28737,457.97,583.34
80.30722,457.42,580.57
80.32753,457.61,581.06
80.34648,455.27,580.97
80.36722,457.19,581.56
80.38663,457.13,581.27
80.40577,454.96,580.77
80.42592,454.33,583.61
80.44642,453.14,583.64
80.46760,455.55,580.61
80.48796,455.49,583.57
80.50740,453.39,582.78
80.52756,453.68,580.09
80.54832,453.65,578.08
80.56790,456.37,579.86
80.58765,456.52,577.84
80.60679,455.16,580.69
80.62691,453.54,579.84
80.64768,453.55,578.86
80.66796,451.95,580.39
80.68701,451.67,581.35
80.70810,454.43,578.71
80.72823,451.63,578.51
80.74673,451.33,579.06
80.76724,450.57,582.43
80.78662,453.00,580.89
80.80808,450.97,581.22
80.82765,454.25,578.44
80.84843,443.98,579.09
80.86823,430.59,575.88
80.88776,406.78,572.23
80.90736,387.38,573.68
80.92748,364.23,568.08
80.94813,346.74,565.37
80.96736,337.90,560.77
80.98663,329.35,555.71
81.00794,323.98,552.59
81.02726,325.05,545.10
81.04689,325.86,543.76
81.06807,328.49,541.85
81.08858,335.39,539.96
81.10796,342.74,538.79
81.12772,349.05,536.05
81.14819,355.48,536.70
81.16742,364.06,538.60
81.18824,371.80,539.28
81.20848,380.26,541.92
81.22788,389.43,544.28
81.24854,396.60,549.20
81.26761,401.48,552.79
81.28666,408.09,554.62
81.30680,413.19,556.87
81.32745,419.50,559.59
81.34721,427.54,564.39
81.36681,429.87,565.23
81.38827,432.43,569.06
81.40764,432.70,569.66
81.42825,436.27,571.02
81.44678,443.02,574.19
81.46863,461.53,572.93
81.48938,482.46,578.34
81.50839,505.87,587.74
81.52766,534.10,595.21
81.54859,555.12,603.45
81.56931,576.31,612.48
81.58832,591.26,620.61
81.60786,603.39,630.64
81.62802,604.63,633.75
81.64931,603.70,631.52
81.66773,597.28,629.82
81.68932,586.07,623.42
81.70907,574.79,620.83
81.72761,561.89,617.08
81.74885,550.98,612.50
81.76910,539.35,607.98
81.78792,526.31,601.95
81.80948,517.50,601.22
81.82807,510.67,595.70
81.84841,501.04,596.37
81.86889,493.00,593.35
81.88929,489.37,591.82
81.90746,480.73,587.52
81.92838,477.22,585.84
81.94862,474.45,583.72
81.97024,470.68,585.69
81.98872,465.18,582.84
82.00879,464.84,581.80
82.03029,461.16,581.88
82.04930,459.59,577.84
82.06909,456.98,581.05
82.08978,455.99,579.73
82.11044,456.39,577.36
82.12951,453.95,579.72
82.14860,452.72,580.93
82.16884,452.71,580.76
82.18907,453.79,581.73
82.21043,451.57,581.17
82.22919,454.54,581.69
82.24987,452.41,581.49
82.27012,449.39,580.57
82.28909,450.42,579.74
82.30916,449.18,580.70
82.32899,449.58,578.95
82.34919,448.35,580.95
82.37013,451.56,579.59
82.38883,450.75,581.03
82.40988,451.70,577.00
82.42890,452.78,576.94
82.44981,450.49,580.14
82.46959,451.46,578.01
82.48959,451.01,577.83
82.51011,451.49,577.82
82.52918,454.00,577.03
82.54943,454.64,577.31
82.56934,453.53,577.29
82.58942,454.19,579.86
82.60929,453.46,577.80
82.62994,451.34,578.14
82.65041,450.47,580.26
82.66970,454.35,582.62
82.69003,452.41,578.75
82.70949,453.19,578.83
82.72910,449.87,582.45
82.75050,451.29,580.14
82.76951,449.59,578.71
82.78903,451.98,581.09
82.80951,451.90,581.06
82.82876,450.80,580.73
82.85005,451.68,579.69
82.86927,450.29,581.09
82.89040,451.64,580.80
82.91029,451.67,579.31
82.93033,454.23,578.46
82.95018,452.82,578.86
82.97047,452.28,581.34
82.98993,450.24,580.28
83.00965,453.78,578.63
83.02891,452.45,577.72
83.05002,451.29,580.60
83.07040,451.00,582.04
83.08966,449.54,578.87
83.10974,451.48,579.15
83.12913,453.28,580.02
83.14994,452.07,580.90
83.16997,454.14,581.64
83.18885,453.91,580.10
83.20950,450.84,580.15
83.22911,449.88,579.50
83.24838,451.84,580.31
83.26876,450.70,578.92
83.28957,451.66,576.60
83.30865,451.47,577.47
83.32905,453.91,579.82
83.34936,454.13,575.87
83.37016,453.56,578.67
83.38892,451.38,577.03
83.41037,453.87,577.54
83.42859,450.75,578.61
83.44895,453.01,577.51
83.46962,455.47,579.33
83.49062,455.08,578.25
83.50888,452.57,579.02
83.52933,452.19,578.65
83.55016,453.41,577.26
83.57145,452.19,578.32
83.59120,451.66,579.08
83.61150,454.03,575.79
83.62947,451.74,576.54
83.65058,455.11,578.76
83.67069,454.11,576.77
83.69066,452.91,580.06
83.70971,451.52,578.23
83.73046,454.70,577.42
83.74950,452.95,577.85
83.77126,454.47,577.39
83.79060,452.95,577.20
83.81082,454.75,578.79
83.83126,454.26,577.64
83.84978,454.91,578.71
83.87053,455.84,578.82
83.89009,453.68,575.71
83.91064,455.13,577.36
83.93086,452.87,577.19
83.95135,455.28,578.47
83.97005,452.09,577.57
83.99004,453.57,577.39
84.00997,453.25,576.58
84.03061,452.63,578.52
84.05100,452.01,576.51
84.06987,453.42,578.39
84.09106,450.69,579.70
84.11046,454.43,580.80
84.13022,454.29,577.87
84.15050,454.06,580.01
84.17006,452.77,578.05
84.19125,453.62,577.49
84.20994,456.15,577.09
84.22996,452.45,578.55
84.25143,455.41,577.35
84.27109,454.07,575.77
84.28947,453.71,577.56
84.31000,456.34,576.95
84.32997,455.38,579.59
84.35061,454.91,580.99
84.37021,450.83,578.43
84.39093,437.42,577.93
84.41055,423.77,578.38
84.43007,406.26,575.02
84.45126,391.44,572.55
84.47031,379.98,564.23
84.48983,370.54,559.16
84.50996,359.31,550.50
84.52943,354.62,542.69
84.55059,351.33,537.72
84.57052,348.81,532.73
84.59086,345.06,533.40
84.61013,346.85,529.63
84.63117,351.65,531.16
84.65077,350.50,532.79
84.67062,356.09,534.80
84.68967,357.58,539.09
84.71056,364.82,540.94
84.72951,367.27,545.43
84.75074,370.24,548.94
84.77022,379.23,552.44
84.79081,382.89,556.41
84.81033,390.85,558.22
84.83042,397.40,558.53
84.85093,403.64,561.26
84.87008,409.16,561.42
84.89006,417.68,564.10
84.91014,422.06,564.74
84.92963,425.01,566.82
84.95053,427.71,569.42
84.97146,431.44,570.46
84.98968,437.41,572.64
85.00957,437.53,572.88
85.02988,440.52,574.04
85.05116,441.56,574.73
85.07060,441.58,574.96
85.09005,444.93,578.49
85.11150,447.38,576.95
85.13130,446.78,577.02
85.15106,448.94,577.84
85.17038,449.69,577.57
85.18964,454.16,579.05
85.21091,468.88,583.70
85.23114,484.10,589.05
85.25083,504.79,593.59
85.27137,529.84,601.49
85.29058,552.70,601.81
85.31063,572.80,605.82
85.33109,590.06,608.17
85.35061,602.77,612.44
85.37053,607.23,617.99
85.39151,606.83,620.33
85.41079,600.80,618.89
85.43113,589.85,616.33
85.45091,580.39,616.65
85.46998,568.15,614.19
85.49073,554.41,610.98
85.51037,544.24,606.14
85.53100,530.49,603.88
85.55126,520.38,599.67
85.57106,512.84,594.58
85.59027,507.71,592.04
85.61131,501.05,592.58
85.63125,493.30,591.86
85.64980,490.11,590.44
85.67049,486.50,586.04
85.68955,479.97,585.81
85.71147,476.32,586.72
85.72972,474.95,585.73
85.75017,471.28,586.87
85.76965,469.13,582.45
85.78987,466.37,585.30
85.81016,464.05,582.64
85.83121,462.69,584.53
85.85064,460.87,584.69
85.87042,459.44,584.18
85.88966,460.22,585.82
85.91101,459.70,582.23
85.92974,457.73,585.76
85.95039,457.56,584.71
85.97101,460.19,584.31
85.99108,459.88,584.89
86.01212,459.49,583.78
86.03168,459.31,583.05
86.05113,462.11,580.72
86.07208,461.03,580.47
86.09243,460.85,579.79
86.11212,458.76,580.96
86.13148,461.59,579.79
86.15091,461.20,582.07
86.17065,459.09,582.05
86.19137,459.91,582.98
86.21179,458.33,582.39
86.23100,459.45,580.11
86.25080,458.23,578.87
86.27129,458.06,582.10
86.29171,455.59,580.94
86.31176,456.31,578.71
86.33209,456.32,580.83
86.35176,459.98,581.02
86.37199,459.54,577.81
86.39170,460.36,581.01
86.41202,461.55,579.45
86.43050,458.61,580.26
86.45177,460.93,580.62
86.47212,457.57,579.51
86.49145,457.26,581.21
86.51326,460.77,580.20
86.53326,457.73,580.88
86.55230,459.34,580.92
86.57302,461.34,583.99
86.59330,458.82,583.45
86.61414,462.46,580.96
86.63423,464.47,583.84
86.65338,464.81,581.98
86.67259,464.13,583.05
86.69418,464.61,582.85
86.71328,467.98,582.30
86.73264,468.01,585.39
86.75417,468.29,585.21
86.77264,469.28,582.46
86.79378,470.34,580.60
86.81423,467.09,580.55
86.83279,467.43,581.19
86.85413,469.42,580.87
86.87264,469.21,580.34
86.89388,467.70,582.90
86.91258,467.18,582.59
86.93467,468.80,584.15
86.95516,469.87,580.36
86.97442,467.16,580.82
86.99484,469.92,580.16
87.01423,471.57,581.52
87.03374,470.33,582.30
87.05450,470.62,582.87
87.07442,471.57,582.00
87.09523,472.56,581.96
87.11511,473.37,580.30
87.13593,475.86,581.66
87.15522,474.71,582.96
87.17599,474.19,582.21
87.19593,473.65,584.51
87.21543,475.48,582.40
87.23505,474.17,583.97
87.25575,473.90,581.47
87.27613,476.50,581.75
87.29652,474.27,583.02
87.31463,474.00,584.49
87.33581,470.50,581.03
87.35478,471.99,583.03
87.37563,472.36,583.31
87.39492,470.76,580.87
87.41622,472.23,580.57
87.43607,471.22,582.51
87.45497,472.27,581.66
87.47457,474.41,581.69
87.49450,472.78,578.75
87.51539,470.66,581.67
87.53452,471.10,582.23
87.55542,474.62,581.30
87.57453,472.70,580.40
87.59585,472.27,582.66
87.61481,470.77,580.90
87.63630,471.16,579.59
87.65578,471.82,580.18
87.67466,476.51,583.16
87.69475,473.09,581.51
87.71635,475.51,583.16
87.73531,472.02,583.05
87.75621,472.55,583.63
87.77560,473.53,583.21
87.79442,473.17,582.87
87.81459,471.62,583.54
87.83608,474.03,581.32
87.85579,471.24,580.20
87.87454,471.63,580.30
87.89489,470.95,579.13
87.91558,471.51,582.83
87.93570,471.56,582.19
87.95658,472.27,584.42
87.97645,470.07,584.88
87.99756,469.33,585.67
88.01620,470.94,583.28
88.03701,472.10,583.30
88.05635,469.30,585.14
88.07559,470.14,583.77
88.09679,472.26,586.26
88.11710,471.83,587.20
88.13558,470.02,586.19
88.15565,471.82,583.79
88.17739,472.49,583.16
88.19667,471.53,583.20
88.21577,472.80,581.15
88.23662,464.92,581.13
88.25616,449.24,583.71
88.27607,427.30,583.52
88.29677,404.15,589.24
88.31591,383.10,591.59
88.33622,362.46,590.69
88.35566,349.18,584.44
88.37728,340.70,581.15
88.39687,333.82,574.24
88.41659,332.55,567.31
88.43691,333.83,563.27
88.45705,337.65,557.98
88.47662,344.36,553.15
88.49572,352.98,549.38
88.51712,362.38,545.99
88.53687,369.11,546.74
88.55738,375.77,545.81
88.57632,388.27,546.26
88.59699,393.44,546.71
88.61674,403.53,548.09
88.63547,410.32,550.62
88.65641,418.92,552.51
88.67728,425.60,557.74
88.69547,433.17,559.39
88.71591,438.03,561.95
88.73626,443.05,566.51
88.75564,445.91,565.87
88.77686,450.29,569.19
88.79611,452.31,568.41
88.81717,456.71,570.22
88.83593,458.93,573.29
88.85705,459.96,574.37
88.87560,459.88,575.54
88.89542,460.82,578.69
88.91570,462.65,577.46
88.93620,469.49,580.57
88.95536,479.32,587.99
88.97723,493.90,598.30
88.99541,515.56,610.69
89.01611,536.15,619.15
89.03642,561.22,625.55
89.05591,582.86,625.34
89.07604,603.54,624.80
89.09529,616.73,623.21
89.11653,628.91,617.97
89.13649,631.94,616.53
89.15551,628.50,608.82
89.17716,619.15,604.80
89.19694,608.11,604.19
89.21668,595.36,597.15
89.23669,587.42,595.49
89.25636,573.45,596.22
89.27583,563.69,591.17
89.29615,550.65,589.70
89.31738,540.97,588.24
89.33578,531.44,583.37
89.35602,526.87,583.07
89.37632,519.55,582.50
89.39715,512.89,580.73
89.41641,505.43,583.24
89.43659,501.39,581.78
89.45626,498.07,581.60
89.47616,493.58,580.81
89.49561,490.54,582.41
89.51682,485.35,583.32
89.53625,485.07,582.10
89.55552,481.42,577.97
89.57671,481.58,578.53
89.59741,481.03,581.95
89.61660,476.67,583.39
89.63731,477.40,583.22
89.65735,475.61,585.40
89.67728,472.94,584.55
89.69728,473.26,585.53
89.71561,475.77,585.36
89.73558,474.58,586.99
89.75688,472.43,586.61
89.77551,473.22,585.57
89.79665,474.71,583.09
89.81562,473.62,583.26
89.83692,469.33,585.95
89.85703,470.55,584.64
89.87661,471.48,585.75
89.89690,471.93,585.13
89.91610,471.40,587.30
89.93546,470.85,588.40
89.95623,470.19,587.19
89.97650,470.62,588.16
89.99679,470.46,588.01
90.01630,470.06,586.33
90.03615,469.24,588.93
90.05558,470.99,587.07
90.07554,469.08,584.56
90.09686,471.74,586.01
90.11600,469.73,587.82
90.13604,470.34,585.13
90.15580,472.83,586.40
90.17609,472.69,585.95
90.19669,469.54,587.69
90.21649,470.47,586.98
90.23835,471.61,586.63
90.25732,470.48,587.18
90.27893,468.07,585.98
90.29878,468.08,585.69
90.31836,465.65,585.75
90.33900,466.47,584.98
90.35904,468.56,584.80
90.37755,466.03,585.55
90.39909,467.23,585.22
90.41918,468.53,586.37
90.43847,465.46,587.89
90.45831,465.54,587.18
90.47752,466.29,585.27
90.49856,463.65,587.40
90.51754,463.10,587.71
90.53885,461.77,589.47
90.55944,462.17,586.69
90.57850,464.58,587.06
90.59818,463.05,588.46
90.61799,466.43,588.78
90.63858,461.27,578.67
90.65774,460.60,558.25
90.67760,455.53,542.46
90.69875,453.77,537.12
90.71793,450.89,531.97
90.73894,450.91,530.90
90.75895,453.10,533.32
90.77846,450.94,535.85
90.79861,452.64,542.98
90.82009,451.40,547.72
90.83974,455.80,553.73
90.85868,452.01,556.02
90.87971,452.66,564.12
90.90010,455.67,571.06
90.91985,456.29,574.89
90.94005,459.31,576.96
90.96081,458.01,579.68
90.97974,462.11,583.82
91.00092,459.69,586.15
91.01977,461.00,582.07
91.03969,461.37,581.51
91.05935,458.50,581.77
91.08077,458.85,580.68
91.10082,458.81,580.95
91.12082,457.74,582.20
91.13934,457.14,587.26
91.15971,459.20,589.59
91.17999,457.17,589.98
91.20049,456.51,592.42
91.22005,458.57,589.66
91.24099,455.33,592.27
91.26116,454.22,593.20
91.28347,457.42,593.67
91.30324,454.18,594.68
91.32163,454.89,597.66
91.34301,454.42,594.68
91.36270,453.83,597.36
91.38296,453.47,596.86
91.40268,450.23,598.47
91.42288,451.96,598.92
91.44269,457.25,598.39
91.46143,458.23,596.65
91.48265,460.22,592.14
91.50202,457.80,593.29
91.52267,459.54,595.09
91.54135,458.18,593.07
91.56294,465.52,594.61
