Program Time [s],data 0,data 1
29.02362,389.21,499.37
29.04398,389.51,499.24
29.06513,392.54,500.14
29.08382,390.84,501.32
29.10346,390.30,502.81
29.12429,392.38,499.40
29.14354,393.88,501.15
29.16356,390.94,498.69
29.18510,393.04,500.28
29.20560,391.51,498.03
29.22730,395.48,499.88
29.24694,393.24,503.47
29.26837,396.27,503.80
29.28723,397.09,504.52
29.30738,394.90,501.97
29.32823,394.50,502.20
29.34823,392.42,501.53
29.36776,394.52,504.13
29.38795,393.51,505.44
29.40736,393.97,508.14
29.42838,398.36,504.62
29.44786,398.23,505.38
29.46769,396.92,504.08
29.48691,400.78,503.25
29.50706,399.99,504.51
29.52771,399.14,503.61
29.54717,399.06,503.38
29.56758,398.42,504.32
29.58718,399.39,503.41
29.60799,399.51,504.41
29.62817,399.15,503.35
29.64811,398.50,502.44
29.66759,402.43,496.92
29.68831,400.91,500.33
29.70782,402.52,499.56
29.72654,391.27,500.00
29.74732,377.24,493.59
29.76740,355.70,483.50
29.78676,332.97,474.73
29.80651,313.39,467.75
29.82737,290.05,457.20
29.84697,277.60,447.16
29.86797,264.19,439.81
29.88748,257.84,438.91
29.90760,251.20,439.41
29.92688,253.52,436.84
29.94779,254.58,439.20
29.96699,259.13,440.16
29.98786,266.18,443.94
30.00737,275.51,444.12
30.02789,282.23,447.74
30.04717,294.17,453.95
30.06712,301.85,458.14
30.08807,310.82,458.93
30.10686,321.15,463.21
30.12697,331.63,469.72
30.14662,341.56,470.79
30.16769,345.80,477.69
30.18711,352.85,479.05
30.20774,359.88,484.80
30.22827,368.16,488.72
30.24779,371.43,489.84
30.26652,377.12,491.89
30.28703,380.58,494.38
30.30665,385.71,495.60
30.32672,389.83,499.30
30.34729,392.37,499.42
30.36822,391.93,501.93
30.38733,397.23,505.58
30.40825,395.60,506.15
30.42774,398.24,503.36
30.44657,400.89,505.26
30.46770,399.77,506.85
30.48834,399.96,504.07
30.50770,401.94,505.60
30.52798,402.17,508.43
30.54695,405.81,513.08
30.56655,405.82,512.73
30.58738,411.84,514.88
30.60691,426.00,520.45
30.62811,448.61,533.30
30.64677,480.04,548.26
30.66799,511.21,560.71
30.68803,544.11,575.00
30.70823,569.85,583.86
30.72656,587.41,585.11
30.74766,591.91,581.35
30.76780,590.31,579.37
30.78772,580.87,569.04
30.80739,565.94,565.78
30.82750,553.55,558.83
30.84754,539.17,555.01
30.86748,524.90,546.45
30.88844,513.96,543.51
30.90729,499.97,538.42
30.92660,490.72,531.46
30.94739,480.68,525.79
30.96694,470.23,523.27
30.98798,465.35,520.98
31.00811,455.07,520.40
31.02844,449.25,518.98
31.04780,443.52,518.67
31.06791,440.16,515.04
31.08807,433.44,512.62
31.10816,431.67,511.12
31.12710,428.91,510.30
31.14663,426.17,506.93
31.16714,423.56,507.33
31.18766,420.83,508.88
31.20780,417.97,510.15
31.22829,413.07,508.04
31.24716,414.99,506.44
31.26678,412.49,506.73
31.28767,413.70,505.19
31.30701,410.47,504.48
31.32680,410.23,507.47
31.34826,411.97,508.74
31.36747,411.29,511.12
31.38656,409.75,508.07
31.40645,410.04,509.78
31.42676,411.30,509.22
31.44930,408.64,506.24
31.47003,410.43,507.32
31.48980,408.44,505.92
31.51024,409.69,507.96
31.52971,406.18,509.73
31.55007,406.47,506.19
31.57028,407.28,505.80
31.59019,403.19,505.68
31.60995,403.39,505.02
31.63054,403.71,504.28
31.65041,406.20,502.95
31.67063,401.47,505.16
31.69196,402.39,507.53
31.71037,403.75,508.00
31.73197,403.01,507.48
31.75077,401.17,508.79
31.77195,404.57,510.40
31.79133,402.12,508.54
31.81051,406.14,507.31
31.83111,406.13,510.98
31.85089,404.31,511.98
31.87054,405.54,512.43
31.89065,405.79,509.46
31.91209,403.11,510.94
31.93130,405.29,509.66
31.95150,402.11,508.41
31.97171,404.88,507.42
31.99098,402.77,510.02
32.01170,401.42,512.22
32.03236,401.34,511.10
32.05198,399.88,508.97
32.07097,399.04,506.11
32.09080,399.97,508.54
32.11214,401.43,505.45
32.13153,402.87,506.12
32.15236,401.26,506.42
32.17299,398.93,508.22
32.19136,399.65,507.84
32.21331,397.93,510.45
32.23237,399.70,506.38
32.25316,397.40,504.86
32.27271,396.54,504.66
32.29252,393.96,505.05
32.31417,394.22,502.66
32.33280,396.63,504.24
32.35311,397.53,505.44
32.37330,394.37,507.46
32.39329,397.59,504.54
32.41276,393.65,504.16
32.43259,394.68,502.59
32.45381,392.40,502.47
32.47296,394.12,505.87
32.49295,394.20,507.07
32.51408,390.58,509.02
32.53336,388.74,507.13
32.55380,388.94,504.56
32.57381,390.99,505.34
32.59444,388.76,502.23
32.61300,388.90,501.09
32.63254,388.96,500.95
32.65349,390.11,503.68
32.67281,392.02,505.45
32.69316,390.62,503.89
32.71390,390.90,502.38
32.73252,391.50,502.44
32.75351,390.06,502.75
32.77364,392.39,502.79
32.79328,392.26,501.30
32.81267,390.79,501.52
32.83317,391.06,503.13
32.85295,391.63,502.70
32.87294,390.17,505.66
32.89275,391.86,505.77
32.91257,390.33,504.34
32.93312,393.00,502.63
32.95399,392.67,503.43
32.97235,389.38,504.39
32.99263,389.11,505.49
33.01282,392.55,504.84
33.03339,390.00,500.81
33.05347,386.84,501.40
33.07255,389.67,501.51
33.09398,389.53,504.20
33.11280,389.53,505.19
33.13411,386.35,505.39
33.15345,389.42,505.25
33.17325,388.66,507.12
33.19329,386.58,504.87
33.21395,388.96,504.93
33.23336,389.14,505.23
33.25402,388.35,501.98
33.27278,386.70,504.17
33.29361,389.68,505.86
33.31362,391.66,503.29
33.33410,387.58,503.96
33.35324,388.11,503.08
33.37376,387.16,504.39
33.39266,389.04,502.63
33.41309,391.13,501.46
33.43291,388.77,501.78
33.45418,387.73,505.40
33.47316,388.04,504.50
33.49245,388.44,502.31
33.51247,388.62,502.61
33.53353,384.90,504.96
33.55311,374.35,507.99
33.57344,356.95,509.27
33.59338,335.06,511.70
33.61389,312.06,510.68
33.63286,293.34,500.55
33.65308,278.21,490.01
33.67502,264.03,478.17
33.69400,256.58,464.16
33.71358,251.40,453.74
33.73491,249.61,446.73
33.75481,249.32,441.01
33.77480,255.01,438.07
33.79506,261.54,438.24
33.81533,268.83,433.59
33.83619,278.54,431.70
33.85591,286.06,431.96
33.87560,295.82,434.04
33.89627,308.33,442.02
33.91586,316.08,446.98
33.93583,325.58,454.20
33.95607,332.83,457.97
33.97567,337.91,463.20
33.99573,344.03,468.05
34.01451,351.25,470.90
34.03519,356.54,474.56
34.05604,358.71,479.33
34.07543,366.84,482.83
34.09570,367.20,486.13
34.11588,373.47,487.58
34.13489,376.71,490.29
34.15501,378.83,493.32
34.17640,376.74,492.26
34.19562,378.97,493.34
34.21629,382.30,494.70
34.23515,382.86,496.88
34.25507,386.67,502.16
34.27447,392.78,504.72
34.29544,410.17,512.58
34.31640,431.83,525.40
34.33485,461.41,542.52
34.35702,489.82,555.02
34.37688,519.57,566.30
34.39659,545.72,570.98
34.41747,559.22,571.00
34.43700,558.50,568.10
34.45684,555.28,564.29
34.47532,545.74,560.09
34.49564,534.00,554.56
34.51592,520.05,547.53
34.53703,506.31,547.42
34.55623,496.18,539.57
34.57661,485.06,537.22
34.59674,474.28,532.95
34.61557,463.49,530.16
34.63551,455.19,526.61
34.65578,445.69,525.59
34.67768,442.32,523.13
34.69664,435.26,521.00
34.71640,431.01,523.89
34.73691,429.55,522.81
34.75674,424.93,521.18
34.77788,418.68,518.26
34.79706,416.48,515.84
34.81768,413.89,511.47
34.83746,411.72,510.76
34.85750,409.64,511.66
34.87763,409.98,512.59
34.89658,407.77,513.09
34.91709,409.25,510.27
34.93671,406.84,512.11
34.95660,407.04,509.37
34.97867,408.15,506.37
34.99876,408.20,506.88
35.01889,407.27,510.00
35.03779,409.36,512.16
35.05821,407.56,509.83
35.07883,405.46,512.75
35.09915,406.10,509.78
35.11740,408.50,510.20
35.13835,407.18,510.57
35.15883,408.17,508.30
35.17895,405.84,509.02
35.19741,403.34,509.43
35.21885,404.30,509.13
35.23818,405.24,513.01
35.25834,407.92,511.10
35.27935,405.56,510.69
35.29817,408.42,508.25
35.31825,407.47,507.25
35.33930,406.40,505.01
35.35887,408.23,507.19
35.37744,404.39,509.41
35.39782,408.04,510.46
35.41793,405.95,509.87
35.43786,405.75,507.71
35.45829,408.30,505.83
35.47900,405.96,503.27
35.49876,406.22,507.12
35.51837,404.93,506.34
35.53737,405.27,505.14
35.55783,407.42,509.32
35.57863,405.76,508.99
35.59938,405.78,509.44
35.61876,405.97,509.31
35.63776,406.80,507.29
35.65795,405.21,508.81
35.67886,404.53,508.01
35.69832,406.85,509.15
35.71862,406.54,508.16
35.73878,404.52,511.62
35.75786,405.29,509.12
35.77858,404.56,508.71
35.79793,404.24,509.19
35.81857,406.52,506.03
35.83842,406.64,506.38
35.85734,406.57,510.83
35.87940,407.57,509.66
35.89739,407.21,509.23
35.91851,409.06,510.50
35.93855,408.45,510.39
35.95743,410.02,507.82
35.97764,406.97,505.46
35.99789,407.83,504.52
36.01910,408.75,504.94
36.03793,409.98,507.92
36.05822,411.05,505.52
36.07910,410.17,507.02
36.09877,408.54,506.79
36.12000,407.92,507.73
36.13994,409.14,507.26
36.16021,407.27,506.86
36.17863,406.51,505.49
36.19972,406.52,509.35
36.21974,407.14,510.56
36.23886,405.23,510.57
36.25886,408.30,508.87
36.27900,404.60,510.70
36.29987,406.50,507.99
36.31981,406.33,506.90
36.33994,406.73,505.05
36.35909,407.03,507.59
36.37938,408.64,510.07
36.39869,406.25,511.32
36.42000,407.51,509.99
36.43894,407.13,508.35
36.45978,407.94,505.03
36.48014,408.94,503.74
36.49939,406.67,507.38
36.51866,408.41,507.56
36.53984,405.35,508.95
36.55894,405.99,510.05
36.57946,408.87,509.64
36.59988,405.94,509.32
36.61970,407.87,508.45
36.63951,406.39,508.00
36.66046,406.98,506.18
36.68202,409.12,506.92
36.70157,408.53,507.03
36.72286,407.49,507.31
36.74223,404.16,510.24
36.76149,405.75,508.56
36.78155,401.56,506.30
36.80241,404.05,507.14
36.82185,400.41,506.42
36.84246,402.62,505.89
36.86176,401.54,505.24
36.88154,399.10,505.63
36.90237,400.72,507.14
36.92259,400.26,506.22
36.94261,399.11,507.99
36.96283,399.80,504.43
36.98316,399.36,507.47
37.00195,399.28,506.32
37.02193,395.91,504.74
37.04207,398.40,505.91
37.06231,395.06,511.27
37.08324,395.95,508.45
37.10162,395.14,509.83
37.12251,397.78,509.42
37.14295,394.35,510.07
37.16245,390.61,519.04
37.18298,376.31,540.19
37.20448,358.65,577.86
37.22380,339.56,606.07
37.24425,319.84,618.40
37.26560,301.92,614.00
37.28549,289.25,596.57
37.30594,277.83,569.93
37.32541,267.08,536.55
37.34509,263.42,499.44
37.36416,260.17,467.70
37.38570,261.32,438.96
37.40502,266.82,418.48
37.42611,271.55,405.64
37.44528,278.27,392.77
37.46511,284.20,391.33
37.48524,288.80,391.60
37.50566,299.37,392.07
37.52538,303.23,400.89
37.54640,314.65,406.46
37.56617,318.21,419.03
37.58507,326.29,424.25
37.60566,332.60,433.07
37.62458,339.15,443.14
37.64560,345.43,448.93
37.66476,353.82,453.04
37.68415,357.16,458.34
37.70454,361.08,465.23
37.72565,366.65,472.99
37.74546,369.66,479.74
37.76492,370.97,485.14
37.78528,371.05,485.39
37.80622,375.83,487.68
37.82617,376.55,491.56
37.84542,376.85,493.34
37.86608,381.26,493.34
37.88499,381.59,496.11
37.90497,384.14,499.79
37.92461,381.93,500.19
37.94473,385.41,502.06
37.96553,383.28,498.74
37.98622,387.79,498.85
38.00548,384.14,501.66
38.02458,385.14,501.26
38.04504,387.23,501.59
38.06537,392.23,505.95
38.08549,408.33,510.34
38.10597,426.10,517.98
38.12474,455.93,528.91
38.14564,482.83,540.21
38.16603,511.12,550.09
38.18553,534.12,556.83
38.20465,547.25,561.58
38.22587,553.18,562.31
38.24603,547.65,556.85
38.26547,542.69,554.65
38.28562,532.14,545.47
38.30433,516.15,542.03
38.32520,502.27,536.19
38.34605,490.49,533.01
38.36457,479.54,527.53
38.38501,469.18,526.18
38.40609,455.81,526.17
38.42569,447.85,523.02
38.44475,439.65,521.24
38.46537,431.65,518.40
38.48534,430.18,515.21
38.50608,423.88,510.11
38.52492,419.44,512.29
38.54448,414.56,510.08
38.56424,408.97,511.78
38.58615,407.05,513.68
38.60553,404.73,511.26
38.62578,402.78,512.03
38.64481,401.05,509.92
38.66565,399.18,507.44
38.68628,401.46,506.63
38.70671,399.38,507.45
38.72635,399.61,505.63
38.74519,395.19,508.54
38.76520,397.05,507.06
38.78651,395.51,504.44
38.80702,394.53,503.51
38.82681,393.47,504.15
38.84622,393.87,504.25
38.86536,391.52,500.98
38.88597,394.72,505.76
38.90702,392.27,505.62
38.92574,395.22,505.71
38.94630,392.65,504.29
38.96652,393.74,501.47
38.98676,393.14,501.16
39.00579,394.48,503.28
39.02634,394.12,500.10
39.04584,392.89,502.51
39.06642,392.32,506.87
39.08700,391.35,506.69
39.10664,393.98,505.57
39.12715,391.77,500.24
39.14639,394.37,499.24
39.16728,391.79,498.29
39.18764,393.55,500.16
39.20902,395.09,498.59
39.22849,396.48,501.80
39.24934,399.55,500.53
39.26882,400.17,499.30
39.28855,402.15,497.17
39.31035,400.30,496.11
39.32979,402.29,496.13
39.34867,401.58,499.15
39.37015,402.75,496.99
39.39015,403.22,498.74
39.40918,404.21,498.51
39.42888,402.74,501.36
39.44978,406.12,498.94
39.47055,405.32,499.85
39.48957,405.90,497.91
39.51083,406.48,498.23
39.53188,407.03,499.00
39.55167,407.53,499.53
39.57187,408.15,501.00
39.59196,410.41,503.25
39.61241,407.09,505.28
39.63333,409.25,505.15
39.65315,408.90,505.49
39.67376,409.08,504.85
39.69302,406.24,501.95
39.71315,406.48,506.08
39.73389,405.89,508.91
39.75372,409.36,508.34
39.77322,406.96,506.97
39.79354,407.56,505.54
39.81330,408.08,503.46
39.83398,407.11,502.56
39.85428,408.91,500.96
39.87517,406.93,502.16
39.89440,406.58,505.89
39.91444,407.60,507.76
39.93669,405.03,508.88
39.95627,402.74,505.13
39.97664,402.35,505.75
39.99713,398.97,508.12
40.01757,398.53,503.82
40.03711,399.69,505.28
40.05675,399.30,504.29
40.07701,400.81,506.37
40.09653,396.87,505.39
40.11604,395.17,505.37
40.13631,396.38,505.82
40.15791,395.74,502.34
40.17921,396.14,500.51
40.19900,394.72,501.23
40.21809,391.96,499.98
40.23763,391.27,503.77
40.25749,392.67,504.68
40.27903,393.35,504.99
40.29798,391.60,500.27
40.31842,389.35,500.32
40.33825,390.15,498.85
40.35981,390.13,499.68
40.37976,390.32,498.33
40.39986,390.17,502.75
40.41980,390.71,501.40
40.44079,387.75,504.24
40.45950,386.73,501.23
40.48099,389.25,503.35
40.50031,387.40,500.25
40.52063,384.93,498.98
40.54014,387.99,498.94
40.56067,385.40,498.14
40.57950,384.64,500.13
40.60072,383.93,501.22
40.61974,384.78,503.82
40.64115,384.03,501.69
40.65940,385.33,499.21
40.67996,382.36,498.96
40.69985,384.22,498.31
40.71996,383.12,500.65
40.74057,381.94,498.20
40.75930,384.90,498.38
40.78046,385.42,498.98
40.80086,383.37,502.03
40.81947,381.38,501.61
40.84074,383.49,501.43
40.85933,384.02,496.87
40.88067,381.28,496.80
40.90044,383.97,496.63
40.92000,384.72,498.55
40.93984,384.67,501.61
40.96042,383.94,502.00
40.98105,384.65,502.26
40.99954,381.07,499.66
41.02128,370.08,493.46
41.04052,349.66,485.65
41.05943,324.46,474.90
41.08065,302.58,463.73
41.10068,282.94,455.99
41.11975,267.54,452.68
41.14058,258.30,450.01
41.16103,250.71,450.12
41.18040,246.63,446.91
41.19910,246.69,448.45
41.21948,251.74,450.65
41.24052,258.97,449.58
41.26003,268.23,453.89
41.27978,277.73,454.70
41.30080,285.16,457.68
41.31969,295.08,463.27
41.33947,301.47,464.28
41.36126,311.20,465.43
41.37962,318.33,465.76
41.39979,328.24,470.43
41.42065,335.56,471.60
41.44087,343.73,475.52
41.45999,346.81,479.10
41.47964,355.32,484.43
41.49939,357.52,485.20
41.52092,359.88,489.58
41.54064,366.26,489.31
41.56100,368.97,488.06
41.58178,373.39,489.96
41.60068,375.88,491.97
41.62108,379.54,489.92
41.64057,378.69,493.95
41.66041,382.50,499.07
41.68211,384.44,499.87
41.70102,384.16,501.20
41.72188,386.14,501.22
41.74161,384.46,500.40
41.76171,385.23,500.24
41.78287,394.52,500.33
41.80312,407.69,505.63
41.82138,433.03,518.91
41.84182,458.92,531.43
41.86204,485.25,544.60
41.88233,513.09,554.79
41.90393,533.66,559.30
41.92357,550.20,562.51
41.94222,556.83,560.17
41.96366,555.56,557.23
41.98435,549.80,553.65
42.00489,541.33,553.67
42.02608,526.80,547.73
42.04611,517.12,545.96
42.06521,503.83,537.58
42.08473,494.55,532.21
42.10568,485.50,527.00
42.12551,475.88,526.54
42.14442,465.86,521.81
42.16576,457.19,520.75
42.18409,454.36,520.76
42.20534,446.83,518.33
42.22569,442.73,515.84
42.24462,437.01,512.73
42.26591,434.83,511.82
42.28456,432.27,508.62
42.30632,428.01,506.93
42.32712,427.77,507.20
42.34569,424.04,505.65
42.36516,422.37,507.56
42.38557,419.11,510.70
42.40603,417.27,513.01
42.42666,417.06,510.93
42.44614,413.73,508.03
42.46570,412.50,506.77
42.48696,414.60,505.67
42.50537,411.34,505.73
42.52648,411.14,506.29
42.54665,412.54,508.97
42.56694,409.34,509.62
42.58630,409.31,510.31
42.60705,408.71,510.75
42.62516,410.58,510.61
42.64559,406.22,506.80
42.66600,406.31,505.96
42.68548,406.06,507.93
42.70570,404.96,507.74
42.72688,404.81,506.40
42.74593,406.64,510.55
42.76702,408.63,509.62
42.78725,407.29,509.37
42.80672,409.76,509.29
42.82512,406.17,508.92
42.84585,407.01,504.93
42.86526,406.04,507.11
42.88596,407.48,505.47
42.90606,408.12,507.69
42.92522,409.38,510.34
42.94580,409.92,511.09
42.96531,408.52,508.01
42.98598,407.35,506.64
43.00652,408.92,505.75
43.02686,407.53,506.43
43.04603,407.51,507.64
43.06552,408.70,508.33
43.08575,408.03,506.50
43.10640,407.58,509.56
43.12715,407.03,511.22
43.14623,406.96,512.61
43.16719,406.40,510.44
43.18578,407.49,508.20
43.20546,406.23,507.83
43.22625,408.39,508.16
43.24536,409.36,506.68
43.26598,406.67,506.65
43.28698,407.79,508.17
43.30571,405.56,510.34
43.32666,405.17,510.76
43.34627,408.39,508.28
43.36701,404.62,505.78
43.38529,407.18,506.93
43.40549,404.15,506.55
43.42646,407.70,508.42
43.44671,406.81,510.63
43.46713,407.66,512.36
43.48600,408.90,514.00
43.50701,406.24,512.81
43.52607,409.60,510.41
43.54622,406.83,508.63
43.56647,407.90,507.39
43.58564,409.71,510.04
43.60540,406.17,507.41
43.62539,408.02,509.64
43.64661,406.98,511.31
43.66548,405.35,511.71
43.68694,406.62,514.40
43.70685,405.03,513.48
43.72686,405.90,510.65
43.74675,403.48,509.05
43.76628,406.51,508.43
43.78647,407.24,506.74
43.80646,406.57,506.37
43.82547,406.70,508.30
43.84534,406.24,509.79
43.86670,406.55,511.74
43.88619,409.00,512.76
43.90552,407.55,509.94
43.92563,405.59,506.63
43.94593,406.77,508.56
43.96649,406.39,506.92
43.98567,404.80,504.53
44.00643,406.11,504.07
44.02610,405.73,507.56
44.04559,405.14,510.62
44.06587,401.52,508.65
44.08578,404.95,509.38
44.10504,403.83,507.41
44.12814,402.88,508.33
44.14657,404.48,506.79
44.16708,403.10,503.78
44.18779,404.73,506.85
44.20687,401.10,508.29
44.22769,401.37,508.57
44.24717,404.73,510.52
44.26700,403.33,507.87
44.28711,400.81,505.85
44.30786,402.03,504.28
44.32647,401.80,503.23
44.34748,402.12,505.75
44.36730,402.98,503.26
44.38683,401.06,504.72
44.40658,399.97,509.67
44.42793,402.35,510.55
44.44728,403.69,506.22
44.46630,402.55,504.80
44.48765,403.15,505.46
44.50609,403.11,505.44
44.52796,399.41,503.64
44.54796,400.27,502.14
44.56671,400.42,504.98
44.58806,400.48,507.15
44.60703,399.96,507.14
44.62613,400.75,509.44
44.64704,397.81,506.22
44.66611,401.38,506.47
44.68687,401.97,506.76
44.70802,398.49,505.97
44.72626,397.00,504.13
44.74688,399.67,505.78
44.76772,396.84,504.72
44.78801,399.81,508.82
44.80720,399.09,508.66
44.82807,398.24,509.08
44.84877,397.04,503.78
44.86785,380.29,499.15
44.88899,359.22,494.94
44.90830,335.37,491.69
44.92723,312.45,487.21
44.94871,292.57,484.74
44.96839,280.17,477.22
44.98892,268.47,473.34
45.00895,261.64,465.42
45.02853,260.35,460.62
45.04850,263.93,456.22
45.06834,267.45,453.06
45.08760,271.87,450.55
45.10789,282.13,451.27
45.12801,286.71,452.55
45.14779,296.81,454.42
45.16940,301.34,457.75
45.18813,308.43,460.90
45.20917,317.73,461.97
45.22858,323.78,462.64
45.24986,332.97,466.89
45.26923,338.48,469.34
45.28999,343.50,473.90
45.30815,349.33,477.40
45.32908,353.73,481.71
45.35018,361.18,485.98
45.36979,364.76,493.08
45.38982,368.83,494.22
45.40933,371.82,493.49
45.42947,373.46,494.61
45.45027,375.20,497.87
45.47093,376.98,497.54
45.49022,381.36,497.70
45.50935,381.39,499.99
45.52950,382.33,502.73
45.55029,383.88,506.15
45.57108,387.47,506.08
45.58922,386.20,506.92
45.61081,386.50,503.02
45.63123,388.06,504.31
45.65050,393.35,508.99
45.67009,400.92,511.85
45.69031,417.16,518.01
45.71067,442.11,534.58
45.72989,471.18,548.04
45.75110,493.44,559.05
45.76976,519.99,567.99
45.79018,534.09,569.69
45.81024,549.53,576.46
45.83080,554.58,572.19
45.85048,550.94,568.00
45.87071,542.02,562.93
45.88973,532.18,555.15
45.91075,516.82,549.98
45.92940,505.45,547.62
45.95094,495.61,540.86
45.97023,484.13,532.50
45.99057,473.70,526.81
46.01212,464.14,522.73
46.03351,454.46,522.75
46.05314,450.11,519.41
46.07287,443.98,515.47
46.09205,436.11,514.97
46.11302,431.04,513.12
46.13352,426.20,515.42
46.15234,423.52,516.36
46.17275,421.51,512.64
46.19314,416.53,507.95
46.21298,412.80,509.11
46.23217,412.45,507.28
46.25418,412.45,504.02
46.27484,410.68,503.06
46.29310,410.63,506.46
46.31371,410.23,507.52
46.33406,408.18,509.60
46.35407,408.91,510.49
46.37494,408.70,507.04
46.39414,408.79,504.52
46.41480,408.80,506.47
46.43443,408.75,504.61
46.45574,407.93,501.79
46.47558,405.82,500.63
46.49509,405.25,502.14
46.51547,405.84,502.80
46.53479,402.84,502.21
46.55593,402.24,500.92
46.57484,405.58,499.29
46.59474,403.13,499.63
46.61564,404.13,499.93
46.63414,402.98,498.77
46.65512,403.75,497.15
46.67607,406.20,499.69
46.69423,406.33,500.14
46.71535,407.14,506.01
46.73508,405.81,504.20
46.75566,408.11,505.87
46.77588,410.07,504.37
46.79509,408.12,504.11
46.81538,408.85,504.39
46.83568,409.88,503.81
46.85547,407.74,504.89
46.87451,410.13,504.51
46.89580,409.67,506.49
46.91418,412.09,508.35
46.93529,412.96,508.92
46.95599,411.18,509.13
46.97443,413.12,506.69
46.99557,409.77,508.16
47.01601,411.28,504.29
47.03462,409.46,504.90
47.05463,409.59,505.07
47.07441,409.34,506.69
47.09481,407.96,507.87
47.11517,408.83,505.71
47.13535,406.75,506.84
47.15576,406.96,506.21
47.17505,406.54,505.00
47.19444,406.19,506.11
47.21468,409.62,504.85
47.23558,410.45,506.30
47.25678,408.78,504.16
47.27560,409.78,507.26
47.29657,407.96,509.01
47.31698,410.38,507.07
47.33626,406.97,511.41
47.35669,408.46,506.99
47.37676,408.88,504.90
47.39698,409.65,504.83
47.41558,408.05,503.64
47.43609,410.92,503.51
47.45650,409.02,504.33
47.47546,411.24,503.13
47.49555,408.11,507.40
47.51685,410.89,507.40
47.53641,407.78,509.43
47.55632,407.57,507.55
47.57633,407.78,505.55
47.59657,407.65,508.17
47.61657,410.41,505.10
47.63708,408.36,505.31
47.65744,408.03,505.01
47.67800,406.47,505.40
47.69888,409.33,505.46
47.71804,406.01,507.03
47.73865,408.68,508.83
47.75726,405.63,508.07
47.77770,408.81,505.53
47.79843,407.36,507.52
47.81719,406.45,506.63
47.83704,407.03,504.09
47.85807,407.44,507.84
47.87839,406.02,509.91
47.89720,405.41,508.67
47.91823,406.25,510.52
47.93779,407.21,512.16
47.95751,404.71,510.44
47.97750,404.32,506.53
47.99850,401.74,506.40
48.01698,405.48,505.31
48.03720,405.32,503.40
48.05748,403.45,504.38
48.07715,402.55,504.26
48.09888,404.46,503.02
48.11738,405.27,506.22
48.13793,402.46,508.86
48.15806,401.42,511.14
48.17785,401.48,509.17
48.19872,404.59,507.70
48.21762,401.85,508.14
48.23695,403.49,507.44
48.25729,404.65,505.76
48.27788,404.30,505.79
48.29707,402.12,505.46
48.31785,400.49,508.09
48.33721,403.51,508.69
48.35842,401.08,509.00
48.37822,401.62,510.15
48.39734,402.69,510.77
48.41866,400.59,507.66
48.43897,400.88,507.58
48.45881,400.23,503.60
48.47712,401.86,502.81
48.49720,399.50,503.84
48.51760,400.88,505.42
48.53849,399.49,505.31
48.55746,397.32,509.91
48.57787,400.70,508.95
48.59848,402.84,510.85
48.61729,401.29,510.57
48.63803,400.09,509.00
48.65809,401.30,507.72
48.67889,399.32,506.04
48.69840,400.27,506.10
48.71877,399.88,507.01
48.73699,399.41,506.58
48.75821,399.42,508.01
48.77863,400.10,510.10
48.79705,398.90,509.78
48.81702,400.41,508.57
48.83718,399.92,510.41
48.85700,401.90,507.44
48.87823,398.77,504.66
48.89690,398.71,503.98
48.91786,398.98,504.92
48.93793,402.57,506.01
48.95681,399.11,507.06
48.97851,399.50,507.82
48.99790,398.97,511.05
49.01787,402.86,508.64
49.03782,402.19,510.73
49.05828,393.56,507.38
49.07832,377.56,500.57
49.09830,353.00,494.94
49.12026,328.09,489.65
49.14176,302.25,485.89
49.16145,285.26,480.71
49.18183,273.21,473.97
49.20179,265.51,465.64
49.22278,258.57,460.72
49.24217,256.82,453.57
49.26175,261.14,447.99
49.28160,266.45,444.67
49.30156,273.69,444.13
49.32296,279.21,443.22
49.34203,289.32,441.99
49.36271,298.19,447.83
49.38185,305.10,452.76
49.40277,312.19,460.46
49.42110,318.55,462.94
49.44198,325.49,465.94
49.46268,334.91,469.60
49.48156,339.50,469.68
49.50280,346.74,471.70
49.52285,353.59,473.17
49.54183,357.05,476.71
49.56128,362.66,478.31
49.58251,366.34,481.14
49.60227,369.62,488.66
49.62226,370.80,492.63
49.64153,373.84,494.39
49.66271,378.40,498.72
49.68103,379.61,498.58
49.70152,380.79,498.70
49.72256,381.61,498.36
49.74113,383.80,499.52
49.76200,383.35,497.70
49.78262,384.57,498.48
49.80080,384.42,500.67
49.82295,382.34,502.13
49.84263,393.05,510.21
49.86202,410.20,522.60
49.88342,432.26,535.41
49.90316,462.62,549.91
49.92391,491.92,560.28
49.94437,521.05,568.81
49.96482,543.38,570.15
49.98425,550.25,569.81
50.00587,552.00,562.55
50.02578,545.55,555.93
50.04477,534.59,554.31
50.06493,523.93,551.60
50.08430,515.20,546.52
50.10413,500.40,542.42
50.12526,490.76,537.60
50.14436,478.86,529.49
50.16478,467.64,526.11
50.18554,460.67,520.50
50.20492,452.29,515.64
50.22521,443.12,515.63
50.24489,437.07,513.95
50.26411,436.05,513.83
50.28499,433.13,516.30
50.30513,427.78,518.98
50.32511,427.34,518.88
50.34541,423.87,516.23
50.36712,422.15,515.70
50.38707,419.62,510.20
50.40706,417.26,508.57
50.42710,415.71,506.17
50.44726,415.97,504.69
50.46645,413.72,505.27
50.48769,411.69,503.94
50.50671,412.57,505.52
50.52611,411.21,508.40
50.54774,409.69,508.91
50.56878,410.52,507.24
50.58874,412.82,508.53
50.60875,410.19,505.42
50.62940,412.35,507.18
50.64782,409.15,505.51
50.66804,409.24,503.74
50.68920,409.02,505.72
50.70923,412.08,501.88
50.72942,410.98,506.54
50.74973,410.64,508.45
50.76965,409.26,512.51
50.78887,411.74,511.97
50.80919,412.05,509.72
50.82991,408.77,510.60
50.84826,407.85,507.70
50.86940,410.39,508.58
50.88922,410.00,502.91
50.90865,411.06,502.90
50.92791,407.46,500.40
50.94812,409.20,502.70
50.96904,409.47,503.96
50.98953,407.76,504.09
51.00893,407.26,506.25
51.02972,408.88,504.58
51.04943,411.33,505.21
51.06796,409.20,502.62
51.08983,409.73,499.74
51.10991,408.78,499.94
51.13123,409.82,497.70
51.15104,407.02,497.41
51.17124,406.48,498.24
51.18994,405.90,498.71
51.21007,407.62,500.42
51.23147,406.60,502.49
51.25134,404.56,502.40
51.27259,404.99,502.70
51.29271,400.48,499.73
51.31197,403.15,499.96
51.33377,399.34,499.41
51.35315,399.37,496.73
51.37230,400.05,496.91
51.39316,397.68,496.01
51.41278,397.83,498.23
51.43244,396.44,499.84
51.45317,398.41,501.71
51.47572,396.59,504.15
51.49524,394.46,502.35
51.51559,392.58,504.60
51.53546,393.17,502.37
51.55546,392.72,499.91
51.57510,392.69,501.34
51.59403,394.04,501.82
51.61449,391.32,498.47
51.63508,392.17,499.23
51.65546,393.23,503.90
51.67565,392.67,505.82
51.69529,391.12,507.12
51.71491,391.01,508.55
51.73570,394.09,507.26
51.75514,392.39,508.99
51.77474,393.80,504.87
51.79393,393.22,503.55
51.81516,392.34,504.78
51.83448,389.97,502.56
51.85555,390.00,500.76
51.87550,389.33,501.85
51.89518,390.90,505.59
51.91466,389.57,505.82
51.93440,391.29,508.26
51.95491,392.22,509.54
51.97589,391.31,510.30
51.99623,389.29,505.97
52.01601,391.21,502.89
52.03625,391.62,505.24
52.05687,389.08,503.87
52.07636,388.91,500.38
52.09814,392.31,502.26
52.11793,392.90,502.21
52.13679,393.71,504.96
52.15830,392.04,502.61
52.17802,394.67,503.72
52.19885,393.72,505.28
52.21810,394.40,504.15
52.23692,394.29,503.35
52.25825,393.93,502.20
52.27909,394.87,502.84
52.29797,392.24,501.42
52.31813,392.04,500.49
52.33972,393.13,496.36
52.35812,393.45,497.03
52.37935,395.35,500.69
52.39841,395.77,500.74
52.41970,392.25,503.79
52.43806,391.77,501.87
52.45905,394.88,502.96
52.47885,392.96,502.54
52.49946,394.72,501.35
52.51919,393.36,501.24
52.53849,396.57,498.92
52.55953,393.91,501.26
52.57887,395.05,498.03
52.59816,396.51,500.71
52.61900,395.43,503.02
52.63975,394.39,502.98
52.65818,397.82,503.35
52.67843,397.85,503.26
52.69901,398.06,503.85
52.71843,395.30,504.56
52.73859,395.30,499.16
52.75857,395.80,498.06
52.77941,394.43,496.75
52.79896,395.55,495.89
52.81915,395.24,496.20
52.83824,395.57,498.68
52.85969,395.14,498.05
52.87815,395.46,502.52
52.89918,395.88,503.00
52.91961,392.75,503.21
52.93912,395.05,505.11
52.95991,395.60,504.51
52.97831,393.66,505.44
52.99881,393.66,504.68
53.01903,394.61,499.26
53.03820,394.22,498.59
53.05844,395.52,498.47
53.07845,396.27,498.41
53.09880,394.79,499.45
53.11833,396.81,500.10
53.13993,397.03,501.73
53.15862,394.51,503.49
53.17932,397.72,503.39
53.19873,399.16,503.64
53.21822,400.18,502.92
53.23935,398.47,505.87
53.25825,397.53,502.41
53.27851,399.58,502.23
53.29891,399.21,501.37
53.31891,396.31,498.36
53.33870,398.17,499.13
53.35879,396.85,501.10
53.37825,397.13,500.23
53.39952,396.52,502.19
53.41887,395.31,503.94
53.43985,394.91,503.86
53.45804,398.48,505.22
53.47959,398.62,505.97
53.49850,399.04,504.75
53.51965,398.63,502.32
53.53863,400.54,499.96
53.55781,400.69,498.59
53.57850,396.89,498.80
53.59805,384.63,498.36
53.61971,363.93,496.82
53.63925,338.88,496.13
53.65958,315.35,493.63
53.67773,294.37,487.22
53.69823,279.67,476.99
53.71869,270.26,466.01
53.73903,263.99,458.00
53.75875,266.97,451.42
53.77856,269.82,448.16
53.79967,274.54,443.30
53.81913,277.69,442.80
53.83875,287.62,443.98
53.85959,298.28,444.91
53.87870,305.17,444.50
53.89917,313.19,449.16
53.91887,320.69,457.45
53.93970,332.70,460.23
53.95907,339.56,465.98
53.97959,345.62,471.27
53.99902,355.51,478.39
54.01980,360.93,480.37
54.03834,367.19,483.63
54.05978,370.09,484.98
54.07895,375.47,484.84
54.09835,381.84,484.93
54.11942,385.74,485.64
54.13826,385.68,487.47
54.15802,390.22,486.93
54.17917,389.69,492.51
54.19798,391.34,495.07
54.21850,394.06,499.12
54.23950,394.58,498.34
54.25947,395.66,501.88
54.27912,393.82,501.57
54.29804,396.32,503.69
54.31943,398.66,502.68
54.33923,395.71,499.46
54.35915,395.34,501.11
54.37781,396.65,501.68
54.39930,397.91,498.71
54.41820,397.05,498.68
54.43828,400.33,501.54
54.45820,402.36,503.18
54.47907,402.17,506.29
54.49824,400.47,506.62
54.51906,402.85,505.58
54.53851,403.82,509.89
54.55834,412.43,520.30
54.57877,427.48,533.49
54.59824,445.26,547.91
54.61853,468.90,557.64
54.63967,498.99,561.89
54.65978,522.30,567.59
54.67895,548.21,566.14
54.69834,555.98,563.73
54.71849,557.97,562.71
54.73975,552.45,557.86
54.75873,544.74,554.45
54.77962,533.40,547.35
54.79889,522.56,541.82
54.81945,510.81,538.36
54.83808,500.24,534.06
54.85991,490.50,529.74
54.87824,483.95,525.99
54.89803,478.41,524.03
54.91890,473.64,518.54
54.93976,463.36,518.76
54.96008,459.41,514.55
54.97963,449.81,511.98
54.99891,446.30,512.76
55.02039,441.76,514.19
55.03994,438.29,513.75
55.05910,436.30,514.08
55.08074,432.72,514.51
55.10170,428.00,513.07
55.12133,426.47,512.37
55.14078,425.34,511.52
55.16158,422.03,511.17
55.18001,421.72,510.69
55.20053,419.05,505.59
55.22186,417.76,507.21
55.24163,413.35,505.18
55.26160,413.31,505.68
55.28146,411.90,506.18
55.30147,414.58,506.51
55.32189,412.08,506.47
55.34328,409.63,508.81
55.36438,406.59,512.13
55.38504,404.29,511.41
55.40524,403.13,511.57
55.42644,399.45,512.33
55.44728,399.68,510.10
55.46947,395.77,509.32
55.48871,394.11,506.25
55.51002,394.91,501.31
55.53130,395.93,503.24
55.55259,392.45,501.17
55.57217,391.28,501.29
55.59200,391.97,502.04
55.61140,393.34,502.00
55.63303,394.03,506.65
55.65253,392.72,505.92
55.67357,394.91,507.88
55.69193,393.69,507.53
55.71275,393.42,505.94
55.73230,394.86,506.80
55.75221,393.58,506.16
55.77217,396.48,505.40
55.79383,394.99,501.92
55.81207,395.36,501.75
55.83348,393.25,500.41
55.85228,393.22,499.54
55.87317,393.86,502.20
55.89231,395.20,499.70
55.91211,396.17,503.92
55.93337,394.02,506.16
55.95211,397.47,508.43
55.97267,395.61,506.80
55.99340,393.95,508.19
56.01221,396.88,509.06
56.03237,397.70,509.81
56.05367,397.87,508.77
56.07301,396.70,507.69
56.09326,397.62,505.46
56.11354,400.10,505.65
56.13407,400.09,502.69
56.15400,399.77,501.34
56.17445,398.03,498.92
56.19290,396.98,498.85
56.21426,399.05,498.61
56.23428,398.69,503.17
56.25354,397.70,503.11
56.27407,397.78,507.95
56.29455,400.36,508.99
56.31399,400.02,506.96
56.33282,398.84,508.51
56.35483,402.20,508.23
56.37401,401.97,505.13
56.39512,402.15,504.42
56.41440,402.88,504.80
56.43409,403.53,504.69
56.45517,405.72,502.98
56.47558,404.90,502.46
56.49622,406.55,500.51
56.51637,406.83,498.59
56.53676,409.30,501.45
56.55736,406.48,503.83
56.57844,407.80,508.28
56.59680,406.88,509.23
56.61838,406.66,511.57
56.63744,407.43,510.29
56.65849,408.02,513.75
56.67905,407.02,512.08
56.69900,408.32,512.34
56.71977,405.71,512.34
56.73963,405.11,508.46
56.75898,406.29,506.15
56.77830,407.08,503.01
56.79770,407.94,506.43
56.81790,407.97,502.29
56.83862,405.50,502.71
56.85900,408.20,502.73
56.87797,404.25,507.83
56.89827,405.88,506.66
56.91861,407.27,507.53
56.93804,404.31,510.08
56.95816,406.89,511.10
56.97805,406.19,510.64
56.99897,405.07,513.49
57.01839,407.16,510.04
57.03848,406.86,512.87
57.06063,405.29,513.17
57.07994,403.36,509.64
57.10057,403.58,511.70
57.11939,403.88,509.53
57.13982,404.67,506.78
57.15964,399.33,502.79
57.18083,384.41,501.65
57.19873,362.17,502.90
57.22020,338.76,501.88
57.24064,318.01,502.42
57.26015,302.56,500.81
57.28053,288.84,493.48
57.30134,281.30,489.86
57.32045,274.54,478.49
57.34074,274.02,472.73
57.36155,274.50,467.46
57.38352,275.75,459.52
57.40477,279.13,455.01
57.42340,284.10,454.34
57.44346,289.34,451.81
57.46403,298.41,451.05
57.48536,304.42,448.34
57.50658,311.32,447.81
57.52730,321.28,452.07
57.54798,327.49,450.80
57.56977,337.85,458.06
57.59039,344.94,459.79
57.60892,353.49,466.62
57.63096,359.05,471.55
57.65170,364.71,477.77
57.67089,370.39,482.65
57.69204,377.34,486.53
57.71171,379.78,489.30
57.73152,383.58,493.47
57.75167,387.10,495.57
57.77173,391.27,499.22
57.79132,393.49,498.53
57.81271,393.78,501.54
57.83232,395.41,500.92
57.85217,396.44,500.51
57.87286,400.66,504.79
57.89141,401.67,502.10
57.91081,403.97,501.90
57.93213,406.59,499.71
57.95080,404.72,499.59
57.97103,405.40,495.46
57.99234,405.98,498.26
58.01199,405.85,494.30
58.03434,405.66,499.50
58.05324,406.18,501.65
58.07495,409.01,502.01
58.09459,410.19,504.59
58.11362,410.50,505.63
58.13510,415.65,507.16
58.15530,427.69,516.83
58.17675,444.36,528.73
58.19630,466.95,545.85
58.21523,498.04,558.71
58.23506,524.02,566.35
58.25491,546.37,571.73
58.27561,558.54,574.78
58.29651,560.55,573.80
58.31546,557.18,567.63
58.33548,550.01,558.78
58.35648,539.70,550.46
58.37636,527.51,541.92
58.39535,515.96,536.14
58.41580,503.70,532.10
58.43500,493.03,531.70
58.45567,481.58,527.68
58.47655,472.77,526.61
58.49611,465.68,522.71
58.51639,456.44,520.82
58.53542,450.23,522.17
58.55548,444.07,517.77
58.57635,438.58,518.46
58.59544,433.44,515.36
58.61528,426.94,518.13
58.63643,424.37,516.26
58.65557,417.80,514.82
58.67476,417.08,514.22
58.69603,414.59,511.69
58.71532,411.94,511.46
58.73473,413.41,513.93
58.75565,409.80,511.79
58.77523,409.24,511.30
58.79556,409.79,510.92
58.81664,411.30,506.85
58.83489,412.57,509.24
58.85472,411.91,504.52
58.87617,407.50,502.51
58.89615,404.60,503.17
58.91756,404.86,504.75
58.93655,400.28,506.81
58.95629,402.15,508.95
58.97743,402.52,508.28
58.99629,399.86,510.03
59.01589,400.51,510.02
59.03714,398.78,510.16
59.05669,400.32,509.79
59.07688,398.54,511.65
59.09736,398.67,509.69
59.11608,397.47,509.04
59.13771,397.59,508.65
59.15726,398.84,509.88
59.17735,397.90,508.41
59.19727,403.19,508.16
59.21650,401.24,509.09
