Program Time [s],data 0,data 1
118.61490,404.17,521.16
118.63324,401.17,521.80
118.65204,402.80,524.79
118.67235,404.15,525.58
118.69376,407.23,526.64
118.71310,407.96,525.84
118.73271,403.08,526.31
118.75378,403.49,525.96
118.77230,405.20,527.86
118.79248,407.55,536.84
118.81325,409.52,540.68
118.83358,410.81,547.77
118.85283,410.81,546.84
118.87397,407.89,547.29
118.89267,412.17,545.23
118.91326,414.53,541.38
118.93347,413.91,535.88
118.95209,414.58,528.81
118.97242,414.60,525.74
118.99349,414.19,524.48
119.01298,412.37,517.04
119.03306,403.75,517.65
119.05339,411.68,517.67
119.07301,414.48,517.12
119.09370,418.45,517.37
119.11347,420.43,517.67
119.13346,417.29,518.15
119.15271,424.77,525.10
119.17272,423.97,524.79
119.19276,421.82,529.37
119.21269,422.28,531.77
119.23246,417.73,534.12
119.25382,421.60,534.63
119.27359,420.46,536.29
119.29306,419.82,535.03
119.31265,419.30,532.67
119.33473,421.02,534.29
119.35316,420.31,539.52
119.37418,408.39,531.86
119.39476,392.71,518.53
119.41407,376.99,506.94
119.43362,358.91,493.36
119.45425,340.48,482.64
119.47426,323.62,473.00
119.49480,307.58,465.89
119.51407,297.39,455.96
119.53552,291.62,456.64
119.55339,291.40,453.85
119.57434,290.30,453.84
119.59447,292.65,457.08
119.61496,294.98,463.86
119.63452,302.00,468.82
119.65374,311.17,472.80
119.67455,320.61,476.78
119.69306,328.82,479.49
119.71435,336.96,488.47
119.73473,340.96,491.26
119.75474,350.87,495.32
119.77344,355.15,499.63
119.79480,363.70,507.03
119.81408,368.22,506.34
119.83479,374.29,510.58
119.85453,380.15,512.78
119.87374,386.38,516.79
119.89318,391.70,520.12
119.91429,391.08,518.95
119.93490,395.05,519.34
119.95371,394.74,519.73
119.97469,398.06,522.72
119.99380,401.07,521.42
120.01410,401.26,523.43
120.03412,400.10,523.99
120.05494,403.09,526.69
120.07320,404.49,526.36
120.09373,405.53,527.10
120.11365,404.09,529.71
120.13326,407.37,530.46
120.15333,407.91,530.83
120.17477,406.73,530.79
120.19462,407.58,533.89
120.21311,417.37,543.69
120.23404,425.92,556.25
120.25385,448.36,576.28
120.27334,466.82,594.96
120.29349,493.39,615.24
120.31427,519.71,623.17
120.33315,542.33,626.27
120.35344,563.69,624.93
120.37365,568.19,616.60
120.39393,565.15,608.48
120.41330,558.96,598.87
120.43481,547.55,586.49
120.45427,535.12,576.70
120.47471,523.11,568.20
120.49447,509.50,555.79
120.51439,500.54,550.51
120.53360,489.11,544.88
120.55434,482.97,539.45
120.57453,473.25,532.38
120.59347,465.45,530.66
120.61423,460.37,528.55
120.63353,452.67,526.72
120.65472,446.61,523.58
120.67354,440.11,523.46
120.69305,435.97,522.32
120.71377,430.58,526.11
120.73486,427.55,523.96
120.75382,423.74,521.38
120.77306,421.36,522.88
120.79449,417.95,524.73
120.81458,417.01,525.59
120.83322,413.35,530.23
120.85425,415.71,533.49
120.87387,413.84,537.88
120.89398,417.12,548.60
120.91361,417.98,553.43
120.93412,417.02,546.40
120.95464,420.95,547.19
120.97309,423.21,549.64
120.99471,418.10,534.11
121.01462,423.52,541.13
121.03386,430.84,539.10
121.05447,441.15,542.19
121.07318,439.06,536.62
121.09404,445.40,531.27
121.11429,444.80,524.77
121.13587,447.61,525.24
121.15324,451.24,516.32
121.17494,458.31,511.45
121.19370,451.11,499.91
121.21304,451.35,502.02
121.23483,436.35,497.39
121.25341,421.45,500.48
121.27468,432.18,513.07
121.29433,424.65,521.41
121.31437,418.97,518.73
121.33444,418.57,525.08
121.35322,411.23,524.83
121.37324,408.44,528.89
121.39399,402.26,527.10
121.41434,402.33,527.30
121.43441,399.41,524.56
121.45341,396.63,526.70
121.47445,394.46,524.57
121.49352,394.01,526.54
121.51487,390.16,524.80
121.53350,390.64,527.32
121.55451,394.62,532.43
121.57440,395.94,535.41
121.59359,397.75,536.62
121.61427,394.95,534.48
121.63351,396.85,536.28
121.65314,399.65,536.43
121.67443,398.78,535.27
121.69485,398.27,533.98
121.71340,400.27,533.48
121.73304,400.97,533.92
121.75311,400.57,532.56
121.77320,404.82,529.95
121.79437,405.57,530.47
121.81450,406.98,532.21
121.83365,402.20,533.35
121.85311,403.62,530.88
121.87319,404.65,533.26
121.89466,405.75,530.98
121.91407,403.68,532.80
121.93490,405.05,529.11
121.95383,405.32,526.86
121.97322,402.58,526.92
121.99370,401.81,523.64
122.01329,402.97,522.58
122.03401,400.96,521.58
122.05443,403.86,520.54
122.07397,403.23,523.44
122.09322,401.93,524.20
122.11408,402.19,523.67
122.13393,399.84,525.93
122.15381,401.05,526.41
122.17336,400.87,525.51
122.19307,399.58,526.96
122.21400,400.78,524.15
122.23409,399.36,527.39
122.25389,398.56,526.36
122.27488,400.86,524.55
122.29362,400.78,523.51
122.31484,401.01,525.34
122.33321,400.44,527.45
122.35317,399.38,524.20
122.37393,399.45,524.65
122.39380,403.32,527.98
122.41465,402.28,528.04
122.43401,399.48,525.21
122.45312,401.92,527.47
122.47475,401.26,525.53
122.49442,400.62,524.88
122.51315,400.17,527.56
122.53494,400.65,527.81
122.55354,397.15,525.83
122.57447,396.46,525.24
122.59499,396.07,527.95
122.61486,399.79,525.76
122.63313,398.26,524.75
122.65306,397.85,527.14
122.67491,399.92,526.14
122.69321,395.23,527.30
122.71460,398.11,525.41
122.73481,398.73,526.36
122.75412,399.17,526.94
122.77493,396.73,529.58
122.79457,394.26,528.45
122.81483,382.08,528.18
122.83301,363.83,524.97
122.85377,341.51,518.93
122.87390,323.26,508.20
122.89530,302.26,494.86
122.91439,285.56,481.43
122.93485,273.13,465.23
122.95508,265.00,452.20
122.97593,262.15,446.77
122.99469,259.67,442.91
123.01437,261.49,442.22
123.03454,264.72,442.36
123.05487,270.35,446.40
123.07568,276.75,451.31
123.09471,283.68,459.47
123.11456,291.28,463.31
123.13467,300.38,472.03
123.15491,309.27,478.47
123.17544,320.29,482.49
123.19461,326.95,488.49
123.21433,335.38,496.39
123.23532,342.63,499.32
123.25559,349.04,503.33
123.27519,353.62,508.62
123.29511,358.71,515.05
123.31476,364.42,516.60
123.33411,366.05,519.49
123.35559,367.26,523.47
123.37462,372.65,526.56
123.39497,375.51,525.02
123.41578,376.47,529.20
123.43540,379.33,528.70
123.45491,382.63,530.86
123.47478,386.80,528.43
123.49420,386.90,528.21
123.51468,388.07,530.15
123.53428,386.85,529.28
123.55517,394.55,537.03
123.57597,405.21,552.23
123.59498,425.02,578.62
123.61463,448.93,606.07
123.63595,470.69,624.14
123.65426,499.17,638.26
123.67557,521.93,658.56
123.69427,546.11,679.34
123.71456,560.78,703.20
123.73583,571.30,720.06
123.75406,569.14,724.31
123.77458,560.85,710.84
123.79413,552.10,685.31
123.81519,538.90,650.16
123.83553,521.65,618.46
123.85566,505.60,589.16
123.87568,493.15,561.39
123.89444,477.81,537.88
123.91411,465.54,515.41
123.93513,453.07,502.27
123.95530,442.98,488.71
123.97421,436.73,479.32
123.99577,430.32,471.58
124.01569,425.92,472.05
124.03418,421.27,471.71
124.05409,416.46,472.20
124.07486,415.08,474.34
124.09577,409.68,475.41
124.11407,408.50,479.82
124.13530,405.31,482.76
124.15567,404.85,488.05
124.17523,404.76,492.39
124.19649,402.17,495.80
124.21530,401.68,500.89
124.23633,401.71,501.88
124.25615,399.09,504.04
124.27641,399.91,509.73
124.29512,398.37,511.71
124.31503,399.17,512.59
124.33508,400.41,516.79
124.35656,399.29,519.11
124.37674,397.43,518.57
124.39574,396.63,520.03
124.41640,396.92,523.51
124.43649,397.93,523.50
124.45754,398.48,527.80
124.47688,399.37,527.57
124.49714,400.09,530.39
124.51718,396.55,532.16
124.53710,398.97,530.43
124.55744,396.30,530.73
124.57653,398.71,530.78
124.59755,398.89,532.90
124.61714,397.39,533.27
124.63779,401.19,532.45
124.65656,398.85,532.73
124.67617,400.62,529.98
124.69674,398.51,531.20
124.71770,400.42,527.14
124.73671,399.24,527.36
124.75602,399.50,526.59
124.77692,400.49,526.85
124.79774,397.94,528.73
124.81708,399.67,529.94
124.83679,400.50,527.62
124.85661,400.69,527.69
124.87769,398.49,529.48
124.89790,398.01,527.41
124.91619,400.53,526.96
124.93776,401.39,526.98
124.95734,400.56,528.30
124.97778,402.10,526.64
124.99606,400.80,529.56
125.01760,400.47,530.22
125.03665,399.20,529.88
125.05630,401.25,530.05
125.07628,399.35,527.22
125.09762,400.74,530.27
125.11785,401.60,527.88
125.13690,402.12,527.84
125.15740,401.64,525.66
125.17742,400.52,523.71
125.19754,401.92,524.50
125.21739,399.92,525.39
125.23724,399.12,522.91
125.25635,401.81,524.02
125.27659,399.99,525.45
125.29653,402.45,525.80
125.31703,400.63,523.18
125.33664,399.85,526.05
125.35631,402.92,524.64
125.37624,402.24,523.34
125.39643,401.86,523.41
125.41727,401.20,524.82
125.43796,402.49,524.65
125.45697,403.76,522.93
125.47604,402.94,522.24
125.49790,404.63,525.12
125.51642,405.64,523.98
125.53643,404.67,523.00
125.55652,401.46,521.09
125.57646,404.93,522.16
125.59654,402.00,519.65
125.61631,400.93,520.13
125.63782,402.16,524.33
125.65786,401.74,523.72
125.67774,406.44,522.96
125.69612,406.14,522.57
125.71605,403.65,520.84
125.73681,405.80,521.87
125.75796,403.56,525.10
125.77629,401.24,525.13
125.79685,402.16,523.11
125.81653,402.02,524.78
125.83653,404.15,524.07
125.85649,403.51,524.53
125.87776,401.15,522.83
125.89717,402.85,522.37
125.91759,402.70,522.24
125.93774,402.82,520.99
125.95681,399.48,524.47
125.97669,400.92,526.08
125.99674,402.43,525.27
126.01705,402.72,525.95
126.03634,402.42,524.55
126.05710,401.06,527.90
126.07792,401.35,526.46
126.09687,400.36,524.80
126.11704,403.92,527.71
126.13788,403.07,526.78
126.15752,405.86,528.02
126.17784,403.50,525.43
126.19669,403.95,526.10
126.21685,404.40,523.65
126.23635,404.37,525.53
126.25605,405.36,523.03
126.27688,406.34,526.36
126.29736,405.83,525.53
126.31797,406.11,524.02
126.33633,406.58,523.77
126.35773,404.39,527.28
126.37787,405.00,527.29
126.39697,403.58,524.89
126.41773,404.98,526.42
126.43649,402.37,528.47
126.45779,403.24,524.36
126.47678,403.19,524.20
126.49618,405.07,522.50
126.51695,404.81,522.42
126.53605,403.12,521.26
126.55645,406.43,522.17
126.57641,407.15,519.73
126.59627,404.70,518.01
126.61703,404.07,520.84
126.63608,405.33,520.06
126.65705,404.90,519.88
126.67781,409.36,518.62
126.69605,402.56,517.62
126.71775,382.77,511.36
126.73676,362.59,501.43
126.75612,338.51,492.77
126.77634,315.27,479.23
126.79686,299.91,468.90
126.81618,284.19,461.80
126.83735,274.52,456.45
126.85779,271.80,454.93
126.87632,271.01,455.75
126.89651,271.37,454.95
126.91710,276.17,459.21
126.93749,281.22,459.61
126.95744,292.73,464.55
126.97655,299.77,464.91
126.99774,309.61,472.55
127.01737,317.47,475.46
127.03698,326.15,479.98
127.05612,336.99,483.87
127.07708,344.87,491.59
127.09655,350.95,495.96
127.11701,360.68,500.26
127.13654,367.93,502.53
127.15692,371.64,508.15
127.17648,377.93,508.29
127.19649,380.77,511.46
127.21637,387.02,513.44
127.23697,390.63,517.62
127.25681,394.38,520.72
127.27607,395.72,518.54
127.29675,399.47,519.73
127.31636,398.25,522.00
127.33753,403.17,523.00
127.35671,406.25,520.43
127.37632,405.10,522.38
127.39711,407.53,522.94
127.41778,407.81,524.68
127.43663,408.74,522.32
127.45601,410.36,523.70
127.47674,408.49,524.64
127.49609,412.94,530.03
127.51708,424.70,544.94
127.53678,437.80,560.67
127.55732,457.58,572.70
127.57710,479.42,591.39
127.59703,501.80,603.64
127.61619,528.34,610.44
127.63609,548.52,611.64
127.65719,565.80,605.72
127.67783,568.94,598.85
127.69797,566.80,590.13
127.71727,558.31,585.10
127.73772,550.77,576.27
127.75688,538.31,569.19
127.77662,523.66,562.23
127.79668,512.98,558.91
127.81677,500.91,556.62
127.83787,491.87,549.26
127.85743,483.40,547.40
127.87797,472.07,542.37
127.89621,464.81,541.58
127.91622,462.34,540.22
127.93793,454.75,537.27
127.95729,452.91,534.46
127.97704,447.42,531.48
127.99688,442.29,530.15
128.01728,440.87,527.58
128.03618,436.80,525.95
128.05736,434.42,526.05
128.07677,429.56,527.51
128.09718,427.12,526.80
128.11781,425.27,526.64
128.13601,421.86,524.58
128.15613,421.83,526.27
128.17754,422.16,526.88
128.19692,417.92,525.83
128.21752,419.24,525.35
128.23625,416.77,522.77
128.25651,417.97,523.52
128.27786,416.04,524.23
128.29629,417.01,524.00
128.31617,416.94,522.36
128.33667,417.11,524.81
128.35779,415.53,523.41
128.37735,415.33,521.78
128.39741,416.52,523.94
128.41752,414.26,521.95
128.43633,413.45,519.29
128.45621,417.13,520.87
128.47619,414.51,520.50
128.49717,413.18,518.87
128.51683,414.13,520.94
128.53780,411.91,520.65
128.55751,415.13,523.85
128.57782,414.57,525.24
128.59648,415.99,522.71
128.61707,414.44,523.20
128.63692,415.04,524.46
128.65729,418.57,527.41
128.67738,416.54,525.00
128.69611,419.28,526.29
128.71694,418.07,524.51
128.73778,416.39,526.83
128.75781,417.19,525.25
128.77750,419.37,523.22
128.79702,419.74,523.84
128.81638,418.65,523.45
128.83798,415.76,523.53
128.85796,417.90,521.49
128.87661,416.96,522.59
128.89657,415.75,524.43
128.91602,415.33,521.95
128.93744,416.40,521.98
128.95722,418.92,521.12
128.97691,419.48,520.55
128.99605,419.25,522.74
129.01685,418.36,519.94
129.03725,419.05,523.17
129.05752,416.19,521.31
129.07682,417.39,521.27
129.09694,415.66,524.67
129.11664,417.14,523.98
129.13776,416.37,522.94
129.15708,417.58,525.36
129.17730,416.27,525.31
129.19752,416.81,524.64
129.21684,419.11,525.13
129.23684,417.49,526.38
129.25741,417.65,524.83
129.27736,416.63,522.39
129.29773,414.73,523.54
129.31625,417.96,522.80
129.33620,418.06,523.96
129.35712,417.62,522.03
129.37796,416.87,523.07
129.39638,417.77,521.94
129.41693,417.06,524.13
129.43628,416.27,524.79
129.45792,416.86,525.04
129.47739,415.31,522.55
129.49738,414.18,523.61
129.51781,416.83,525.30
129.53782,417.61,524.43
129.55612,418.17,524.11
129.57766,418.43,522.08
129.59718,419.23,523.35
129.61604,418.65,524.09
129.63602,417.64,521.59
129.65629,419.69,520.87
129.67652,417.79,522.66
129.69769,419.37,521.81
129.71641,419.69,523.09
129.73688,416.54,521.02
129.75697,415.92,523.69
129.77748,415.66,523.59
129.79767,415.20,524.12
129.81613,416.58,520.96
129.83775,418.89,522.47
129.85642,418.30,523.24
129.87647,417.63,522.95
129.89607,420.09,525.71
129.91771,420.65,525.66
129.93665,420.35,525.49
129.95636,419.66,525.59
129.97642,419.77,525.57
129.99782,416.13,523.50
130.01611,415.71,521.19
130.03657,419.10,523.04
130.05604,417.74,523.98
130.07717,415.66,525.00
130.09676,415.75,524.11
130.11785,417.78,522.54
130.13681,416.24,523.63
130.15666,420.54,525.88
130.17679,421.10,525.29
130.19715,419.16,525.95
130.21727,415.21,524.62
130.23640,417.82,523.13
130.25793,416.64,524.69
130.27681,414.94,523.74
130.29707,417.75,525.20
130.31772,416.76,524.44
130.33698,417.34,525.07
130.35651,419.82,525.57
130.37701,418.17,527.42
130.39763,415.61,522.75
130.41715,415.65,523.85
130.43633,419.03,525.30
130.45729,416.12,525.02
130.47721,415.52,521.86
130.49680,415.58,525.44
130.51786,415.27,524.17
130.53752,416.71,520.34
130.55657,413.80,521.83
130.57740,413.93,522.47
130.59690,417.48,522.12
130.61688,412.95,522.60
130.63820,394.65,518.99
130.65759,376.90,511.33
130.67828,353.16,510.32
130.70009,329.31,509.17
130.71979,312.00,502.94
130.73974,296.21,497.95
130.75939,285.99,489.04
130.78010,284.15,485.39
130.80005,282.53,475.90
130.82079,286.03,471.69
130.84084,290.58,470.16
130.85904,296.06,467.91
130.88015,303.40,464.28
130.89967,312.20,465.29
130.92047,321.67,465.30
130.93992,331.98,470.44
130.96006,340.93,475.78
130.98051,349.70,480.30
130.99952,358.85,483.32
131.01958,365.30,490.62
131.04037,372.09,492.43
131.05927,377.01,496.98
131.08078,381.51,501.60
131.09937,385.25,507.86
131.11924,389.96,509.76
131.13911,392.70,511.99
131.15965,393.26,516.42
131.18035,396.59,517.97
131.19969,401.50,519.48
131.22034,400.70,522.96
131.23943,402.53,523.18
131.25958,403.46,524.15
131.27998,406.43,528.54
131.29996,404.93,527.12
131.32020,405.49,527.34
131.33948,404.88,527.73
131.35927,407.79,527.25
131.38021,405.77,527.04
131.40040,406.51,527.72
131.41982,406.62,528.57
131.43976,409.07,529.60
131.45921,411.35,529.44
131.47944,407.34,526.38
131.50008,414.91,533.21
131.52058,427.44,541.33
131.54116,444.97,553.09
131.56151,465.74,569.07
131.58109,489.46,582.02
131.60080,514.02,593.85
131.62010,533.28,599.91
131.64175,550.80,607.94
131.66180,554.72,607.18
131.68020,553.60,603.89
131.70189,547.84,597.96
131.72152,536.24,588.51
131.74113,526.44,583.57
131.76035,515.56,572.76
131.78104,505.10,567.81
131.80136,495.41,563.14
131.82015,483.37,557.04
131.84095,474.21,554.68
131.86099,463.52,549.30
131.88148,457.70,548.12
131.90173,451.85,543.00
131.92170,443.34,542.01
131.94108,439.27,540.14
131.96181,435.47,536.36
131.98128,431.77,534.31
132.00074,425.42,532.03
132.02177,417.29,529.20
132.04177,409.94,523.23
132.06194,406.27,522.53
132.08006,401.76,522.28
132.10163,400.96,519.12
132.12200,404.07,520.41
132.14173,401.57,524.08
132.16129,403.06,522.60
132.18189,402.93,524.28
132.20104,401.49,524.32
132.22106,400.19,524.84
132.24160,400.45,525.99
132.26093,401.61,527.86
132.28026,401.02,526.61
132.30115,404.79,530.80
132.32165,415.40,536.50
132.34030,427.17,541.57
132.36101,429.12,545.67
132.38144,429.71,545.15
132.40298,428.40,545.05
132.42176,427.32,543.77
132.44182,425.00,544.27
132.46257,424.58,541.94
132.48146,421.10,539.58
132.50130,419.96,537.80
132.52215,418.64,538.31
132.54107,413.21,537.81
132.56264,412.38,535.36
132.58113,411.60,535.61
132.60105,410.13,533.55
132.62254,411.59,533.44
132.64167,409.41,530.03
132.66253,409.59,529.83
132.68199,408.65,530.40
132.70185,407.32,527.40
132.72279,408.23,528.47
132.74168,407.28,528.63
132.76201,405.56,525.36
132.78149,404.39,524.74
132.80119,401.96,527.21
132.82287,404.53,523.95
132.84106,400.36,524.95
132.86266,399.64,527.44
132.88164,401.68,527.97
132.90216,401.08,526.02
132.92139,399.54,526.61
132.94185,400.04,528.88
132.96201,399.04,526.45
132.98107,399.52,529.15
133.00188,398.95,528.41
133.02191,399.77,526.04
133.04169,400.04,527.53
133.06282,399.33,528.62
133.08136,400.01,528.38
133.10124,399.98,528.13
133.12271,400.37,530.37
133.14112,399.14,527.71
133.16248,397.58,529.68
133.18246,396.92,528.90
133.20160,400.25,527.40
133.22142,397.47,529.15
133.24165,398.36,528.22
133.26112,399.42,529.75
133.28236,398.06,529.32
133.30269,397.91,529.37
133.32259,396.06,527.04
133.34190,393.52,526.93
133.36245,396.05,527.48
133.38136,396.42,527.27
133.40220,397.50,529.08
133.42133,398.64,525.47
133.44118,398.63,526.21
133.46246,398.17,525.13
133.48254,396.48,523.87
133.50121,397.35,525.37
133.52136,396.80,524.65
133.54224,396.78,524.06
133.56177,396.73,527.50
133.58230,395.51,524.16
133.60250,394.79,524.47
133.62238,393.75,526.92
133.64273,394.74,526.27
133.66123,396.75,526.36
133.68165,395.77,525.04
133.70182,399.22,528.00
133.72126,398.57,525.66
133.74160,396.88,527.54
133.76249,397.14,525.50
133.78268,398.10,527.93
133.80135,398.05,528.11
133.82258,395.16,527.81
133.84131,394.28,525.32
133.86279,392.14,527.47
133.88241,392.38,528.37
133.90105,393.61,526.08
133.92253,382.28,519.25
133.94196,366.87,511.41
133.96123,344.73,510.23
133.98167,323.79,508.17
134.00285,302.55,514.87
134.02198,286.11,510.16
134.04193,271.89,500.26
134.06241,264.64,490.35
134.08193,260.30,481.11
134.10281,262.63,471.02
134.12192,263.20,465.58
134.14151,266.91,460.82
134.16207,276.82,458.85
134.18245,283.16,459.86
134.20294,291.59,459.77
134.22223,304.96,465.98
134.24187,313.40,468.74
134.26172,320.79,475.10
134.28144,331.24,478.15
134.30126,339.65,481.08
134.32290,344.63,484.94
134.34296,351.67,491.32
134.36282,358.90,493.86
134.38238,364.28,497.03
134.40136,366.38,504.52
134.42160,372.00,506.35
134.44174,375.29,510.06
134.46111,378.22,510.71
134.48247,379.82,514.82
134.50260,381.77,514.86
134.52164,386.43,519.04
134.54267,383.88,517.99
134.56117,389.80,520.63
134.58137,386.84,520.68
134.60287,389.18,525.22
134.62134,389.79,522.84
134.64131,391.14,522.70
134.66139,392.81,522.52
134.68194,393.71,523.31
134.70217,390.77,523.63
134.72103,390.52,521.27
134.74152,391.09,523.97
134.76219,389.42,520.76
134.78152,390.58,519.57
134.80197,392.11,523.47
134.82226,391.56,524.08
134.84161,392.34,522.83
134.86239,392.94,525.28
134.88184,392.80,523.17
134.90252,395.88,529.75
134.92217,404.17,543.04
134.94244,416.72,556.05
134.96165,435.82,569.25
134.98229,456.30,585.91
135.00122,481.34,598.06
135.02224,509.01,601.07
135.04196,530.79,602.32
135.06290,543.97,600.83
135.08254,545.20,593.20
135.10204,543.53,587.53
135.12258,536.99,579.21
135.14243,524.56,572.51
135.16171,514.92,562.36
135.18255,504.62,558.08
135.20187,492.52,549.82
135.22295,481.38,546.44
135.24161,471.81,545.13
135.26287,461.27,541.69
135.28229,453.16,538.62
135.30273,446.63,535.72
135.32213,440.74,535.25
135.34330,433.76,533.36
135.36207,429.02,536.57
135.38380,432.88,541.97
135.40205,429.35,543.33
135.42219,427.76,546.11
135.44234,426.28,545.70
135.46320,421.21,542.17
135.48292,421.41,539.26
135.50235,414.37,539.91
135.52233,412.22,538.34
135.54202,413.32,533.27
135.56271,410.34,534.94
135.58351,406.70,530.53
135.60297,406.66,530.60
135.62245,406.88,527.47
135.64374,404.16,526.44
135.66368,404.52,529.75
135.68378,403.09,527.49
135.70345,401.04,525.23
135.72235,402.91,527.93
135.74212,400.80,527.05
135.76217,400.83,528.60
135.78229,397.08,528.22
135.80356,396.23,525.21
135.82351,398.49,526.47
135.84334,397.55,526.82
135.86373,394.21,523.17
135.88430,396.60,522.47
135.90682,395.38,522.40
135.92655,398.89,522.24
135.94651,400.22,524.50
135.96640,402.37,524.41
135.98796,404.09,524.80
136.00790,404.95,525.47
136.02721,407.77,525.35
136.04727,406.24,525.13
136.06769,406.42,527.23
136.08761,406.39,523.85
136.10720,410.08,526.33
136.12864,410.03,527.46
136.14865,412.25,525.96
136.16867,411.05,526.92
136.18778,411.73,524.10
136.20792,410.76,527.29
136.22730,412.95,529.31
136.24727,413.06,528.21
136.26983,413.79,527.36
136.28814,410.78,529.85
136.30904,411.39,527.04
136.32823,414.30,526.89
136.34985,413.85,528.34
136.37025,416.05,524.76
136.39016,417.62,527.33
136.41055,418.58,524.09
136.43045,416.72,525.69
136.45044,418.59,525.79
136.47081,418.50,523.96
136.49013,417.65,524.17
136.51003,418.58,523.34
136.52904,417.62,526.55
136.54949,417.02,526.58
136.57057,419.22,525.29
136.58961,416.64,525.23
136.61039,417.81,524.63
136.63067,416.76,523.82
136.65195,417.42,523.76
136.67053,417.84,527.13
136.69028,417.85,526.69
136.71123,417.03,526.34
136.73005,418.70,525.27
136.75082,417.73,523.37
136.77047,416.12,524.99
136.79280,418.94,524.82
136.81268,417.42,529.21
136.83237,416.52,528.65
136.85314,418.76,528.00
136.87319,416.64,531.96
136.89228,418.13,531.43
136.91246,416.03,530.34
136.93359,414.72,530.29
136.95311,413.16,527.76
136.97328,411.40,526.95
136.99203,412.77,526.97
137.01256,413.22,527.77
137.03429,413.91,526.82
137.05325,414.47,530.27
137.07472,415.17,527.56
137.09395,412.12,528.88
137.11421,412.79,526.30
137.13371,410.60,528.53
137.15422,411.04,527.15
137.17490,413.02,525.19
137.19444,412.92,526.66
137.21483,413.69,525.51
137.23474,411.57,527.57
137.25486,412.68,527.36
137.27380,411.95,526.59
137.29444,410.84,523.74
137.31512,411.12,524.49
137.33419,409.59,524.35
137.35502,407.60,525.41
137.37541,410.95,524.40
137.39416,409.24,525.17
137.41449,410.53,526.56
137.43482,409.80,524.34
137.45529,410.63,525.44
137.47554,408.22,525.52
137.49433,409.04,526.68
137.51416,407.33,527.18
137.53481,406.56,528.38
137.55591,408.00,526.30
137.57413,406.48,527.16
137.59403,403.52,527.83
137.61575,401.53,527.67
137.63799,402.25,525.48
137.65758,400.70,526.69
137.67790,400.08,525.23
137.69741,397.27,524.38
137.71793,395.49,525.08
137.73795,395.76,524.26
137.75776,398.20,526.27
137.77708,397.64,522.63
137.79776,394.85,526.67
137.81641,395.94,526.39
137.83698,395.26,527.15
137.85718,394.52,526.89
137.87756,395.77,524.52
137.89761,394.74,527.38
137.91688,398.11,528.60
137.93732,394.71,527.24
137.95771,397.77,526.38
137.97741,397.69,527.45
137.99768,395.80,526.03
138.01715,396.25,527.49
138.03675,393.16,525.96
138.05656,394.66,523.04
138.07605,396.03,523.64
138.09730,394.90,524.35
138.11773,394.91,525.76
138.13631,396.10,524.00
138.15656,396.05,522.41
138.17614,396.45,524.26
138.19627,393.99,523.68
138.21723,392.90,522.61
138.23784,396.53,524.86
138.25723,394.38,523.76
138.27709,393.76,523.94
138.29618,393.19,527.50
138.31746,385.23,520.90
138.33772,367.36,515.72
138.35827,346.67,512.95
138.37895,324.60,512.53
138.39948,302.43,503.37
138.42074,287.22,494.24
138.43979,276.85,482.25
138.45999,269.61,468.22
138.47938,262.27,457.63
138.50096,261.34,449.66
138.51970,266.34,446.10
138.54066,271.60,445.12
138.56012,277.09,444.58
138.58075,287.08,446.74
138.59946,295.34,446.72
138.61931,303.58,454.66
138.63914,313.80,460.21
138.65943,322.00,466.49
138.68085,330.26,472.06
138.69946,335.48,479.06
138.71936,343.94,482.53
138.74074,349.15,486.95
138.76053,355.42,495.83
138.77916,359.40,498.09
138.80063,367.36,503.99
138.81980,367.84,503.78
138.83904,374.53,507.87
138.86009,375.46,509.28
138.87946,382.67,513.25
138.89921,383.48,515.41
138.92083,385.34,517.18
138.94068,387.72,521.65
138.95929,386.64,523.34
138.97994,389.50,522.98
138.99941,389.53,522.55
139.01919,393.49,520.89
139.04080,392.79,523.21
139.06010,393.54,522.95
139.08011,393.42,525.28
139.10086,393.47,524.93
139.11970,393.86,524.49
139.13972,396.78,525.31
139.16038,396.15,524.71
139.17942,393.84,523.26
139.20071,395.48,524.13
139.22080,397.80,527.68
139.24074,404.23,534.57
139.25909,413.20,539.10
139.27926,423.12,545.94
139.29977,434.49,548.57
139.31988,452.52,558.16
139.33976,475.54,567.70
139.36057,498.35,577.52
139.38034,517.68,588.70
139.40037,532.39,595.19
139.41958,537.17,595.23
139.43935,533.05,592.27
139.45975,526.58,586.99
139.47956,519.97,581.52
139.49991,509.86,572.05
139.51980,499.54,568.56
139.53999,488.20,562.81
139.55952,480.23,557.47
139.58090,469.84,552.41
139.60056,460.06,547.65
139.61960,452.14,545.73
139.64029,446.19,541.44
139.65952,437.21,540.91
139.67931,434.16,536.40
139.69916,431.22,534.73
139.72097,425.91,535.30
139.74015,422.28,529.96
139.75958,417.58,532.62
139.78062,415.44,530.31
139.79994,414.01,528.46
139.82054,410.42,526.48
139.84007,410.51,527.09
139.85939,409.21,527.57
139.87927,406.79,526.43
139.90007,407.21,527.96
139.92012,405.43,527.39
139.94123,405.76,528.55
139.96003,404.18,527.36
139.98184,406.27,530.73
140.00165,407.99,528.98
140.02114,406.10,526.75
140.04170,406.62,527.44
140.06128,409.13,525.12
140.08239,410.56,525.46
140.10164,409.49,524.87
140.12188,407.85,524.36
140.14103,409.60,525.46
140.16143,408.91,526.67
140.18231,406.29,525.98
140.20194,408.87,526.16
140.22219,405.97,524.70
140.24131,407.99,524.40
140.26233,406.16,523.08
140.28120,410.69,524.62
140.30218,410.20,525.70
140.32285,411.38,524.56
140.34252,411.77,525.69
140.36208,411.52,525.55
140.38241,411.17,525.38
140.40249,409.98,522.58
140.42265,411.54,523.79
140.44130,408.41,525.72
140.46196,409.07,525.10
140.48150,411.74,525.02
140.50348,411.05,522.71
140.52395,413.25,523.80
140.54376,412.33,525.15
140.56249,409.90,524.56
140.58351,410.54,523.88
140.60388,412.21,527.35
140.62243,413.21,524.72
140.64256,411.93,527.07
140.66220,415.03,529.38
140.68247,412.24,526.59
140.70379,415.91,526.65
140.72218,412.98,525.24
140.74355,415.29,524.17
140.76330,415.33,525.12
140.78288,415.53,525.83
140.80283,414.76,524.48
140.82293,416.95,525.49
140.84242,416.82,523.92
140.86235,413.41,523.13
140.88345,413.94,523.07
140.90350,414.85,524.11
140.92330,416.78,524.66
140.94313,415.84,524.52
140.96301,416.15,523.87
140.98555,415.10,525.29
141.00527,415.84,526.91
141.02507,413.91,527.52
141.04528,416.70,524.96
141.06581,418.12,525.01
141.08516,418.24,524.87
141.10562,418.60,525.79
141.12472,418.30,523.90
141.14556,418.03,524.35
141.16538,416.46,523.88
141.18438,416.82,528.59
141.20407,415.77,527.42
141.22573,417.18,526.06
141.24426,415.37,529.08
141.26691,415.85,527.76
141.28553,415.50,527.03
141.30537,418.23,528.17
141.32597,417.75,530.12
141.34746,415.54,528.46
141.36630,417.59,530.18
141.38678,416.61,526.52
141.40696,413.83,526.67
141.42654,416.45,525.93
141.44732,414.91,530.23
141.46772,417.24,527.35
141.48667,416.25,528.88
141.50722,413.34,532.30
141.52754,415.48,531.37
141.54718,415.19,531.86
141.56783,416.88,529.43
141.58798,414.47,530.87
141.60737,415.07,533.18
141.62717,412.95,529.08
141.64762,414.12,531.41
141.66834,410.29,528.09
141.68713,410.66,531.61
141.70782,409.93,529.60
141.72777,411.09,529.12
141.74818,408.58,528.40
141.76836,408.47,527.78
141.78853,411.83,527.76
141.80851,410.29,528.30
141.82805,409.02,528.83
141.84780,406.30,525.72
141.86892,400.25,525.80
141.88861,399.94,526.00
141.90869,401.50,527.24
141.92711,400.49,527.27
141.94799,402.01,526.51
141.96860,399.06,525.14
141.98817,399.81,528.65
142.00758,402.98,526.27
142.02815,402.39,527.14
142.04839,401.67,525.82
142.06743,403.28,528.91
142.08718,403.77,529.47
142.10883,403.88,526.26
142.12783,403.78,526.51
142.14889,403.04,526.47
142.16734,404.69,525.89
142.18862,402.94,527.59
142.20890,403.55,528.57
142.22920,405.28,526.96
142.25161,403.26,526.86
142.27246,402.06,528.06
142.29194,401.14,525.82
142.31252,397.41,524.06
142.33366,398.53,522.71
142.35208,399.13,525.19
142.37279,395.61,525.79
142.39372,396.45,522.35
142.41296,395.21,524.15
142.43392,395.19,523.77
142.45200,396.01,525.14
142.47400,397.06,524.77
142.49251,395.70,525.71
142.51357,395.60,525.51
142.53312,395.65,523.01
142.55207,396.09,519.70
142.57203,395.83,519.22
142.59305,393.23,519.66
142.61372,394.65,520.00
142.63340,395.50,520.37
142.65359,393.26,520.01
142.67256,393.03,518.30
142.69293,392.71,516.85
142.71283,392.85,516.48
142.73245,390.41,521.46
142.75385,391.78,518.69
142.77289,382.73,517.75
142.79363,366.00,510.48
142.81363,343.98,497.57
142.83375,326.80,489.12
142.85318,308.83,480.06
142.87295,293.46,472.70
142.89288,283.60,463.62
142.91225,281.13,460.76
142.93463,279.98,455.43
142.95405,280.98,454.45
142.97483,287.85,455.91
142.99315,295.25,457.30
143.01491,300.90,463.66
143.03454,310.64,466.98
143.05370,318.56,472.54
143.07302,327.55,478.59
143.09312,334.59,484.17
143.11344,343.18,490.91
143.13403,347.92,493.66
143.15318,353.04,497.84
143.17539,360.13,502.83
143.19690,363.03,506.53
143.21511,370.50,507.89
143.23736,373.63,511.95
143.25773,381.94,512.82
143.27900,385.15,515.70
143.29874,388.00,516.28
143.31854,392.06,521.35
143.33712,394.92,520.09
143.35835,397.47,521.89
143.37866,399.46,523.54
143.39830,403.08,521.99
143.41713,403.65,523.67
143.43834,402.98,521.60
143.45602,403.68,524.81
143.47838,406.29,525.50
143.49826,408.65,526.10
143.51716,406.43,525.72
143.53889,408.22,524.64
143.56078,412.28,529.01
143.58033,409.94,528.95
143.60254,413.97,529.87
143.62340,413.60,528.60
143.64273,413.66,529.64
143.66384,412.02,528.57
143.68472,412.99,527.35
143.70448,412.95,530.40
143.72281,413.13,528.76
143.74319,410.47,528.39
143.76395,411.70,527.63
143.78598,413.77,529.94
143.80522,416.66,534.73
143.82630,427.35,545.17
143.84502,440.08,558.17
143.86537,459.50,574.43
143.88624,484.00,589.85
143.90715,507.42,607.24
143.92855,530.18,615.27
143.94840,541.30,617.31
143.96946,546.17,610.70
143.98856,543.03,607.60
144.00999,535.34,600.05
144.02821,525.28,593.43
144.04995,512.40,585.35
144.06924,503.03,574.40
144.08920,491.49,570.55
144.10982,479.55,562.39
144.12945,467.92,558.98
144.14897,456.79,553.74
144.16920,452.08,547.54
144.18962,442.32,544.25
144.20828,435.95,544.49
144.22954,430.42,542.97
144.24866,428.35,543.98
144.26969,428.71,544.52
144.28895,432.41,548.71
144.30971,432.21,546.37
144.32972,426.66,544.49
144.34752,427.44,543.54
144.36949,422.93,542.48
144.38856,418.85,540.33
144.40984,416.82,538.30
144.42842,415.78,536.75
144.44858,409.60,533.89
144.46952,407.50,532.81
144.48813,406.22,532.26
144.50955,406.71,532.71
144.52804,405.80,531.41
144.54835,402.58,527.85
144.56915,399.71,528.20
144.58824,401.59,530.14
144.60838,398.79,526.40
144.62915,400.91,528.87
144.64772,396.94,527.57
144.66817,395.78,527.28
144.68925,395.60,526.43
144.70971,397.97,526.08
144.72853,395.10,526.19
144.74920,393.55,526.71
144.76950,394.14,527.51
144.78968,393.98,528.56
144.80843,395.27,528.77
144.82928,396.42,530.96
144.84902,396.65,531.68
144.86855,395.61,532.28
144.88875,394.34,531.29
144.90877,396.11,530.95
144.92760,397.28,530.03
144.94856,396.81,531.03
144.96820,392.68,530.36
144.98931,394.37,527.23
145.00898,394.52,527.18
145.02825,397.11,526.51
145.04886,395.91,526.99
145.06842,398.64,526.02
145.08921,396.47,524.20
145.10969,393.04,524.10
145.12874,395.76,523.51
145.14933,395.04,522.05
145.16912,393.57,525.89
145.18960,394.19,523.30
145.20958,394.83,523.42
145.22956,394.37,523.29
145.24977,396.73,522.34
145.27048,394.72,521.42
145.29094,394.09,524.62
145.30994,394.41,522.71
145.33026,394.27,525.81
145.34967,393.52,527.33
145.37089,396.14,527.42
145.38905,395.85,527.41
145.41003,394.47,527.66
145.43173,394.46,528.29
145.45026,397.65,529.12
145.47092,397.85,527.63
145.49106,396.56,529.56
145.51097,397.40,529.68
145.53082,396.09,528.21
145.55117,394.36,525.31
145.57252,395.76,525.18
145.59117,396.05,527.63
145.61024,398.32,528.30
145.63163,396.93,528.12
145.65212,399.65,528.11
145.67365,399.53,525.53
145.69217,398.14,529.29
145.71324,397.79,528.33
145.73249,400.29,528.74
145.75352,402.24,528.63
145.77434,403.34,526.95
145.79596,403.96,527.34
145.81585,405.79,528.61
145.83522,407.42,527.20
145.85544,405.09,525.08
145.87414,409.17,524.65
145.89610,408.14,524.42
145.91666,410.07,522.84
145.93527,412.65,525.54
145.95511,414.26,523.69
145.97628,411.04,523.91
145.99847,410.75,523.72
146.01852,411.69,526.95
146.03884,413.89,526.60
146.05738,415.38,526.66
146.07867,413.58,527.61
146.09846,415.56,525.57
146.12013,415.27,524.71
146.14077,412.64,528.21
146.15915,411.90,529.31
146.17949,413.45,529.08
146.20073,412.50,528.72
146.22010,413.87,528.14
146.24159,410.83,526.73
146.26091,413.40,526.28
146.28233,410.81,525.10
146.30239,409.40,527.00
146.32288,408.33,526.26
146.34334,408.13,523.43
146.36152,406.45,524.61
146.38352,407.44,524.01
146.40397,403.41,523.23
146.42341,405.64,524.36
146.44345,403.19,522.39
146.46480,404.09,524.28
146.48427,403.54,524.15
146.50434,403.68,525.15
146.52415,393.95,522.65
146.54543,382.26,521.03
146.56439,360.38,515.15
146.58531,337.73,511.33
146.60509,316.74,508.37
146.62534,296.31,506.68
146.64341,281.98,500.03
146.66377,272.57,492.21
146.68463,266.66,482.86
146.70560,263.96,474.56
146.72448,265.80,469.53
146.74534,269.33,463.91
146.76681,274.99,460.33
146.78532,282.40,455.84
146.80512,288.36,453.45
146.82605,297.58,454.37
146.84739,308.91,455.82
146.86759,316.59,459.21
146.88731,325.44,463.70
146.90710,334.07,470.93
146.92727,339.18,474.81
146.94690,347.46,480.76
146.96727,354.92,485.08
146.98776,360.15,490.54
147.00724,363.96,494.72
147.02778,368.50,498.82
147.04664,370.08,505.07
147.06624,373.95,505.86
147.08811,378.14,509.21
147.10845,378.49,512.56
147.12803,383.41,513.43
147.14827,382.39,513.32
147.16727,383.30,516.85
147.18782,388.29,516.13
147.20761,388.77,520.04
147.22763,388.60,518.54
147.24827,390.97,520.74
147.26713,392.23,518.76
147.28641,389.30,520.08
147.30695,391.68,520.45
147.32800,390.59,520.01
147.34794,391.85,521.28
147.36747,389.46,524.30
147.38684,391.36,523.98
147.40630,393.09,523.57
147.42769,395.71,526.75
147.44787,405.99,534.20
147.46609,424.26,552.08
147.48774,441.12,567.35
147.50738,460.36,581.40
147.52726,479.67,597.73
147.54786,498.58,604.89
147.56806,516.94,611.73
147.58884,530.94,612.13
147.60874,540.62,612.37
147.62830,543.68,602.79
147.64733,542.06,594.60
147.66878,535.01,584.76
147.68892,523.87,575.90
147.70648,515.42,563.25
147.72613,503.98,557.33
147.74603,491.62,548.72
147.76656,482.17,546.86
147.78698,473.06,541.68
147.80900,462.62,538.65
147.83067,453.44,535.29
147.84948,448.92,532.04
147.87166,442.40,532.44
147.89169,441.43,529.42
147.91273,435.12,527.94
147.93185,430.74,529.32
147.95193,430.94,527.80
147.97273,426.60,527.31
147.99280,423.17,526.86
148.01277,422.70,525.60
148.03142,420.62,522.40
148.05040,418.74,523.55
148.07023,419.68,525.85
148.09281,416.07,522.61
148.11446,417.86,525.26
148.13401,418.13,525.44
148.15377,419.78,526.12
148.17362,420.87,528.14
148.19397,417.92,525.33
148.21336,417.66,528.70
148.23598,418.96,528.44
148.25521,417.42,527.61
148.27304,415.69,526.71
148.29394,418.51,528.30
148.31599,416.21,528.63
148.33551,415.47,527.24
148.35786,413.53,527.32
148.37951,415.35,527.95
148.40067,413.85,527.06
148.42009,407.00,528.80
148.44186,407.62,527.14
148.46100,402.93,528.45
148.48188,403.80,526.81
148.50272,402.88,529.11
148.52290,403.47,528.61
148.54127,401.32,527.60
148.56084,400.54,526.91
148.58040,400.64,524.32
148.60112,401.91,526.85
148.62195,397.65,526.14
148.64111,396.17,527.33
148.66124,395.51,526.91
148.68345,394.80,525.57
148.70365,393.50,525.11
148.72284,396.23,526.22
148.74282,396.95,525.92
148.76231,393.88,525.00
148.78327,395.67,523.54
148.80293,394.29,522.32
148.82349,396.31,522.11
148.84485,394.38,520.71
148.86344,394.58,520.48
148.88522,396.03,511.62
148.90682,394.43,507.61
148.92500,397.25,508.59
148.94594,394.10,504.54
148.96594,396.49,504.69
148.98663,394.24,503.62
149.00619,395.02,506.61
149.02515,398.71,508.28
149.04773,394.84,507.12
149.06629,395.55,510.64
149.08773,396.72,511.76
149.10654,396.07,510.97
149.12796,397.87,513.44
149.14676,397.95,514.98
149.16888,398.17,514.52
149.18813,399.80,513.50
149.20835,403.26,517.75
149.22895,404.10,515.45
149.24825,401.87,518.49
149.26739,404.35,518.83
149.28710,405.17,521.73
149.30842,403.68,518.79
149.32778,404.51,518.92
149.34832,406.27,522.36
149.36772,407.87,521.29
149.38974,406.57,524.04
149.40714,406.60,522.69
149.42899,408.53,521.58
149.44971,407.54,522.01
149.46832,405.52,520.31
149.48862,407.45,523.32
149.50900,408.29,523.62
149.52744,405.87,519.60
149.54820,408.04,522.40
149.56718,405.67,524.14
149.58851,407.80,525.82
149.60875,408.73,519.05
149.62929,407.44,510.51
149.64819,401.98,495.31
149.66984,393.59,482.04
149.68938,385.17,473.76
149.70804,382.46,468.26
149.72865,382.64,469.59
149.74905,381.24,468.83
149.76901,383.62,470.48
149.78846,384.36,475.10
149.80937,389.56,480.69
149.82856,391.31,489.54
149.84714,395.71,494.65
149.86853,395.10,497.22
149.88868,398.82,506.11
149.90845,400.96,507.11
149.92809,402.84,513.83
149.94775,405.44,517.75
149.96809,406.25,521.37
149.98845,409.47,524.02
150.00809,409.49,525.43
150.02942,411.62,525.77
150.04827,408.92,526.72
150.06862,409.10,532.83
150.08842,408.12,534.18
150.10954,408.54,533.54
150.12805,412.45,533.68
150.14829,412.06,537.40
150.16826,411.77,537.33
150.18838,408.16,540.07
150.21038,409.00,540.64
150.22967,412.40,542.78
150.24832,410.95,543.01
150.26995,414.45,551.39
150.28934,413.76,565.27
150.30981,415.82,585.55
150.32823,416.07,606.20
150.35198,421.59,627.02
150.37134,419.80,635.44
150.39197,419.87,626.52
150.41100,419.24,607.99
150.43319,417.41,584.89
150.45308,415.83,561.05
150.47323,415.79,541.39
150.49395,414.68,525.41
150.51421,413.80,510.65
150.53466,413.01,498.19
150.55399,409.80,491.98
150.57351,412.30,483.93
150.59231,411.05,484.46
150.61362,409.83,480.56
150.63321,409.24,480.91
150.65454,410.35,482.00
150.67524,407.93,484.00
150.69534,408.62,486.90
150.71560,411.12,492.48
150.73536,407.43,496.67
150.75660,409.37,499.20
150.77813,408.67,503.54
150.79974,405.66,504.94
150.82055,407.01,508.43
150.83923,408.34,509.59
150.86102,404.01,514.54
150.88195,405.90,516.23
150.90322,407.28,515.94
150.92322,407.64,520.10
150.94499,406.34,522.59
150.96515,403.66,512.97
150.98681,399.64,508.92
151.00619,401.13,508.63
151.02774,398.94,506.01
151.04990,395.42,507.39
151.06928,389.03,507.75
151.08828,392.82,508.32
151.11058,393.32,513.14
151.13146,394.92,514.40
151.15105,398.00,517.61
151.17074,399.18,522.22
151.19185,400.71,524.20
151.21000,406.42,527.49
151.23059,406.10,529.83
151.25276,404.87,529.39
151.27250,407.58,529.28
151.29258,411.26,530.96
151.31201,410.03,529.85
151.33371,412.34,530.16
151.35227,409.89,531.70
151.37461,411.32,530.93
151.39316,411.38,529.83
151.41485,411.43,533.07
151.43391,409.90,533.65
151.45428,407.53,532.90
151.47583,407.43,531.98
151.49444,406.26,533.18
151.51402,406.13,532.55
151.53417,408.36,534.32
151.55519,407.96,532.01
151.57577,407.13,532.91
151.59552,408.65,532.39
151.61567,405.28,534.22
151.63757,408.14,532.54
151.65526,406.25,532.96
151.67589,406.22,532.88
151.69642,403.80,531.05
151.71754,404.85,529.11
151.73590,405.59,527.97
151.75715,405.84,529.00
151.77789,405.87,531.95
151.79777,405.91,528.56
151.81562,407.07,528.08
151.83523,408.84,538.43
151.85655,412.70,548.73
151.87709,414.59,557.91
151.89615,413.93,556.98
151.91716,415.19,557.83
151.93732,413.70,555.98
151.95736,412.30,552.95
151.97819,408.26,551.32
151.99996,408.79,548.94
152.01866,406.66,544.10
152.03702,407.43,544.19
152.05994,404.41,539.03
152.07732,401.73,539.25
152.09960,404.48,534.69
152.11971,403.50,536.11
152.13867,401.35,532.65
152.15953,403.55,533.25
152.17832,399.73,533.82
152.19957,400.00,529.99
152.21963,402.95,532.06
152.23996,402.18,530.85
152.26023,401.91,530.02
152.28223,400.95,528.32
152.30155,399.32,520.26
152.32230,395.04,503.34
152.34152,392.20,485.74
152.36199,387.15,477.64
152.38123,386.05,471.35
152.40134,385.44,472.01
152.42219,386.40,475.77
152.44206,391.61,476.61
152.46384,395.11,482.06
152.48328,393.68,487.31
152.50479,391.59,493.69
152.52545,393.42,495.67
152.54573,397.65,498.96
152.56427,395.80,502.56
152.58572,401.08,514.57
152.60481,407.25,536.40
152.62518,417.77,558.56
152.64474,425.52,568.53
152.66449,425.58,569.19
152.68433,428.92,568.82
152.70607,432.64,564.51
152.72551,430.68,561.56
152.74792,432.93,556.56
152.76756,430.78,553.37
152.78723,429.20,549.29
152.80876,428.05,542.77
152.82865,428.98,541.81
152.84765,423.63,540.28
152.86758,423.03,535.32
152.88762,419.92,538.24
152.90758,418.67,533.90
152.92777,418.35,533.00
152.94892,414.94,535.07
152.96789,414.23,534.47
152.98775,415.45,533.63
153.00767,412.07,528.49
153.02813,410.04,525.95
153.04801,405.38,521.22
153.06797,403.99,521.41
153.08812,402.01,518.47
153.10904,400.36,515.44
153.12964,397.46,515.20
153.14860,394.65,516.32
153.16823,398.33,517.79
153.18994,397.73,518.02
153.20914,397.87,516.89
153.22866,396.04,520.75
153.24939,396.40,519.36
153.27058,397.30,522.59
153.29068,396.81,523.00
153.31111,397.19,520.94
153.33235,398.91,524.86
153.35218,400.83,525.03
153.37224,397.13,527.09
153.39316,400.12,529.00
153.41331,399.22,531.65
153.43290,401.32,532.96
153.45388,400.11,533.19
153.47256,400.24,530.02
153.49341,402.72,531.35
153.51386,401.74,529.90
153.53364,401.63,531.69
153.55408,403.77,528.48
153.57359,399.69,526.38
153.59381,402.84,527.51
153.61311,400.62,528.78
153.63344,401.58,525.89
153.65355,406.09,528.66
153.67452,406.66,526.58
153.69302,407.34,529.45
153.71362,410.91,541.55
153.73323,411.48,548.54
153.75397,412.00,551.79
153.77300,412.34,554.83
153.79434,411.33,554.39
153.81451,412.05,553.45
153.83558,410.32,547.38
153.85515,407.86,545.68
153.87447,409.21,544.95
153.89534,411.27,544.70
153.91669,411.32,544.05
153.93620,412.48,541.34
153.95685,410.81,541.15
153.97524,408.16,536.91
153.99506,405.90,539.81
154.01697,407.82,538.41
154.03580,404.66,537.58
154.05642,402.10,537.40
154.07624,404.20,537.55
154.09670,398.66,533.69
154.11604,395.44,536.14
154.13696,389.58,533.55
154.15606,388.29,530.93
154.17570,391.26,529.82
154.19594,390.00,530.68
154.21599,390.99,531.49
154.23514,390.35,530.95
154.25756,391.65,533.30
154.27613,392.08,533.24
154.29555,391.15,534.96
154.31586,392.27,531.76
154.33758,392.35,534.87
154.35683,394.46,535.34
154.37569,393.76,539.13
154.39655,395.67,542.22
154.41670,395.32,538.62
154.43503,396.27,534.68
154.45508,396.31,532.12
154.47635,406.58,532.52
154.49586,416.76,534.47
154.51675,427.02,534.49
154.53547,439.99,542.04
154.55616,442.01,532.06
154.57769,436.62,530.85
154.59678,439.19,530.94
154.61673,437.45,531.27
154.63596,432.81,530.98
154.65597,435.19,527.09
154.67541,429.61,526.57
154.69662,427.09,525.99
154.71680,426.40,522.81
154.73698,424.43,522.29
154.75619,425.68,522.14
154.77546,417.79,519.02
154.79631,413.63,519.18
154.81620,411.06,515.89
154.83672,407.98,518.59
154.85566,408.44,519.85
154.87675,406.39,523.16
154.89698,404.23,526.47
154.91687,406.80,524.67
154.93622,404.64,528.77
154.95586,403.22,527.30
154.97644,406.39,525.08
154.99694,407.13,526.60
155.01567,405.72,526.56
155.03593,406.02,522.67
155.05647,399.60,524.75
155.07748,401.11,525.34
155.09691,403.34,529.32
155.11643,399.61,528.91
155.13713,403.20,533.04
155.15653,402.60,531.08
155.17607,405.43,535.98
155.19503,402.40,532.99
155.21697,402.18,536.71
155.23521,402.78,532.57
155.25530,403.01,533.41
155.27590,401.49,534.22
155.29600,400.81,537.19
155.31729,400.64,535.74
155.33559,395.76,536.29
155.35698,396.07,534.87
155.37640,397.84,534.39
155.39619,400.36,533.85
155.41664,398.84,531.84
155.43689,400.53,528.10
155.45571,402.04,527.63
155.47574,402.15,527.39
155.49685,402.68,523.69
155.51548,401.21,525.19
155.53585,399.41,524.12
155.55662,399.21,526.65
155.57661,398.59,527.01
155.59511,398.76,524.42
155.61654,397.92,526.60
155.63635,401.59,525.28
155.65787,400.82,524.61
155.67703,401.65,521.55
155.69614,400.60,521.65
155.71718,403.40,520.32
155.73643,403.49,521.85
155.75772,403.29,524.42
155.77634,401.97,523.63
155.79603,400.76,524.20
155.81626,402.42,521.93
155.83854,399.97,522.62
155.85757,401.49,525.88
155.87719,403.78,524.36
155.89603,402.61,525.28
155.91871,406.73,527.37
155.93786,404.12,523.41
155.95814,405.25,523.71
155.97830,406.90,523.48
155.99821,408.35,525.56
156.01830,406.94,522.57
