Program Time [s],data 0,data 1
86.27220,423.55,543.75
86.29211,423.31,544.96
86.31423,422.56,543.64
86.33367,418.48,544.28
86.35351,416.93,541.61
86.37373,417.10,538.21
86.39363,417.75,536.67
86.41403,421.61,537.90
86.43463,423.36,533.59
86.45480,426.96,535.54
86.47470,427.63,536.87
86.49449,427.25,535.77
86.51434,430.42,539.77
86.53381,427.89,537.47
86.55475,424.66,538.96
86.57392,425.75,542.40
86.59337,424.83,542.79
86.61298,427.61,544.03
86.63333,427.02,542.71
86.65456,426.63,543.47
86.67489,426.10,546.75
86.69296,424.91,557.37
86.71482,425.97,574.99
86.73476,426.04,605.17
86.75359,427.38,640.63
86.77362,430.09,659.70
86.79313,426.22,658.46
86.81401,426.99,642.01
86.83441,422.32,620.82
86.85394,422.76,591.96
86.87323,420.87,571.51
86.89441,415.42,553.13
86.91334,411.53,535.47
86.93384,411.02,518.58
86.95333,410.12,512.15
86.97495,410.59,502.09
86.99424,404.05,495.67
87.01323,404.75,493.34
87.03297,405.68,492.61
87.05435,405.56,490.27
87.07505,409.69,491.97
87.09564,410.67,494.81
87.11562,410.98,495.50
87.13664,413.65,495.84
87.15569,415.94,500.46
87.17664,419.07,505.04
87.19607,422.59,507.96
87.21637,425.79,513.95
87.23501,424.30,517.26
87.25482,424.80,519.87
87.27565,426.95,526.17
87.29553,428.41,525.71
87.31533,426.12,528.80
87.33537,426.29,531.69
87.35602,430.15,534.46
87.37571,429.84,534.68
87.39574,427.44,536.57
87.41608,429.33,542.06
87.43647,430.65,540.98
87.45496,429.34,543.44
87.47602,430.36,545.69
87.49638,432.81,542.95
87.51643,432.73,546.69
87.53554,428.84,546.16
87.55668,433.02,546.65
87.57569,435.81,546.87
87.59569,435.61,548.96
87.61654,433.99,550.00
87.63644,435.15,551.23
87.65496,426.87,551.57
87.67514,416.51,549.35
87.69632,410.77,547.31
87.71595,408.86,547.02
87.73675,408.28,545.19
87.75511,412.42,544.17
87.77572,412.33,542.66
87.79663,414.82,539.88
87.81587,415.81,539.34
87.83602,417.50,540.86
87.85573,419.10,540.86
87.87496,420.47,540.38
87.89680,419.92,538.92
87.91668,421.04,538.79
87.93689,421.29,537.77
87.95620,420.92,535.63
87.97689,424.43,538.00
87.99530,423.03,538.03
88.01493,423.72,539.42
88.03632,421.94,540.69
88.05546,422.20,538.97
88.07638,420.26,541.29
88.09612,421.59,541.03
88.11576,421.86,550.12
88.13583,422.77,556.66
88.15651,427.14,558.63
88.17633,425.76,560.88
88.19621,429.18,563.92
88.21628,428.21,563.05
88.23522,433.58,557.27
88.25633,431.52,558.26
88.27678,432.44,553.21
88.29609,430.94,554.99
88.31635,435.39,554.76
88.33628,432.85,553.28
88.35667,433.56,549.07
88.37497,433.01,549.98
88.39636,430.87,545.99
88.41566,431.03,547.35
88.43677,434.38,543.74
88.45514,435.71,542.38
88.47530,436.70,539.56
88.49513,436.82,538.89
88.51548,437.59,538.78
88.53513,437.74,533.21
88.55637,433.60,532.17
88.57631,435.97,532.01
88.59644,435.36,528.61
88.61663,434.48,528.28
88.63674,433.56,528.04
88.65600,433.38,529.31
88.67532,431.81,532.31
88.69582,433.95,533.34
88.71474,434.98,537.13
88.73609,433.86,538.68
88.75534,433.75,540.92
88.77598,434.07,538.39
88.79686,435.02,538.90
88.81485,433.64,540.81
88.83544,435.28,540.37
88.85561,436.24,542.88
88.87554,438.30,539.87
88.89680,436.77,542.53
88.91622,438.68,542.98
88.93524,437.31,544.82
88.95663,436.83,548.20
88.97667,439.10,548.37
88.99660,438.00,547.77
89.01599,439.02,547.69
89.03643,442.15,546.19
89.05551,450.09,547.92
89.07532,455.61,549.45
89.09587,460.09,550.81
89.11509,465.08,550.45
89.13510,466.17,548.20
89.15628,462.89,544.83
89.17604,463.05,543.65
89.19685,459.94,541.95
89.21578,458.91,543.14
89.23518,458.38,539.54
89.25561,455.18,539.76
89.27634,450.47,538.47
89.29636,451.78,539.92
89.31568,449.20,537.88
89.33623,445.24,541.84
89.35683,442.40,541.70
89.37512,444.69,540.15
89.39506,443.46,542.68
89.41592,440.38,540.44
89.43558,441.89,542.89
89.45671,443.16,541.77
89.47678,442.78,541.06
89.49673,443.18,543.29
89.51637,441.18,540.11
89.53635,443.67,539.80
89.55664,441.83,541.85
89.57652,440.45,540.34
89.59497,439.56,541.76
89.61605,442.52,542.71
89.63519,441.71,541.78
89.65586,440.07,543.83
89.67600,444.36,542.84
89.69478,443.62,544.05
89.71605,444.38,541.55
89.73556,441.69,541.39
89.75655,441.30,539.45
89.77610,438.94,538.17
89.79604,440.16,537.85
89.81504,440.15,539.45
89.83633,439.13,538.24
89.85513,440.93,537.34
89.87565,442.35,537.38
89.89537,440.44,536.86
89.91614,443.66,536.96
89.93537,441.64,538.18
89.95504,443.59,539.36
89.97651,445.23,538.26
89.99661,441.06,541.35
90.01607,442.93,540.05
90.03564,433.75,539.88
90.05524,418.86,536.45
90.07590,396.47,533.54
90.09583,368.81,525.08
90.11661,347.81,518.56
90.13515,325.47,507.49
90.15600,312.65,499.18
90.17547,305.70,490.96
90.19633,301.46,487.84
90.21524,300.41,484.73
90.23525,302.89,485.97
90.25527,310.67,486.33
90.27502,317.45,489.60
90.29633,325.77,493.34
90.31570,334.90,495.63
90.33547,345.79,498.60
90.35584,353.87,502.91
90.37621,362.59,505.62
90.39632,372.17,509.34
90.41649,381.57,512.74
90.43591,389.09,518.46
90.45508,396.44,521.14
90.47486,401.77,522.44
90.49528,406.39,527.12
90.51498,413.64,528.11
90.53554,417.36,528.68
90.55590,419.84,531.70
90.57545,421.91,533.06
90.59557,428.19,535.31
90.61482,427.79,536.34
90.63621,429.20,541.18
90.65686,432.14,540.45
90.67517,432.91,541.93
90.69627,436.18,541.89
90.71544,436.98,542.35
90.73524,440.46,539.83
90.75536,438.68,539.65
90.77501,440.85,542.75
90.79619,441.82,542.26
90.81550,445.00,542.23
90.83603,445.13,541.43
90.85555,448.05,545.68
90.87676,461.34,547.64
90.89637,484.22,557.22
90.91678,512.64,569.48
90.93544,548.09,578.90
90.95646,578.48,586.95
90.97592,605.79,592.89
90.99623,621.10,590.84
91.01518,625.40,590.98
91.03666,618.64,590.41
91.05635,611.59,585.73
91.07581,598.83,582.66
91.09622,584.12,574.33
91.11638,568.97,571.22
91.13508,552.42,565.99
91.15656,538.43,561.48
91.17564,526.43,559.52
91.19525,515.69,555.03
91.21658,503.49,555.21
91.23568,494.64,554.69
91.25678,487.58,551.70
91.27569,481.30,550.22
91.29678,477.49,547.96
91.31686,470.84,549.24
91.33617,468.20,550.34
91.35631,467.74,550.17
91.37687,464.57,547.57
91.39621,458.78,545.50
91.41717,457.93,546.22
91.43678,457.61,545.16
91.45763,454.78,543.46
91.47712,453.65,543.36
91.49693,452.59,545.63
91.51703,451.92,542.20
91.53831,448.08,541.86
91.55728,449.08,546.49
91.57726,445.65,545.92
91.59866,445.02,546.68
91.61847,447.53,547.26
91.63842,444.88,547.16
91.65917,445.64,545.32
91.67837,446.70,545.04
91.69833,445.67,545.91
91.71875,445.81,543.41
91.73774,442.47,545.38
91.75875,442.28,543.91
91.77914,444.07,545.50
91.79909,444.43,544.00
91.81785,442.73,543.21
91.83943,443.72,546.68
91.85846,440.77,543.34
91.87831,444.71,545.50
91.89893,442.71,545.66
91.91966,443.08,545.82
91.93846,444.65,542.14
91.95797,443.91,545.84
91.97975,441.64,541.29
91.99862,441.76,543.50
92.01762,440.55,540.46
92.03827,441.03,542.52
92.05945,440.77,543.05
92.07803,442.17,541.48
92.09969,445.17,542.78
92.11966,441.05,544.41
92.13930,441.33,542.55
92.15894,439.26,542.41
92.17891,439.97,545.04
92.19975,437.65,545.42
92.21926,440.41,544.01
92.23940,439.54,544.14
92.25994,440.27,543.07
92.28076,436.62,545.57
92.30038,437.78,544.77
92.31911,439.12,546.18
92.33890,442.74,547.88
92.35920,442.37,546.91
92.38013,441.09,544.95
92.39898,438.23,545.19
92.42020,435.95,546.59
92.44080,435.50,545.09
92.46070,434.75,544.16
92.48165,438.38,544.61
92.50065,437.05,545.14
92.52083,437.24,541.98
92.54100,433.69,541.91
92.55999,433.09,541.10
92.58169,434.58,544.33
92.60132,431.80,543.41
92.62022,430.84,544.75
92.64100,433.49,543.05
92.66099,430.08,545.72
92.68026,430.53,546.03
92.70050,431.26,545.79
92.71988,429.57,545.19
92.74065,428.60,542.93
92.76063,431.27,542.96
92.78152,427.35,542.21
92.80141,430.23,544.18
92.82113,427.70,544.89
92.84137,431.22,543.29
92.86085,429.12,543.44
92.88026,430.02,544.48
92.90047,430.48,543.62
92.92165,429.34,546.15
92.93983,429.10,544.21
92.95997,427.33,543.20
92.98054,426.81,545.86
93.00022,428.17,541.72
93.01988,427.36,542.81
93.04074,430.42,542.70
93.06014,430.63,542.37
93.08066,429.96,539.41
93.10085,431.86,539.18
93.12079,432.96,540.02
93.14169,432.99,539.90
93.16135,434.84,539.94
93.18069,432.91,541.15
93.20069,432.07,540.91
93.22189,428.81,542.94
93.24080,429.30,542.43
93.26163,430.04,542.43
93.28036,430.51,541.26
93.30135,429.92,540.04
93.32050,429.34,540.98
93.34116,427.44,544.24
93.35985,430.97,542.71
93.38172,430.90,541.08
93.40035,428.17,541.77
93.42098,429.32,541.84
93.44133,427.23,542.97
93.46098,426.37,540.09
93.48009,428.08,540.87
93.49972,428.64,543.51
93.52011,426.76,542.70
93.54090,426.91,543.53
93.56098,427.27,541.92
93.58057,425.76,545.78
93.60068,425.70,545.05
93.62100,428.39,545.75
93.64050,426.73,546.00
93.66123,424.49,544.34
93.68071,426.21,544.21
93.70141,425.75,541.29
93.71999,426.07,541.71
93.74151,424.93,540.55
93.76034,425.93,537.56
93.78096,425.22,537.84
93.80014,423.93,537.29
93.82098,426.52,535.95
93.83987,423.04,534.27
93.86017,426.48,534.84
93.88076,414.62,535.17
93.90086,398.91,531.70
93.92154,379.04,528.69
93.94160,356.26,523.71
93.96009,336.67,520.83
93.97998,321.30,515.73
94.00025,306.84,513.00
94.02153,298.50,507.89
94.03969,291.75,502.35
94.06109,292.07,498.90
94.08133,294.57,496.89
94.10062,297.48,495.18
94.12126,304.40,498.04
94.14051,313.42,498.48
94.16087,322.93,500.92
94.18044,332.53,502.98
94.20060,340.57,504.35
94.22075,349.92,509.56
94.24119,357.50,513.36
94.26136,365.77,514.87
94.28277,372.07,518.72
94.30098,378.40,518.66
94.32128,386.21,523.74
94.34273,390.81,525.80
94.36255,394.64,527.30
94.38280,399.07,531.65
94.40316,402.24,532.58
94.42342,405.46,530.88
94.44243,406.85,533.61
94.46237,411.08,535.53
94.48347,410.72,535.15
94.50321,412.56,539.47
94.52174,413.50,540.37
94.54315,418.19,540.50
94.56479,417.41,541.82
94.58288,420.72,542.47
94.60399,421.26,542.80
94.62427,423.65,543.36
94.64356,424.17,545.11
94.66454,423.91,544.46
94.68460,425.40,547.74
94.70370,436.41,548.46
94.72437,448.96,551.46
94.74448,467.70,557.49
94.76434,489.96,565.70
94.78451,516.76,573.65
94.80359,539.90,581.04
94.82403,562.21,584.98
94.84474,575.44,589.23
94.86313,577.62,592.79
94.88359,575.53,586.68
94.90442,564.82,585.14
94.92415,556.67,577.58
94.94364,545.05,574.16
94.96349,532.41,572.07
94.98299,521.27,568.58
95.00317,510.99,566.21
95.02413,504.24,561.26
95.04407,494.61,556.04
95.06288,482.85,552.43
95.08441,475.85,551.35
95.10308,471.14,546.86
95.12376,465.99,545.86
95.14315,459.26,545.78
95.16399,457.48,541.59
95.18375,449.56,542.75
95.20414,447.38,540.91
95.22291,444.09,540.38
95.24281,442.49,543.36
95.26392,438.97,542.23
95.28522,437.47,542.86
95.30437,438.56,541.66
95.32450,435.96,541.58
95.34534,435.89,540.90
95.36479,433.44,542.49
95.38418,435.79,542.34
95.40433,434.98,545.35
95.42515,430.76,541.85
95.44477,432.48,544.17
95.46390,431.43,543.74
95.48451,430.46,543.09
95.50521,429.98,543.46
95.52567,430.42,542.22
95.54508,430.72,544.22
95.56441,429.74,542.90
95.58502,434.11,542.36
95.60450,431.79,543.62
95.62550,430.71,543.23
95.64463,432.01,542.36
95.66522,433.96,542.95
95.68528,435.57,546.34
95.70529,437.00,546.66
95.72461,435.99,543.51
95.74537,433.49,541.38
95.76493,431.81,544.39
95.78567,434.21,543.17
95.80439,429.62,544.50
95.82466,432.17,541.80
95.84386,430.13,541.84
95.86364,431.90,543.46
95.88567,434.84,543.11
95.90389,435.26,542.98
95.92434,433.55,543.46
95.94532,436.26,546.03
95.96514,435.90,544.59
95.98360,435.70,545.77
96.00439,434.28,546.07
96.02444,436.41,545.51
96.04381,438.19,544.71
96.06396,435.57,544.79
96.08400,434.91,542.63
96.10566,434.62,541.40
96.12486,432.84,544.12
96.14432,432.94,544.01
96.16510,430.65,540.30
96.18569,432.97,540.33
96.20427,430.45,541.35
96.22517,431.94,540.68
96.24478,430.76,541.29
96.26440,431.07,544.33
96.28372,430.99,541.76
96.30405,431.33,540.23
96.32548,431.33,540.58
96.34385,431.66,540.54
96.36394,429.62,541.37
96.38575,434.06,539.86
96.40518,431.22,538.37
96.42567,433.39,541.00
96.44426,436.90,540.96
96.46464,435.05,540.05
96.48510,434.59,544.29
96.50557,436.65,541.83
96.52524,437.28,543.48
96.54398,435.52,543.38
96.56386,435.76,542.68
96.58415,436.01,540.33
96.60531,437.11,541.39
96.62506,437.79,543.89
96.64511,435.50,541.43
96.66538,433.80,543.34
96.68474,433.93,541.28
96.70541,434.89,542.47
96.72392,435.67,543.61
96.74542,437.60,544.34
96.76364,437.53,545.93
96.78372,436.04,543.55
96.80393,435.20,543.24
96.82386,433.32,543.08
96.84511,435.96,542.98
96.86486,437.13,544.68
96.88542,437.51,542.55
96.90393,438.40,542.06
96.92510,435.82,542.58
96.94437,440.00,540.39
96.96459,437.79,540.28
96.98505,440.12,543.10
97.00559,435.89,542.40
97.02471,435.78,540.63
97.04569,436.15,542.70
97.06408,437.07,541.74
97.08403,434.41,542.36
97.10496,437.04,539.77
97.12464,438.23,541.28
97.14382,439.32,541.78
97.16477,438.67,544.69
97.18471,438.28,542.02
97.20391,439.88,540.14
97.22417,441.56,543.69
97.24501,439.56,542.92
97.26435,441.59,542.97
97.28526,443.10,541.65
97.30514,442.53,540.44
97.32368,441.50,544.31
97.34559,443.78,541.71
97.36383,442.08,542.82
97.38538,440.69,542.48
97.40403,438.76,542.62
97.42404,441.26,541.37
97.44422,441.20,542.14
97.46509,439.68,544.51
97.48465,442.46,543.59
97.50440,442.88,542.48
97.52517,441.40,541.91
97.54559,444.30,544.09
97.56513,442.63,543.76
97.58478,441.62,541.09
97.60466,441.32,541.74
97.62478,442.03,540.95
97.64519,443.79,541.96
97.66615,444.70,541.06
97.68650,446.21,541.53
97.70598,444.09,542.51
97.72661,447.09,541.72
97.74644,444.25,544.91
97.76615,445.56,546.15
97.78669,445.13,546.11
97.80503,444.87,544.54
97.82510,446.05,545.32
97.84526,443.92,545.42
97.86617,445.77,541.86
97.88583,446.00,544.38
97.90677,444.33,543.45
97.92661,445.65,545.69
97.94628,443.12,542.15
97.96734,445.48,544.42
97.98705,442.23,543.34
98.00698,446.31,544.21
98.02744,447.02,545.17
98.04629,444.95,542.45
98.06601,445.31,544.74
98.08772,432.33,544.11
98.10687,410.83,548.20
98.12778,390.36,547.29
98.14608,366.36,546.64
98.16629,343.71,542.15
98.18644,328.15,536.51
98.20661,318.79,522.89
98.22659,313.61,513.53
98.24624,310.75,508.82
98.26755,312.86,501.76
98.28681,321.26,499.10
98.30638,324.54,499.71
98.32756,335.31,497.01
98.34654,342.52,497.61
98.36778,353.97,500.14
98.38600,361.48,502.09
98.40634,373.03,507.16
98.42772,380.46,509.32
98.44700,389.34,511.63
98.46573,397.01,515.09
98.48583,400.62,519.91
98.50742,405.47,522.97
98.52596,412.30,524.60
98.54645,416.21,527.29
98.56635,422.45,530.86
98.58582,425.35,530.71
98.60636,430.40,532.66
98.62764,433.10,535.86
98.64735,434.10,535.04
98.66744,435.77,536.68
98.68596,438.06,538.43
98.70613,437.48,537.13
98.72704,437.48,539.01
98.74647,442.40,540.56
98.76672,443.90,541.43
98.78700,443.38,540.62
98.80566,444.76,540.71
98.82699,445.76,544.48
98.84739,450.60,544.23
98.86581,464.29,551.41
98.88714,485.11,557.68
98.90703,511.88,567.75
98.92721,535.76,572.82
98.94715,563.19,576.86
98.96715,584.32,581.38
98.98633,596.73,587.57
99.00614,600.32,585.88
99.02761,598.77,586.27
99.04683,591.42,582.87
99.06689,578.22,577.28
99.08691,567.40,574.78
99.10583,556.72,567.54
99.12734,542.61,563.30
99.14763,530.92,562.57
99.16650,522.11,557.64
99.18636,512.04,556.73
99.20601,502.96,553.87
99.22722,497.30,552.27
99.24731,488.20,552.24
99.26622,481.20,549.65
99.28702,475.33,550.62
99.30636,471.54,547.40
99.32594,470.00,549.42
99.34662,465.94,549.57
99.36746,462.23,550.03
99.38577,459.76,549.33
99.40733,456.42,547.83
99.42730,452.87,549.36
99.44651,451.12,547.44
99.46550,452.96,547.97
99.48698,448.24,549.15
99.50671,449.63,548.90
99.52774,449.77,547.66
99.54752,449.42,546.40
99.56653,448.05,547.61
99.58735,446.24,548.97
99.60654,448.77,546.54
99.62634,443.57,547.58
99.64697,445.72,547.59
99.66687,445.11,548.90
99.68588,445.08,549.81
99.70640,446.52,548.05
99.72750,443.50,545.96
99.74619,446.08,545.92
99.76618,445.88,548.41
99.78765,445.11,544.69
99.80620,444.26,545.89
99.82626,445.17,547.37
99.84720,447.28,547.49
99.86701,446.14,545.86
99.88623,444.60,546.48
99.90767,447.25,546.94
99.92726,443.89,545.94
99.94720,446.49,547.11
99.96724,443.22,545.69
99.98750,444.98,546.30
100.00740,443.53,545.99
100.02797,443.51,544.90
100.04665,446.14,544.51
100.06685,446.10,545.16
100.08636,444.11,545.06
100.10715,442.86,544.69
100.12768,442.56,545.56
100.14627,443.49,544.51
100.16574,441.43,546.73
100.18780,441.32,543.71
100.20607,441.60,543.51
100.22610,442.02,543.08
100.24711,440.75,544.17
100.26755,442.93,543.77
100.28638,441.89,545.92
100.30696,443.22,542.52
100.32742,442.96,543.06
100.34746,442.26,543.87
100.36675,443.02,542.28
100.38737,444.57,541.54
100.40699,443.03,539.88
100.42724,444.03,540.18
100.44650,442.57,541.44
100.46647,444.62,543.36
100.48749,442.62,542.20
100.50760,443.44,542.61
100.52625,440.26,542.90
100.54774,440.53,540.95
100.56666,441.00,543.25
100.58779,439.38,543.31
100.60854,436.54,543.77
100.62613,436.67,539.92
100.64813,433.98,540.96
100.66828,433.74,540.53
100.68752,435.46,542.37
100.70705,435.20,542.31
100.72784,432.72,539.33
100.74806,433.94,541.88
100.76710,434.56,539.22
100.78738,432.76,540.24
100.80830,433.08,539.03
100.82770,431.84,540.01
100.84889,430.98,539.62
100.86882,431.69,542.01
100.88734,430.61,539.55
100.90736,429.95,541.17
100.92850,430.57,539.47
100.94843,433.39,541.93
100.96742,434.35,539.69
100.98813,430.82,541.66
101.00708,433.30,540.48
101.02637,433.66,543.92
101.04840,433.62,540.91
101.06763,431.83,543.35
101.08751,433.35,540.61
101.10804,431.36,541.07
101.12782,434.00,542.63
101.14844,434.47,541.51
101.16809,433.75,544.55
101.18819,433.55,542.92
101.20796,434.21,542.00
101.22878,433.28,543.51
101.24815,434.46,542.55
101.26849,432.81,544.11
101.28757,431.98,541.60
101.30887,433.05,542.30
101.32835,431.94,543.87
101.34861,431.74,540.90
101.36757,431.18,539.66
101.38891,433.56,540.72
101.40767,433.99,539.74
101.42799,432.24,539.91
101.44669,432.03,540.76
101.46738,432.43,540.39
101.48800,435.85,540.10
101.50751,432.50,540.35
101.52737,432.92,539.23
101.54882,434.44,538.97
101.56833,434.32,541.44
101.58710,434.02,539.30
101.60785,433.61,539.30
101.62836,436.35,542.70
101.64814,436.34,543.78
101.66714,436.19,541.43
101.68748,434.57,540.88
101.70774,432.83,542.91
101.72845,433.49,541.98
101.74625,431.76,544.24
101.76882,433.88,542.65
101.78753,432.84,541.22
101.80822,431.23,542.32
101.82729,433.06,541.40
101.84897,432.36,541.02
101.86621,433.75,543.53
101.88823,433.86,541.40
101.90865,429.11,543.02
101.92833,430.34,543.15
101.94762,431.21,540.84
101.96858,428.39,543.20
101.98992,428.67,542.67
102.00969,426.72,544.46
102.02978,427.19,540.96
102.04836,428.30,542.48
102.06889,428.98,542.63
102.08848,426.99,542.66
102.10930,426.07,543.60
102.12908,429.48,543.30
102.14800,427.80,542.41
102.16934,425.12,541.79
102.18975,425.48,542.00
102.20977,425.83,542.89
102.23020,424.25,541.57
102.25077,424.30,542.26
102.27012,424.55,542.79
102.29037,425.29,541.17
102.31100,426.66,542.29
102.33032,422.87,541.39
102.35174,426.87,542.85
102.37068,424.25,543.11
102.39011,425.47,541.53
102.41096,424.35,540.23
102.43068,426.89,542.89
102.45030,424.27,540.20
102.47185,423.29,542.75
102.49051,426.54,542.99
102.51023,425.94,543.04
102.53002,425.78,542.22
102.54945,422.85,543.26
102.57142,425.71,543.34
102.59031,422.32,544.03
102.61044,424.00,542.87
102.63063,426.29,543.79
102.65002,425.02,544.60
102.67013,422.45,543.36
102.69122,425.23,541.70
102.71019,424.06,541.71
102.73085,423.04,542.10
102.75119,424.02,542.81
102.77130,424.00,543.62
102.79084,424.36,543.85
102.81039,421.65,543.97
102.83115,420.36,544.25
102.85045,420.83,542.01
102.87128,419.68,542.12
102.89077,421.89,541.24
102.91079,422.09,543.70
102.93056,424.33,545.30
102.94933,422.30,541.92
102.97094,422.53,544.27
102.99127,422.85,545.84
103.01078,425.46,543.71
103.03104,424.40,543.43
103.05050,424.43,542.52
103.07009,422.76,543.00
103.09198,421.65,539.47
103.11044,423.19,539.54
103.13081,420.74,541.79
103.15088,421.40,541.56
103.17003,422.37,540.03
103.19157,416.27,540.58
103.21051,401.20,548.00
103.23075,381.43,551.35
103.24988,361.62,554.99
103.27094,340.45,551.48
103.29052,323.01,544.30
103.31195,310.48,536.01
103.33025,304.70,526.87
103.35072,300.29,516.24
103.37188,301.70,510.99
103.39036,300.66,507.73
103.41177,308.62,506.29
103.43002,315.70,503.30
103.45137,321.18,505.39
103.47183,331.19,506.30
103.49288,337.52,508.85
103.51171,346.43,508.71
103.53087,354.86,513.03
103.55231,360.56,514.84
103.57146,368.09,518.48
103.59143,376.84,519.97
103.61090,382.58,521.73
103.63165,390.07,524.55
103.65115,395.06,528.90
103.67250,399.86,530.10
103.69238,402.80,532.07
103.71192,404.55,530.91
103.73025,407.76,533.75
103.75287,412.00,536.39
103.77265,414.06,536.23
103.79187,414.57,534.14
103.81073,414.69,535.35
103.83061,417.23,536.37
103.85239,417.89,535.96
103.87294,420.71,535.85
103.89028,421.24,540.09
103.91253,422.01,536.87
103.93143,422.24,540.50
103.95195,423.01,541.18
103.97099,427.84,539.02
103.99198,429.45,537.96
104.01032,430.24,536.74
104.03123,430.37,535.04
104.05263,430.23,538.55
104.07109,431.81,538.53
104.09128,435.56,538.70
104.11162,450.89,547.47
104.13171,473.14,555.61
104.15166,502.44,569.07
104.17156,533.64,579.49
104.19463,559.03,586.02
104.21051,571.67,589.49
104.23190,575.54,588.11
104.25248,572.68,585.25
104.27177,566.93,584.91
104.29165,559.08,580.98
104.31133,545.23,575.88
104.33079,532.70,574.91
104.35067,524.14,570.49
104.37118,513.56,568.62
104.39128,501.91,565.26
104.41073,492.41,560.16
104.43143,483.39,559.81
104.45120,476.17,555.59
104.47109,466.50,555.14
104.49228,461.08,552.98
104.51164,456.91,552.91
104.53140,454.32,549.39
104.55132,452.82,549.99
104.57221,448.34,548.65
104.59044,444.28,547.80
104.61234,443.20,550.17
104.63143,440.83,548.10
104.65137,438.81,546.34
104.67214,436.48,546.51
104.69180,431.32,546.38
104.71228,432.43,545.72
104.73070,428.72,543.06
104.75255,429.26,545.04
104.77118,429.41,545.09
104.79161,429.98,543.87
104.81222,427.15,542.55
104.83031,428.99,541.09
104.85239,427.90,542.49
104.87005,428.86,541.30
104.89196,428.97,539.76
104.91208,427.86,540.04
104.93162,428.27,540.32
104.95109,425.65,538.54
104.97169,426.40,540.22
104.99083,426.87,541.62
105.01019,427.61,540.74
105.03191,428.66,543.65
105.05101,427.10,541.33
105.07065,428.06,543.00
105.09058,424.69,544.39
105.11187,427.48,542.79
105.13186,426.92,541.52
105.15181,427.06,544.96
105.17000,428.15,543.40
105.19132,429.07,544.11
105.21276,429.99,545.01
105.23186,430.24,543.53
105.25022,430.12,544.32
105.27178,430.61,547.16
105.29172,430.38,542.89
105.31212,429.64,546.30
105.33117,430.56,543.59
105.35084,430.72,545.90
105.37073,428.95,547.28
105.39050,428.64,543.86
105.41147,431.26,544.87
105.43059,429.56,544.74
105.45169,427.19,546.23
105.47093,428.77,544.11
105.49105,426.85,544.79
105.51186,429.12,544.72
105.53160,430.99,540.76
105.55259,427.75,544.38
105.57089,430.76,544.50
105.59092,429.22,545.05
105.61187,431.28,544.53
105.63030,431.60,543.87
105.65039,430.86,544.78
105.67257,427.93,544.70
105.69158,430.72,544.67
105.71108,429.46,544.37
105.73132,431.26,543.49
105.75257,431.14,545.01
105.77240,430.55,545.55
105.79292,434.19,542.27
105.81394,435.84,541.76
105.83324,434.18,544.32
105.85226,434.85,541.74
105.87444,435.50,544.73
105.89489,436.76,541.86
105.91359,436.57,543.20
105.93283,439.90,540.20
105.95213,438.26,540.20
105.97386,438.03,540.89
105.99211,439.46,542.41
106.01408,439.76,542.09
106.03319,439.75,542.31
106.05351,440.59,542.42
106.07383,439.69,539.21
106.09314,440.12,543.49
106.11215,442.94,543.00
106.13481,442.55,543.95
106.15279,442.30,543.48
106.17270,440.55,540.78
106.19382,440.27,539.22
106.21246,442.03,541.87
106.23395,441.89,538.10
106.25383,439.72,535.98
106.27232,440.74,536.15
106.29327,440.94,537.25
106.31352,439.74,538.82
106.33200,440.57,538.05
106.35238,443.27,538.91
106.37215,440.88,541.05
106.39385,439.85,539.91
106.41380,438.51,539.01
106.43451,440.10,540.18
106.45318,439.30,539.85
106.47262,441.12,540.51
106.49440,442.32,540.92
106.51340,441.21,541.75
106.53242,441.41,542.78
106.55445,441.29,546.71
106.57294,441.35,548.54
106.59250,440.68,547.33
106.61426,440.72,551.15
106.63314,439.31,548.19
106.65396,444.03,549.08
106.67482,441.68,550.64
106.69318,440.88,549.31
106.71378,442.88,546.20
106.73428,440.59,544.64
106.75448,442.08,547.05
106.77446,441.19,545.04
106.79294,442.85,543.13
106.81383,442.46,540.22
106.83318,440.95,539.64
106.85364,440.17,540.46
106.87272,442.95,539.17
106.89281,442.72,538.55
106.91474,442.49,539.30
106.93255,443.44,537.65
106.95458,443.30,537.59
106.97232,442.34,536.95
106.99349,441.26,536.77
107.01249,441.58,539.36
107.03332,442.85,537.37
107.05328,442.27,537.01
107.07482,441.85,541.26
107.09441,442.73,538.38
107.11440,440.23,538.98
107.13243,442.40,539.57
107.15287,442.65,539.99
107.17396,443.07,539.05
107.19311,441.41,538.01
107.21240,441.09,537.31
107.23382,442.19,540.37
107.25453,442.34,541.78
107.27314,439.58,542.55
107.29205,440.59,540.92
107.31307,442.82,542.45
107.33298,435.62,540.71
107.35432,423.48,541.97
107.37236,401.86,546.59
107.39343,378.60,543.37
107.41291,358.31,540.47
107.43252,339.57,536.31
107.45251,328.95,523.57
107.47344,318.70,517.38
107.49396,315.83,507.62
107.51466,312.32,500.27
107.53349,317.17,496.12
107.55369,323.19,495.36
107.57348,327.87,494.38
107.59371,338.84,492.86
107.61200,346.34,497.02
107.63387,354.83,499.18
107.65466,365.68,503.10
107.67370,375.77,504.58
107.69397,383.35,511.46
107.71370,387.54,513.87
107.73247,395.99,514.19
107.75249,402.76,518.68
107.77370,410.00,521.16
107.79327,414.20,525.13
107.81350,418.74,524.92
107.83316,420.98,529.94
107.85496,423.00,528.43
107.87479,426.21,533.79
107.89436,428.18,534.12
107.91347,430.70,537.40
107.93650,431.95,537.36
107.95686,433.46,537.47
107.97469,433.07,539.38
107.99459,433.26,542.08
108.01472,434.37,540.79
108.03564,435.40,541.54
108.05546,433.37,544.26
108.07455,436.64,545.17
108.09550,437.03,546.32
108.11526,437.73,546.02
108.13406,438.34,546.21
108.15476,442.55,554.15
108.17497,451.85,574.83
108.19575,466.66,613.96
108.21535,493.87,661.11
108.23664,521.56,697.31
108.25641,553.27,716.38
108.27736,577.09,714.50
108.29718,592.51,692.50
108.31875,600.39,664.56
108.33781,602.42,630.07
108.35626,594.56,602.31
108.37891,585.34,578.23
108.39616,572.89,556.48
108.41784,561.04,538.71
108.43704,549.44,524.74
108.45670,536.85,516.01
108.47670,526.62,510.86
108.49753,514.46,506.33
108.51762,506.25,503.55
108.53617,497.68,503.70
108.55740,490.42,502.94
108.57736,484.20,505.72
108.59635,477.80,506.65
108.61734,471.30,512.03
108.63702,467.87,514.11
108.65630,464.97,518.27
108.67662,460.63,521.64
108.69737,456.34,523.08
108.71795,457.70,526.48
108.73767,453.65,526.78
108.75726,449.79,530.08
108.77782,449.77,533.36
108.79703,447.12,531.41
108.81693,447.01,535.20
108.83606,445.12,534.17
108.85766,446.33,535.68
108.87834,444.41,536.93
108.89764,444.32,537.49
108.91719,446.13,538.02
108.93753,445.00,537.13
108.95778,443.03,539.59
108.97761,443.92,541.77
108.99633,441.16,539.09
109.01630,441.51,539.14
109.03772,444.85,539.65
109.05601,440.67,542.74
109.07692,439.44,539.73
109.09634,438.33,542.89
109.11847,440.63,538.53
109.13783,439.08,539.22
109.15606,438.83,540.96
109.17709,438.88,539.74
109.19624,437.78,538.96
109.21697,438.05,540.43
109.23699,438.72,538.73
109.25632,437.43,542.52
109.27797,440.71,540.79
109.29764,440.42,542.44
109.31612,438.87,540.70
109.33860,440.69,541.17
109.35687,439.41,544.35
109.37857,438.03,542.64
109.39763,437.51,542.13
109.41769,439.25,542.00
109.43642,438.10,539.91
109.45790,438.07,541.54
109.47612,435.97,543.03
109.49755,438.12,541.56
109.51661,435.54,544.02
109.53670,436.00,542.50
109.55762,436.88,544.98
109.57787,437.27,545.76
109.59652,439.32,542.04
109.61609,439.05,543.98
109.63858,437.32,544.96
109.65758,438.48,543.92
109.67846,438.01,544.64
109.69839,438.37,544.67
109.71993,438.43,541.21
109.73852,436.49,541.58
109.75706,434.64,543.72
109.77923,436.89,541.60
109.79789,435.15,541.45
109.81843,434.67,543.31
109.83801,431.87,541.74
109.85844,432.49,539.64
109.87743,434.36,541.06
109.89703,431.19,542.27
109.91900,430.43,539.82
109.93854,430.75,541.75
109.95783,431.45,542.01
109.97873,430.58,541.91
109.99778,430.46,542.91
110.01857,430.83,541.30
110.03774,431.28,541.09
110.05813,430.01,540.08
110.07753,430.95,542.30
110.09893,433.21,541.13
110.11812,432.62,539.23
110.13791,431.81,542.31
110.15719,432.56,540.75
110.17877,431.22,541.48
110.19877,430.19,541.97
110.21860,430.52,543.44
110.23858,431.26,540.98
110.25895,433.01,541.29
110.27754,431.15,539.90
110.29800,431.42,543.33
110.31782,431.15,539.24
110.33764,431.03,539.38
110.35818,432.35,539.72
110.37768,432.53,540.69
110.39760,434.14,538.05
110.41799,432.06,538.14
110.43865,432.99,541.67
110.45822,433.93,542.83
110.47875,432.47,540.24
110.49893,436.01,541.93
110.51720,434.42,543.18
110.53816,434.76,539.73
110.55837,435.32,541.62
110.57815,436.83,544.38
110.59886,436.31,544.64
110.61891,436.36,545.66
110.63906,434.17,542.25
110.65841,430.99,544.25
110.67876,430.97,544.13
110.69868,432.34,544.79
110.71874,430.14,542.92
110.73992,429.84,541.38
110.75977,430.93,542.65
110.77877,430.08,542.32
110.79969,429.43,539.66
110.81834,430.70,541.71
110.83965,429.53,539.52
110.85976,426.48,540.86
110.87833,428.51,543.07
110.89832,426.26,540.51
110.91886,425.49,543.23
110.93905,426.48,539.75
110.95985,426.72,541.00
110.97910,426.23,540.39
110.99997,429.00,541.99
111.01930,429.06,539.02
111.04008,427.66,538.07
111.05940,429.02,538.62
111.08070,428.48,536.99
111.10092,428.30,539.71
111.12077,428.52,536.69
111.14097,429.28,536.83
111.16055,426.22,536.05
111.18013,424.82,537.16
111.20089,426.96,537.44
111.21965,424.85,537.47
111.23945,424.61,534.79
111.25902,426.83,538.28
111.28058,427.88,538.10
111.29941,418.82,537.52
111.31981,401.62,537.48
111.33956,382.32,529.83
111.35909,363.02,524.17
111.37911,343.51,517.80
111.39980,325.64,509.10
111.41976,309.63,506.01
111.43914,300.85,497.91
111.46090,296.41,496.31
111.47936,292.66,496.28
111.50041,295.46,494.11
111.52035,298.64,494.20
111.53924,301.81,493.97
111.56034,304.00,493.21
111.58105,311.57,494.05
111.60089,319.22,497.53
111.62092,326.12,501.79
111.63921,334.69,503.32
111.66063,346.00,508.89
111.67908,352.34,508.98
111.70072,359.21,515.64
111.71928,368.29,517.89
111.74059,375.97,520.28
111.76026,379.10,521.47
111.77984,387.67,522.68
111.79947,390.20,528.30
111.82178,394.36,527.79
111.83960,398.55,528.75
111.86086,403.20,529.95
111.87909,405.46,530.72
111.89913,407.06,531.47
111.91952,408.47,533.58
111.93976,413.22,533.82
111.96097,413.33,534.69
111.98037,414.95,534.99
111.99935,414.23,536.36
112.02097,417.67,533.75
112.04024,419.21,537.74
112.06047,419.22,537.24
112.08147,420.89,535.29
112.10289,420.11,538.12
112.12133,418.55,539.51
112.14121,418.65,535.51
112.16001,420.34,536.92
112.18159,421.29,535.95
112.20056,422.12,538.11
112.22177,424.27,537.06
112.24098,424.60,536.17
112.26085,432.78,539.99
112.28182,451.44,546.11
112.30183,474.18,556.49
112.32196,493.63,566.26
112.34015,516.41,579.63
112.36170,542.44,583.90
112.38189,561.79,587.88
112.40113,580.05,590.57
112.42063,582.17,587.81
112.44068,581.48,587.83
112.46006,571.28,581.65
112.48114,563.85,575.29
112.50181,549.31,571.79
112.52165,539.76,566.49
112.54112,526.42,563.94
112.56122,512.91,559.53
112.58275,504.59,557.45
112.60173,492.51,554.72
112.62397,486.42,549.97
112.64255,479.42,547.06
112.66127,468.88,545.39
112.68226,464.70,546.63
112.70294,460.23,546.05
112.72284,457.03,545.22
112.74268,448.77,542.29
112.76121,445.65,542.83
112.78148,441.11,541.56
112.80108,441.32,540.69
112.82123,438.80,537.04
112.84141,437.60,539.14
112.86189,435.16,537.09
112.88250,431.04,537.02
112.90167,428.58,538.13
112.92121,429.70,534.32
112.94141,428.13,536.15
112.96272,428.94,538.07
112.98160,429.74,535.97
113.00297,430.70,536.62
113.02125,429.90,535.80
113.04209,428.23,536.50
113.06113,426.92,536.58
113.08272,426.38,537.80
113.10391,428.19,536.74
113.12171,429.22,537.42
113.14203,425.36,537.88
113.16210,425.04,539.46
113.18288,426.11,538.89
113.20123,423.15,539.48
113.22255,424.55,538.85
113.24211,422.76,540.71
113.26223,423.67,539.03
113.28206,423.72,539.11
113.30249,426.55,538.76
113.32220,424.84,541.65
113.34214,425.92,538.05
113.36121,424.08,537.54
113.38173,425.25,539.37
113.40217,423.85,538.88
113.42137,427.66,537.36
113.44261,425.56,539.21
113.46125,425.50,539.77
113.48234,426.75,540.57
113.50122,424.18,537.97
113.52145,426.36,538.76
113.54122,426.74,535.92
113.56220,423.54,536.76
113.58104,424.16,535.02
113.60247,425.21,535.27
113.62115,425.17,538.22
113.64173,426.18,534.25
113.66242,425.87,538.18
113.68107,425.44,539.19
113.70275,423.41,539.72
113.72204,425.55,537.15
113.74178,423.30,538.23
113.76130,423.20,539.31
113.78219,424.17,538.28
113.80188,424.29,537.72
113.82291,427.48,538.65
113.84248,426.27,537.17
113.86110,424.31,537.68
113.88202,422.10,538.92
113.90175,424.44,538.94
113.92214,426.25,535.28
113.94178,424.73,536.67
113.96218,425.76,538.38
113.98256,424.29,538.07
114.00188,422.94,537.43
114.02201,423.02,536.89
114.04182,425.42,538.53
114.06110,423.58,540.32
114.08144,422.69,539.48
114.10107,423.51,539.96
114.12178,423.60,541.17
114.14222,424.83,538.51
114.16198,426.56,541.28
114.18170,423.53,538.49
114.20152,425.25,541.27
114.22156,426.95,540.27
114.24204,425.18,539.36
114.26104,427.53,542.02
114.28178,426.46,539.63
114.30234,425.13,541.85
114.32174,427.35,541.50
114.34177,424.83,539.37
114.36203,424.82,537.92
114.38127,429.26,536.55
114.40204,425.83,538.37
114.42138,427.23,539.37
114.44203,426.73,536.51
114.46168,428.67,540.85
114.48286,426.76,541.77
114.50112,430.49,540.54
114.52222,428.03,541.30
114.54156,428.95,541.13
114.56287,427.80,542.76
114.58281,429.47,542.49
114.60195,427.85,541.69
114.62232,427.17,539.74
114.64229,427.47,538.69
114.66110,426.49,540.83
114.68285,427.24,536.88
114.70106,428.81,537.27
114.72166,426.09,538.55
114.74127,426.80,540.71
114.76156,429.72,538.63
114.78244,427.60,541.34
114.80226,427.49,541.39
114.82190,429.05,539.71
114.84164,425.37,539.74
114.86111,427.54,539.78
114.88212,429.05,538.97
114.90287,428.60,541.60
114.92259,429.32,540.65
114.94226,426.07,540.50
114.96287,427.64,540.03
114.98300,427.73,539.04
115.00265,430.27,539.90
115.02151,427.09,541.11
115.04223,430.56,539.17
115.06295,430.73,537.90
115.08244,430.74,537.96
115.10251,431.64,540.74
115.12233,431.37,539.15
115.14346,433.03,539.22
115.16378,433.13,539.93
115.18491,431.13,538.66
115.20315,431.60,537.79
115.22467,436.19,540.34
115.24438,435.34,539.94
115.26513,435.95,539.28
115.28552,436.48,540.42
115.30484,438.61,541.48
115.32434,439.23,538.58
115.34529,442.62,542.07
115.36538,442.61,540.93
115.38549,443.06,539.63
115.40515,443.86,539.78
115.42434,442.76,539.79
115.44464,446.09,541.29
115.46591,445.61,538.30
115.48678,445.23,541.44
115.50630,443.89,539.91
115.52539,441.62,537.73
115.54538,444.05,539.79
115.56649,441.53,538.93
115.58537,445.18,536.86
115.60649,443.08,537.15
115.62704,444.52,535.52
115.64714,441.67,539.29
115.66800,443.12,538.61
115.68850,441.96,539.69
115.70890,442.59,540.05
115.72939,443.16,541.28
115.74823,445.35,543.14
115.76896,444.38,541.84
115.78943,442.29,542.86
115.80990,438.64,542.98
115.82832,439.16,541.43
115.84840,440.64,544.56
115.86842,441.40,544.64
115.88974,440.54,544.84
115.90976,441.35,542.95
115.92801,441.23,543.79
115.94901,441.23,543.04
115.96878,443.48,544.11
115.98844,440.29,544.22
116.00968,436.70,543.51
116.02847,434.03,543.00
116.04816,432.80,540.75
116.06988,429.99,542.21
116.09059,428.57,541.24
116.11040,430.74,539.90
116.12916,425.43,540.28
116.14950,416.96,538.94
116.16906,396.08,536.92
116.18964,373.36,536.02
116.21036,348.89,529.85
116.23024,331.77,521.80
116.25115,318.85,514.68
116.27140,309.42,507.58
116.29194,306.01,498.86
116.31068,309.41,492.18
116.33171,312.42,487.29
116.35042,314.90,487.06
116.37056,322.40,484.39
116.39108,329.59,485.23
116.41084,336.75,485.23
116.43155,340.98,488.17
116.45017,349.42,488.66
116.47081,358.78,495.47
116.49197,369.38,498.30
116.51142,376.58,505.39
116.53115,381.90,507.24
116.55107,388.24,513.32
116.57009,393.47,513.55
116.59016,400.55,519.34
116.61165,404.87,523.05
116.63010,409.95,525.70
116.65033,413.43,525.96
116.67051,413.99,528.13
116.69015,417.43,532.78
116.71140,419.82,534.72
116.73076,423.31,535.04
116.75095,424.84,537.08
116.77072,425.43,536.20
116.79116,427.96,540.12
116.81166,427.70,540.92
116.83151,430.38,541.48
116.85014,428.35,544.63
116.87141,430.42,542.47
116.89012,431.22,544.05
116.91078,431.79,545.24
116.93162,436.34,544.28
116.95142,446.27,549.79
116.97167,455.52,560.66
116.99051,474.65,571.71
117.01097,497.54,592.67
117.03173,519.56,615.51
117.05097,545.55,633.60
117.07178,567.27,639.20
117.09071,585.74,636.15
117.11147,594.30,622.49
117.13134,597.51,605.83
117.15135,589.62,591.74
117.17135,581.67,580.35
117.19038,570.62,570.09
117.21191,556.37,562.42
117.23191,543.44,559.07
117.25080,528.81,551.79
117.27185,518.10,548.95
117.29006,507.66,546.70
117.31147,498.66,544.67
117.33139,491.47,542.18
117.35013,485.12,544.82
117.37071,475.00,543.95
117.39173,470.29,541.33
117.41047,466.70,542.06
117.43020,461.97,542.01
117.45082,455.41,541.76
117.47243,452.53,541.21
117.49296,448.31,542.41
117.51187,446.95,543.64
117.53134,443.76,541.63
117.55225,441.47,541.47
117.57108,439.86,540.69
117.59298,437.99,538.85
117.61289,437.15,540.86
117.63278,433.34,540.03
117.65242,432.53,540.50
117.67211,434.07,539.95
117.69117,432.62,542.04
117.71129,432.53,539.57
117.73115,431.08,540.96
117.75139,433.59,542.20
117.77174,429.57,540.48
117.79233,431.57,539.59
117.81257,431.84,537.18
117.83204,433.01,539.22
117.85193,431.91,537.56
117.87286,430.82,538.08
117.89205,429.66,537.45
117.91211,431.35,537.59
117.93282,431.57,539.06
117.95267,430.94,541.07
117.97141,427.90,539.38
117.99221,429.56,540.68
118.01159,428.80,542.33
118.03135,430.15,540.77
118.05294,426.69,542.35
118.07227,425.22,541.32
118.09194,426.36,541.46
118.11145,425.05,543.57
118.13117,423.19,542.88
118.15218,422.95,542.25
118.17387,421.09,541.39
118.19399,421.55,542.02
118.21319,419.11,542.52
118.23206,421.17,541.16
118.25293,422.40,542.07
118.27229,421.96,540.77
118.29286,422.95,541.22
118.31336,425.30,540.23
118.33313,423.42,540.90
118.35251,423.91,540.83
118.37254,424.50,541.91
118.39268,421.81,540.69
118.41257,424.61,540.75
118.43241,421.12,540.06
118.45380,421.79,539.26
118.47270,423.22,540.64
118.49339,419.12,539.62
118.51221,421.80,539.39
118.53235,421.91,539.85
118.55255,419.81,540.46
118.57237,422.08,540.58
118.59356,423.83,543.70
118.61338,422.49,540.66
118.63260,421.97,540.74
118.65362,423.84,543.79
118.67212,422.35,539.62
118.69208,423.70,539.62
118.71399,422.49,541.24
118.73396,423.50,540.23
118.75349,424.56,541.06
118.77369,422.62,539.41
118.79317,422.12,539.36
118.81351,423.07,539.56
118.83222,426.80,537.92
118.85375,425.88,538.19
118.87278,426.03,538.42
118.89215,424.41,538.60
118.91258,422.03,536.40
118.93202,423.93,538.93
118.95255,422.93,538.39
118.97311,424.53,536.95
118.99254,421.47,535.76
119.01238,422.30,535.08
119.03362,424.11,534.91
119.05202,423.95,535.10
119.07292,425.63,535.02
119.09275,425.57,535.74
119.11358,423.38,534.78
119.13336,424.37,535.59
119.15335,423.41,535.38
119.17224,423.82,537.36
119.19282,421.72,535.51
119.21349,422.74,537.80
119.23386,423.71,535.51
119.25390,421.38,536.77
119.27266,423.89,537.88
119.29350,420.49,535.95
119.31376,422.00,538.97
119.33361,420.14,539.36
119.35364,420.70,537.54
119.37377,423.70,539.81
119.39229,422.39,539.90
119.41250,423.00,539.33
119.43275,422.56,540.63
119.45222,424.70,542.20
119.47222,422.90,539.44
119.49301,424.23,540.50
119.51292,426.29,538.62
119.53396,425.48,538.33
119.55365,424.44,539.71
119.57206,421.88,539.67
119.59259,421.78,538.00
119.61214,421.18,538.68
119.63350,421.37,541.10
119.65385,422.70,541.21
119.67358,422.30,538.76
119.69310,419.66,540.75
119.71262,421.16,539.61
119.73266,420.40,538.35
119.75273,421.24,535.85
119.77334,421.69,538.29
119.79291,425.07,538.60
119.81219,424.94,537.47
119.83328,423.48,538.94
119.85400,424.39,537.99
119.87282,422.31,538.70
119.89278,422.39,538.13
119.91290,424.62,537.71
119.93280,421.76,535.93
119.95249,423.33,537.01
119.97245,422.38,538.02
119.99207,421.14,536.14
120.01332,421.81,538.24
120.03256,422.74,535.60
120.05340,422.84,535.86
120.07317,423.15,537.03
120.09328,420.39,536.37
120.11373,423.01,536.81
120.13344,424.07,539.00
120.15348,422.39,536.04
120.17246,419.79,538.87
120.19204,419.31,535.78
120.21352,418.68,536.96
120.23302,419.63,536.79
120.25323,419.45,534.59
120.27340,419.68,536.00
120.29331,422.01,534.56
120.31231,420.66,534.67
120.33392,424.03,534.71
120.35266,425.53,537.58
120.37202,421.91,536.41
120.39395,425.13,539.80
120.41381,422.67,538.04
120.43261,423.88,536.79
120.45252,426.84,539.49
120.47316,425.35,538.05
120.49306,426.17,535.97
120.51211,422.43,537.13
120.53218,423.85,536.69
120.55325,420.91,535.68
120.57220,424.13,535.91
120.59258,420.89,535.44
120.61209,422.44,536.23
120.63236,424.90,536.49
120.65201,422.65,536.95
120.67314,423.66,534.89
120.69385,421.95,534.03
120.71219,421.01,535.55
120.73215,422.44,536.70
120.75387,421.88,537.31
120.77390,422.29,535.48
120.79380,424.77,535.28
120.81353,424.90,534.93
120.83257,425.11,536.55
120.85331,423.13,534.99
120.87361,424.34,535.45
120.89223,423.27,535.14
120.91359,423.32,535.93
120.93372,422.64,534.84
120.95331,421.35,537.23
120.97238,422.48,538.37
120.99305,422.84,538.66
121.01244,423.21,539.69
121.03291,423.92,536.61
121.05320,420.88,537.23
121.07216,422.74,539.71
121.09254,425.55,539.84
121.11347,423.83,539.71
121.13364,424.03,538.99
121.15280,423.67,540.00
121.17374,424.62,535.23
121.19316,424.66,538.31
121.21387,423.57,539.67
121.23347,425.75,537.73
121.25299,422.96,536.22
121.27254,422.55,536.36
121.29203,422.24,535.98
121.31246,424.65,534.59
121.33245,424.49,539.55
121.35218,422.68,540.41
121.37241,421.60,531.56
121.39351,411.05,511.00
121.41228,405.88,496.54
121.43240,400.35,482.11
121.45265,398.82,474.37
121.47295,398.45,471.99
121.49239,396.20,475.44
121.51294,397.04,476.11
121.53237,400.50,483.88
121.55223,401.69,487.69
121.57360,404.10,491.84
121.59316,408.67,499.33
121.61365,411.41,505.29
121.63238,413.35,509.29
121.65348,413.41,512.88
121.67309,416.07,517.98
121.69349,417.31,524.89
121.71309,418.19,527.71
121.73242,421.34,531.82
121.75307,422.23,539.39
121.77355,420.75,546.99
121.79340,423.81,568.54
121.81279,422.21,598.00
121.83311,422.85,628.97
