Program Time [s],data 0,data 1
5.80068,371.06,475.93
5.82123,369.80,474.97
5.84192,370.76,474.84
5.86162,370.82,469.52
5.88124,368.73,470.24
5.90017,369.97,471.10
5.92042,369.03,473.41
5.94040,367.05,476.77
5.96154,370.32,481.45
5.98040,373.27,479.21
6.00005,373.41,477.09
6.02006,372.79,483.90
6.04124,372.44,481.15
6.06033,373.59,481.68
6.08048,375.66,482.98
6.10119,374.49,481.46
6.12027,374.04,477.55
6.14173,372.04,475.28
6.16051,371.44,484.21
6.18037,373.99,485.82
6.20081,371.11,484.38
6.22265,374.57,487.30
6.24140,375.60,487.75
6.26083,371.83,490.64
6.28158,372.44,490.18
6.30163,370.32,495.84
6.32175,368.04,493.76
6.34189,363.62,492.62
6.36207,362.47,496.41
6.38280,367.00,502.54
6.40246,368.06,530.77
6.42250,377.41,577.03
6.44231,393.34,617.60
6.46283,401.34,661.16
6.48370,406.85,684.81
6.50390,411.51,696.42
6.52401,410.65,695.06
6.54329,414.58,688.28
6.56380,413.80,672.92
6.58325,409.52,652.34
6.60389,407.74,628.48
6.62342,401.73,601.93
6.64411,399.25,586.53
6.66364,393.01,581.60
6.68330,391.24,573.72
6.70415,387.01,564.18
6.72349,385.08,556.94
6.74409,386.48,551.38
6.76455,381.15,534.55
6.78550,373.34,512.20
6.80418,363.72,482.97
6.82489,353.78,452.64
6.84545,341.50,419.42
6.86422,330.77,391.51
6.88381,322.17,367.70
6.90504,316.26,348.51
6.92461,314.46,336.60
6.94389,314.20,325.69
6.96436,318.07,324.05
6.98477,322.67,327.40
7.00436,325.91,329.07
7.02498,329.48,333.84
7.04395,341.11,346.06
7.06532,338.28,357.47
7.08411,344.18,372.41
7.10452,345.54,384.76
7.12394,349.76,394.83
7.14501,351.60,405.62
7.16490,354.04,415.97
7.18525,355.15,422.06
7.20457,359.74,436.68
7.22553,360.66,444.90
7.24473,364.64,453.62
7.26511,364.90,456.70
7.28522,362.98,459.30
7.30452,368.01,462.03
7.32528,368.95,466.55
7.34410,369.46,466.25
7.36576,371.07,472.09
7.38534,368.39,472.38
7.40525,368.58,474.50
7.42568,367.56,473.58
7.44552,368.55,475.85
7.46440,370.61,475.68
7.48508,369.36,476.83
7.50513,367.32,477.86
7.52405,368.72,476.52
7.54461,368.16,477.17
7.56425,370.48,477.11
7.58519,369.39,479.01
7.60500,368.61,478.63
7.62481,369.69,478.04
7.64503,366.56,479.68
7.66540,368.71,477.82
7.68562,367.13,478.41
7.70544,365.33,473.80
7.72513,368.26,474.70
7.74481,366.50,471.79
7.76544,369.34,472.50
7.78582,367.38,472.67
7.80623,368.94,469.03
7.82662,371.61,469.52
7.84579,372.80,469.76
7.86576,371.49,470.24
7.88550,374.09,471.03
7.90645,374.98,471.76
7.92672,374.69,470.45
7.94524,377.68,472.19
7.96642,378.77,474.78
7.98567,376.51,478.43
8.00568,381.17,477.55
8.02478,379.25,479.00
8.04544,379.18,478.71
8.06572,378.59,479.94
8.08583,378.29,478.57
8.10578,378.32,480.84
8.12514,378.29,480.65
8.14595,377.42,479.07
8.16549,376.07,476.59
8.18518,378.37,476.06
8.20541,376.91,470.17
8.22491,376.71,468.86
8.24499,374.68,468.23
8.26569,375.85,466.76
8.28499,378.60,466.42
8.30526,378.53,467.10
8.32683,376.31,469.11
8.34677,379.06,470.41
8.36479,378.33,469.58
8.38562,378.51,471.04
8.40617,379.83,474.63
8.42654,379.05,474.48
8.44518,381.59,474.74
8.46529,377.52,475.47
8.48656,378.87,478.56
8.50543,382.39,478.28
8.52600,379.82,477.11
8.54507,379.38,479.12
8.56570,381.36,479.55
8.58576,379.02,479.53
8.60529,381.24,479.63
8.62654,377.99,480.96
8.64660,378.07,476.89
8.66688,380.39,475.43
8.68653,379.86,474.86
8.70611,380.01,473.67
8.72707,378.59,474.29
8.74759,381.06,474.55
8.76751,380.89,479.56
8.78779,378.19,479.84
8.80757,368.25,479.20
8.82718,350.02,478.28
8.84643,334.81,468.96
8.86724,314.08,459.69
8.88579,298.24,445.44
8.90610,282.56,433.20
8.92682,274.72,422.78
8.94689,268.89,415.01
8.96748,264.45,408.29
8.98663,266.84,406.76
9.00779,267.96,407.59
9.02604,273.92,406.48
9.04623,280.16,409.39
9.06634,285.72,416.44
9.08769,294.48,419.80
9.10612,301.69,424.66
9.12715,307.06,432.20
9.14611,316.16,436.76
9.16756,320.83,440.08
9.18750,329.67,446.37
9.20722,335.86,451.59
9.22659,340.67,451.72
9.24707,346.93,457.44
9.26704,351.76,457.07
9.28688,357.65,461.80
9.30656,359.32,465.54
9.32603,361.57,464.83
9.34758,364.38,469.20
9.36764,369.37,471.47
9.38857,370.38,469.73
9.40829,372.15,470.83
9.42722,373.76,473.14
9.44847,374.03,472.10
9.46856,375.31,473.93
9.48842,377.62,476.91
9.50756,377.64,476.98
9.52783,378.01,478.19
9.54843,378.94,477.99
9.56851,380.73,478.84
9.58712,380.20,476.53
9.60704,381.19,477.63
9.62906,381.11,480.45
9.64942,379.58,481.93
9.66920,380.35,483.16
9.68862,389.03,491.63
9.70861,399.00,506.90
9.72825,414.90,527.84
9.74923,436.59,561.60
9.76833,455.72,593.98
9.78891,473.73,617.78
9.80790,493.42,627.06
9.82948,504.28,619.45
9.84793,513.75,605.26
9.86838,519.10,584.67
9.88810,519.02,565.87
9.90896,513.60,542.48
9.92892,503.94,523.62
9.94794,496.19,507.12
9.96911,483.74,493.24
9.98958,471.98,483.01
10.00786,462.20,476.99
10.02807,450.24,468.27
10.04856,439.04,462.38
10.06955,430.63,460.03
10.08824,425.84,459.30
10.10903,414.98,459.39
10.12943,408.70,455.90
10.14891,404.77,457.27
10.16850,398.62,458.08
10.18885,398.22,461.55
10.20963,395.33,461.50
10.22809,394.74,463.91
10.24842,391.42,462.52
10.26866,389.61,462.64
10.28790,389.75,467.13
10.30964,388.79,469.19
10.32958,385.02,468.45
10.34859,386.05,472.15
10.36831,382.15,473.67
10.38947,384.78,473.93
10.40863,382.80,473.39
10.42966,383.46,474.26
10.44784,383.51,478.17
10.46942,384.80,476.41
10.48786,385.47,478.80
10.50955,383.81,479.60
10.52950,381.68,477.44
10.54852,382.75,476.80
10.56858,383.21,479.34
10.58914,381.63,477.60
10.60863,380.95,476.17
10.62916,381.41,480.16
10.64795,379.62,478.29
10.66773,380.85,480.77
10.68864,382.28,479.25
10.70961,379.79,481.89
10.72954,378.91,480.55
10.74837,380.80,482.19
10.76857,379.38,483.09
10.78879,379.24,481.40
10.80939,381.16,481.62
10.82775,380.66,482.89
10.84936,382.69,482.90
10.86929,381.23,480.00
10.88953,383.14,482.25
10.90813,383.80,480.03
10.92948,382.52,481.35
10.94921,382.92,482.68
10.96955,383.23,480.41
10.98843,382.57,480.45
11.00877,379.74,479.80
11.02968,378.07,481.23
11.04906,380.44,478.69
11.07024,378.51,479.96
11.09006,378.65,480.11
11.10997,379.97,480.36
11.12872,376.37,480.45
11.14924,379.39,480.36
11.16968,375.81,479.83
11.19151,378.23,479.81
11.21163,377.48,480.30
11.23070,376.05,478.41
11.25071,375.09,478.87
11.27077,375.90,479.17
11.28972,374.64,476.53
11.31160,375.54,477.10
11.33117,373.11,477.25
11.35008,373.12,478.66
11.37059,374.19,479.17
11.39020,373.86,480.04
11.41124,372.28,479.92
11.43003,372.41,480.07
11.45003,372.50,479.64
11.47094,373.76,478.45
11.49017,370.51,478.88
11.50996,373.32,479.87
11.53076,370.76,479.53
11.55116,370.55,479.26
11.57086,370.35,483.18
11.59150,373.82,479.17
11.61067,371.69,479.50
11.63133,371.88,482.06
11.65123,373.47,481.97
11.67067,375.55,479.50
11.69056,372.23,479.87
11.71038,372.95,481.06
11.73125,373.00,480.64
11.75104,374.54,480.56
11.77128,372.71,479.96
11.79026,371.45,479.11
11.81099,374.50,479.62
11.83045,372.20,478.66
11.84989,372.01,478.82
11.87019,374.48,481.61
11.89140,373.34,479.44
11.90990,373.30,480.11
11.93146,372.31,481.09
11.94994,373.35,477.08
11.97042,371.14,479.08
11.98994,373.74,479.55
12.01120,372.55,478.78
12.03127,374.38,479.36
12.05001,375.09,479.03
12.07024,371.55,479.71
12.09073,372.65,479.81
12.10973,374.15,476.88
12.13017,371.95,478.85
12.15059,373.41,478.82
12.17108,371.02,479.15
12.19054,374.27,479.79
12.21069,374.32,476.87
12.23126,373.35,477.54
12.25140,372.09,476.94
12.27032,372.94,477.58
12.29131,373.08,476.11
12.31020,371.36,478.48
12.32995,370.87,477.87
12.35088,370.32,478.28
12.37157,372.95,478.83
12.38974,371.25,478.17
12.41008,370.91,476.21
12.42982,369.62,476.74
12.45095,370.96,475.95
12.47110,370.07,475.51
12.48991,371.19,479.47
12.51068,368.11,478.08
12.53017,369.04,477.41
12.55007,370.42,479.02
12.57066,369.31,479.15
12.59153,370.25,482.69
12.60987,367.86,480.26
12.63149,367.85,481.00
12.65036,370.72,482.37
12.66983,371.97,482.26
12.69020,369.95,478.70
12.70992,370.71,478.57
12.73055,369.91,480.33
12.75156,369.56,477.96
12.77050,369.10,477.65
12.79086,368.09,477.70
12.81073,369.42,477.46
12.83067,371.86,477.65
12.85039,368.35,478.01
12.87053,369.30,479.29
12.89040,370.79,478.34
12.91108,368.04,476.11
12.93150,368.87,476.55
12.95068,368.47,476.89
12.97085,362.27,474.85
12.98992,353.98,473.74
13.01079,339.37,464.34
13.03163,321.45,454.74
13.05076,303.91,449.28
13.06998,288.08,439.57
13.09080,271.82,434.39
13.11150,263.94,427.59
13.13152,257.47,427.81
13.15111,253.45,425.08
13.17079,254.89,425.33
13.19116,254.68,428.28
13.21018,257.38,431.33
13.23234,265.75,434.01
13.25144,269.83,438.59
13.27188,277.73,440.03
13.29165,282.80,444.85
13.31133,292.53,448.39
13.33090,300.01,451.79
13.35206,308.18,453.43
13.37218,315.83,455.85
13.39227,320.00,460.36
13.41322,326.04,462.92
13.43287,332.17,463.28
13.45353,336.12,465.32
13.47316,339.02,467.81
13.49323,342.79,468.59
13.51410,343.97,467.84
13.53319,346.38,471.42
13.55360,351.90,470.25
13.57436,351.93,469.73
13.59273,353.27,472.85
13.61320,352.77,473.71
13.63357,353.32,474.48
13.65340,355.32,474.41
13.67453,356.39,475.27
13.69347,357.71,476.43
13.71386,356.95,476.97
13.73355,355.92,477.32
13.75420,359.52,473.96
13.77375,358.45,477.13
13.79382,358.97,474.39
13.81398,359.98,475.64
13.83449,361.39,476.29
13.85392,359.51,475.62
13.87446,362.42,477.23
13.89365,359.41,474.95
13.91263,361.29,474.15
13.93411,358.99,475.01
13.95420,360.95,473.35
13.97388,357.96,476.97
13.99472,368.03,478.77
14.01447,377.52,487.60
14.03430,397.49,494.11
14.05449,417.84,501.80
14.07439,443.61,511.60
14.09289,466.09,515.33
14.11371,482.02,522.99
14.13387,494.81,522.39
14.15338,498.45,522.39
14.17374,498.83,515.42
14.19328,491.82,511.68
14.21295,480.59,507.46
14.23322,471.90,501.01
14.25468,461.86,498.36
14.27363,452.39,492.02
14.29284,442.66,487.09
14.31315,430.09,484.71
14.33272,424.85,480.31
14.35431,414.68,479.25
14.37379,406.66,475.37
14.39371,403.34,474.46
14.41387,395.28,477.80
14.43340,394.87,474.79
14.45465,389.06,474.86
14.47455,383.81,475.24
14.49308,381.99,474.16
14.51285,379.65,472.60
14.53404,376.65,473.32
14.55339,374.42,473.66
14.57419,373.39,471.02
14.59378,373.05,473.14
14.61301,370.79,469.96
14.63431,371.26,472.27
14.65390,368.85,471.87
14.67351,368.76,473.22
14.69369,368.63,471.52
14.71385,367.75,470.26
14.73308,367.39,472.38
14.75333,368.56,472.64
14.77293,366.74,474.43
14.79348,368.60,473.92
14.81366,363.63,472.60
14.83294,365.55,471.38
14.85253,365.16,473.58
14.87418,365.55,471.73
14.89260,364.53,474.15
14.91296,364.11,473.74
14.93455,364.38,472.01
14.95289,363.61,472.68
14.97289,364.39,470.91
14.99314,364.06,472.12
15.01342,364.99,471.14
15.03408,362.50,471.81
15.05411,365.85,475.05
15.07411,366.12,474.25
15.09318,364.30,472.04
15.11409,363.32,473.08
15.13375,365.00,475.37
15.15321,364.31,472.10
15.17419,364.31,472.48
15.19373,364.17,474.56
15.21370,361.73,474.49
15.23381,362.77,473.30
15.25414,364.97,472.86
15.27288,365.48,471.66
15.29335,366.09,471.28
15.31414,364.46,473.05
15.33415,365.48,473.93
15.35349,366.06,471.36
15.37292,367.01,471.77
15.39467,366.32,472.19
15.41374,363.40,474.34
15.43399,364.29,475.38
15.45456,363.25,476.12
15.47355,363.64,476.33
15.49400,363.31,473.28
15.51442,362.58,475.76
15.53352,363.35,474.66
15.55310,365.83,475.55
15.57401,363.96,473.42
15.59418,364.53,475.47
15.61344,362.69,475.64
15.63420,365.35,474.12
15.65277,365.16,472.07
15.67283,364.51,474.38
15.69428,365.81,473.40
15.71350,364.50,473.01
15.73361,365.68,473.63
15.75295,366.20,472.93
15.77336,367.24,472.30
15.79363,365.92,471.97
15.81337,366.70,470.02
15.83437,365.84,469.17
15.85410,363.05,470.52
15.87514,366.78,469.41
15.89488,366.36,468.79
15.91454,366.37,470.28
15.93519,364.83,472.71
15.95396,367.89,470.44
15.97512,366.85,473.75
15.99461,367.23,471.59
16.01434,368.16,474.23
16.03469,366.95,471.49
16.05516,368.59,471.02
16.07394,368.15,471.90
16.09472,367.84,471.36
16.11843,365.85,471.19
16.13439,365.34,471.77
16.15374,368.03,471.20
16.17458,367.52,470.46
16.19498,366.71,469.36
16.21515,367.93,471.05
16.23439,370.20,474.03
16.25409,372.05,470.33
16.27430,369.83,473.68
16.29544,371.16,472.61
16.31559,371.78,470.27
16.33365,371.61,472.16
16.35373,372.78,472.98
16.37440,374.57,470.59
16.39564,372.50,474.00
16.41542,372.84,472.61
16.43536,373.96,473.11
16.45483,373.74,474.46
16.47389,371.67,474.10
16.49462,369.62,472.55
16.51477,370.11,475.39
16.53500,371.23,474.27
16.55441,371.96,474.05
16.57386,370.33,471.68
16.59512,371.54,472.22
16.61489,369.46,474.58
16.63458,368.34,470.66
16.65403,367.68,472.65
16.67541,367.39,471.40
16.69553,366.95,471.61
16.71385,369.08,473.10
16.73496,369.59,473.49
16.75537,369.61,471.13
16.77443,370.81,471.20
16.79525,368.87,471.06
16.81469,371.30,472.75
16.83352,370.11,473.33
16.85429,369.80,474.13
16.87549,371.83,472.67
16.89561,369.74,473.82
16.91560,367.84,475.53
16.93442,370.91,472.70
16.95476,371.17,474.99
16.97382,371.52,477.15
16.99530,372.47,474.24
17.01538,369.33,476.14
17.03499,371.52,472.92
17.05397,371.18,475.44
17.07507,370.21,471.67
17.09393,369.81,470.00
17.11476,368.65,469.69
17.13374,372.31,470.57
17.15413,365.55,466.84
17.17460,356.77,464.23
17.19573,339.66,460.30
17.21563,318.76,458.11
17.23491,303.50,453.28
17.25351,284.56,453.12
17.27459,271.75,446.30
17.29501,265.80,443.75
17.31565,257.42,438.84
17.33379,258.02,434.57
17.35448,258.84,431.06
17.37391,260.17,433.03
17.39388,266.15,431.01
17.41456,269.35,431.83
17.43556,276.80,430.93
17.45483,284.88,436.25
17.47469,295.08,437.26
17.49521,300.66,439.59
17.51577,311.18,442.13
17.53529,318.24,446.71
17.55494,324.57,450.59
17.57520,329.95,453.87
17.59475,337.33,454.58
17.61520,341.40,460.64
17.63416,344.34,461.78
17.65564,348.37,464.70
17.67575,352.89,462.49
17.69400,353.87,466.89
17.71447,354.31,465.85
17.73493,355.88,465.91
17.75555,360.92,465.95
17.77561,362.38,466.98
17.79425,361.35,468.30
17.81395,363.54,469.38
17.83539,364.36,470.25
17.85512,365.25,469.88
17.87471,368.12,471.60
17.89371,367.98,472.31
17.91411,368.76,469.13
17.93431,367.19,472.15
17.95440,368.68,472.69
17.97513,368.30,470.03
17.99510,372.09,475.40
18.01452,380.91,481.20
18.03507,395.43,498.38
18.05423,407.72,509.49
18.07431,423.34,520.64
18.09504,440.22,527.87
18.11445,457.98,529.80
18.13393,476.06,528.94
18.15421,494.34,522.14
18.17407,503.79,520.38
18.19500,504.34,510.89
18.21385,502.79,504.70
18.23505,494.06,500.31
18.25551,485.99,493.55
18.27390,474.94,485.88
18.29521,464.56,484.09
18.31463,458.21,477.74
18.33657,450.10,474.98
18.35635,439.60,475.35
18.37637,434.14,471.34
18.39574,429.26,470.43
18.41516,419.91,472.28
18.43648,416.13,469.73
18.45653,408.67,469.36
18.47517,406.04,468.48
18.49594,398.86,469.92
18.51545,396.42,468.44
18.53567,397.35,469.00
18.55584,391.52,469.75
18.57531,392.68,470.82
18.59481,391.39,471.86
18.61574,390.76,470.42
18.63626,387.71,471.33
18.65481,386.27,474.75
18.67625,386.06,475.29
18.69590,386.20,474.42
18.71646,382.77,474.85
18.73513,385.25,476.02
18.75485,382.75,474.58
18.77561,381.86,475.98
18.79648,383.21,473.06
18.81548,381.80,475.28
18.83634,380.77,477.53
18.85511,382.35,477.87
18.87478,381.55,477.33
18.89618,382.71,475.63
18.91552,382.57,474.41
18.93578,381.66,474.65
18.95467,381.95,474.39
18.97557,381.35,473.62
18.99575,381.05,473.69
19.01525,381.25,476.44
19.03473,379.86,477.29
19.05500,379.22,474.61
19.07473,379.94,478.58
19.09539,381.44,478.74
19.11555,379.62,477.90
19.13631,378.74,475.86
19.15597,379.02,478.02
19.17658,377.86,477.69
19.19510,380.32,477.81
19.21469,378.11,477.41
19.23569,381.94,477.43
19.25554,381.32,476.08
19.27562,382.97,479.87
19.29515,382.93,478.76
19.31477,381.60,479.12
19.33479,382.75,478.07
19.35498,380.92,477.71
19.37535,381.76,476.78
19.39538,382.61,476.37
19.41564,381.42,473.15
19.43626,383.67,476.58
19.45462,380.25,474.93
19.47633,380.34,475.68
19.49654,379.77,474.80
19.51633,380.52,475.05
19.53510,382.90,474.21
19.55646,382.41,473.10
19.57498,379.71,473.76
19.59481,379.70,475.80
19.61472,382.21,476.28
19.63550,378.05,474.50
19.65463,378.46,474.83
19.67599,380.16,473.85
19.69509,379.03,476.57
19.71558,383.05,478.13
19.73501,383.60,476.19
19.75640,382.84,477.89
19.77485,382.45,476.17
19.79460,385.21,475.62
19.81534,383.56,477.11
19.83515,380.89,476.49
19.85540,383.71,477.32
19.87650,382.79,474.44
19.89537,381.84,475.00
19.91536,382.26,476.32
19.93520,381.44,477.21
19.95614,379.04,476.07
19.97508,382.17,477.86
19.99589,379.13,477.14
20.01557,381.34,477.86
20.03473,384.74,476.69
20.05643,385.05,478.72
20.07463,385.48,476.77
20.09509,381.64,479.11
20.11492,378.61,484.64
20.13783,374.22,484.13
20.15628,375.81,484.03
20.17574,373.49,482.14
20.19627,373.21,483.23
20.21614,371.46,483.03
20.23606,371.36,483.94
20.25513,373.05,481.36
20.27656,377.07,479.57
20.29496,377.41,480.68
20.31555,376.76,479.49
20.33570,376.69,478.30
20.35536,377.17,479.53
20.37631,377.85,476.24
20.39578,377.86,475.95
20.41629,379.19,475.09
20.43465,377.26,475.47
20.45553,379.62,476.01
20.47535,378.86,477.07
20.49530,380.57,474.08
20.51497,377.92,475.71
20.53453,379.58,474.82
20.55491,379.38,475.17
20.57637,379.75,474.07
20.59501,381.03,474.11
20.61502,379.11,473.35
20.63461,380.78,473.20
20.65628,380.15,473.92
20.67551,380.34,473.40
20.69560,379.82,475.71
20.71516,382.28,474.95
20.73570,382.13,475.24
20.75469,383.07,474.54
20.77526,381.89,474.73
20.79494,382.96,474.28
20.81636,381.02,474.30
20.83556,382.93,475.97
20.85529,383.21,477.18
20.87604,380.74,474.64
20.89516,380.90,477.55
20.91599,380.03,477.24
20.93546,379.53,474.09
20.95479,381.85,477.20
20.97479,383.29,478.00
20.99544,383.19,476.94
21.01549,383.52,476.91
21.03617,382.54,478.48
21.05562,384.76,479.41
21.07619,385.56,476.05
21.09532,382.92,478.11
21.11489,384.75,476.08
21.13653,384.30,476.09
21.15471,383.70,477.53
21.17483,381.84,478.10
21.19462,381.08,479.50
21.21604,382.69,478.83
21.23578,380.56,479.51
21.25740,382.46,476.48
21.27576,382.15,479.41
21.29597,384.35,481.53
21.31550,382.15,481.60
21.33699,383.04,479.91
21.35668,382.08,478.37
21.37568,382.42,477.91
21.39663,383.77,479.23
21.41671,382.82,477.35
21.43582,373.07,474.32
21.45709,357.21,466.16
21.47722,338.58,455.02
21.49651,317.34,445.06
21.51665,302.85,435.04
21.53647,287.83,428.37
21.55744,280.03,424.16
21.57657,275.49,423.45
21.59600,272.34,423.13
21.61556,273.07,424.20
21.63587,277.65,427.05
21.65619,286.75,430.16
21.67705,293.39,435.39
21.69645,301.52,436.03
21.71587,307.20,441.69
21.73744,313.79,446.08
21.75571,324.41,450.26
21.77722,327.63,455.93
21.79633,335.77,457.44
21.81709,342.28,459.04
21.83655,345.51,461.71
21.85638,352.14,464.51
21.87572,356.83,468.82
21.89619,358.28,469.65
21.91674,362.17,472.78
21.93709,365.75,475.68
21.95684,364.96,476.02
21.97688,366.65,475.14
21.99670,369.46,478.27
22.01720,370.70,478.52
22.03736,373.79,476.51
22.05634,371.40,478.21
22.07655,374.02,476.50
22.09715,373.34,480.48
22.11655,375.76,479.49
22.13705,372.32,478.82
22.15563,373.65,477.46
22.17724,378.25,476.24
22.19712,377.10,477.23
22.21689,376.89,478.09
22.23685,379.50,479.21
22.25686,381.37,476.89
22.27722,379.94,477.88
22.29661,381.75,477.11
22.31552,380.30,479.48
22.33674,381.78,476.60
22.35607,383.19,479.33
22.37661,381.59,479.74
22.39646,380.78,476.64
22.41709,379.93,477.36
22.43565,381.43,478.73
22.45610,389.74,487.03
22.47719,401.65,498.75
22.49657,425.74,512.11
22.51554,446.79,520.86
22.53694,470.06,529.17
22.55596,487.53,535.34
22.57721,495.55,534.09
22.59727,497.35,532.39
22.61647,495.56,528.97
22.63571,491.77,521.74
22.65656,482.53,517.34
22.67589,471.41,511.03
22.69628,465.58,508.73
22.71680,454.56,501.99
22.73698,449.43,501.25
22.75616,442.41,497.21
22.77542,437.27,492.46
22.79557,431.42,491.72
22.81694,425.15,489.38
22.83548,418.66,486.61
22.85655,414.66,483.75
22.87722,412.05,480.99
22.89635,406.57,482.48
22.91654,401.41,482.18
22.93580,398.18,479.71
22.95608,396.78,478.69
22.97660,395.24,479.16
22.99721,393.18,481.11
23.01608,389.48,480.59
23.03611,388.59,478.56
23.05594,387.86,478.13
23.07663,385.15,478.89
23.09659,384.08,477.62
23.11689,384.33,477.72
23.13725,383.81,479.89
23.15688,383.76,479.06
23.17661,380.07,477.54
23.19680,383.11,476.62
23.21682,382.39,477.48
23.23590,380.75,478.70
23.25656,379.77,477.75
23.27710,379.81,479.17
23.29636,381.42,475.41
23.31558,377.92,477.33
23.33626,378.15,476.09
23.35759,379.68,478.90
23.37692,377.69,478.68
23.39721,379.37,476.56
23.41621,378.93,477.28
23.43574,379.62,475.15
23.45722,376.37,476.06
23.47585,378.94,477.35
23.49640,380.62,480.87
23.51694,386.61,479.63
23.53700,392.80,482.40
23.55570,392.25,479.19
23.57740,392.19,479.48
23.59618,394.19,480.39
23.61722,391.99,477.16
23.63699,392.77,475.85
23.65593,389.62,476.35
23.67672,389.13,478.30
23.69738,388.43,474.93
23.71671,387.42,474.84
23.73583,385.29,476.28
23.75630,383.16,476.40
23.77709,385.41,474.57
23.79639,383.06,475.40
23.81578,380.90,474.97
23.83554,381.82,477.06
23.85593,379.22,473.20
23.87566,382.40,476.10
23.89598,380.70,475.90
23.91665,380.91,474.73
23.93672,378.47,473.45
23.95608,377.93,476.61
23.97612,375.75,474.18
23.99564,377.07,472.96
24.01695,377.04,473.51
24.03608,375.06,474.25
24.05728,373.14,474.15
24.07652,374.84,476.16
24.09710,376.06,475.38
24.11690,373.26,474.96
24.13700,375.73,477.38
24.15649,373.19,476.51
24.17621,376.51,476.15
24.19671,373.82,474.16
24.21552,374.33,477.41
24.23707,378.13,479.20
24.25562,380.71,482.79
24.27560,385.02,483.82
24.29597,385.74,482.27
24.31584,382.89,483.84
24.33641,382.24,485.08
24.35607,385.08,481.65
24.37584,384.77,484.06
24.39720,382.95,481.64
24.41617,382.89,482.48
24.43543,382.19,479.60
24.45552,379.40,481.47
24.47577,379.18,479.96
24.49612,380.77,478.91
24.51609,378.94,476.04
24.53608,376.51,477.96
24.55702,376.33,477.48
24.57671,375.75,474.14
24.59680,377.14,472.05
24.61583,378.52,474.62
24.63627,377.95,473.08
24.65746,375.45,471.29
24.67688,378.02,474.34
24.69598,376.98,473.34
24.71720,377.19,471.66
24.73554,375.65,473.02
24.75710,372.90,472.36
24.77705,376.01,475.09
24.79673,373.95,472.10
24.81675,374.53,474.92
24.83613,373.75,472.45
24.85735,373.38,476.09
24.87715,372.89,475.40
24.89629,374.75,472.88
24.91605,375.33,473.50
24.93568,373.51,472.51
24.95672,373.04,474.42
24.97642,374.22,472.81
24.99681,374.08,474.09
25.01616,376.14,471.57
25.03645,374.68,473.40
25.05569,372.55,472.13
25.07633,372.34,473.90
25.09712,373.36,472.19
25.11712,372.43,474.95
25.13714,372.24,473.92
25.15540,374.38,471.65
25.17666,371.07,470.61
25.19727,372.03,473.30
25.21601,370.50,472.79
25.23559,371.48,472.42
25.25718,372.23,473.24
25.27627,370.99,473.82
25.29595,373.01,476.07
25.31535,371.64,474.14
25.33547,369.23,474.11
25.35715,372.29,475.25
25.37644,371.59,476.41
25.39654,371.26,476.78
25.41565,371.10,476.76
25.43576,369.99,472.03
25.45570,371.99,473.33
25.47676,372.32,475.08
25.49570,369.87,474.26
25.51571,371.05,473.35
25.53578,369.88,473.52
25.55666,369.85,475.75
25.57648,368.42,474.25
25.59664,366.63,474.65
25.61690,369.72,472.69
25.63570,367.53,473.78
25.65648,367.49,473.99
25.67545,367.73,473.07
25.69685,368.77,472.43
25.71550,370.54,472.88
25.73596,367.72,473.07
25.75707,367.60,473.42
25.77562,369.58,472.85
25.79689,368.81,470.26
25.81728,367.49,471.72
25.83702,367.56,470.73
25.85601,367.43,470.32
25.87590,365.80,472.95
25.89615,364.79,472.97
25.91557,356.53,474.03
25.93713,338.42,472.39
25.95661,321.84,475.27
25.97717,301.95,471.95
25.99663,285.29,466.46
26.01723,270.94,456.80
26.03713,258.05,443.92
26.05579,250.40,435.75
26.07568,249.37,428.13
26.09685,250.33,419.57
26.11624,252.12,416.98
26.13576,255.82,416.60
26.15570,265.63,415.75
26.17689,272.25,418.51
26.19681,284.34,422.94
26.21635,290.97,426.15
26.23668,298.76,434.00
26.25591,307.28,439.87
26.27715,311.85,443.15
26.29624,319.76,447.31
26.31728,326.46,449.58
26.33575,328.41,453.11
26.35627,334.05,455.74
26.37710,337.80,459.11
26.39615,342.83,461.95
26.41549,344.87,461.41
26.43634,350.32,464.07
26.45634,353.15,467.87
26.47697,354.65,466.12
26.49613,356.64,467.44
26.51663,359.15,467.76
26.53653,359.66,469.32
26.55721,357.41,468.49
26.57691,359.88,471.13
26.59596,361.65,474.60
26.61553,360.87,471.78
26.63591,361.86,475.07
26.65621,361.36,475.53
26.67598,361.94,476.74
26.69588,361.45,474.92
26.71576,364.79,478.09
26.73598,363.65,478.56
26.75630,364.22,475.82
26.77619,363.50,474.26
26.79652,363.76,475.36
26.81580,362.63,473.88
26.83626,362.83,474.36
26.85673,362.42,471.13
26.87705,363.42,474.45
26.89680,360.12,475.36
26.91600,367.02,481.10
26.93660,382.83,489.59
26.95585,400.69,499.98
26.97742,423.47,512.47
26.99602,443.96,521.36
27.01583,465.25,529.87
27.03739,479.14,528.89
27.05704,483.22,529.53
27.07599,485.45,525.42
27.09621,477.27,522.78
27.11636,475.34,517.70
27.13701,465.75,513.65
27.15708,457.34,506.44
27.17735,448.21,502.36
27.19566,439.35,500.03
27.21655,429.76,495.86
27.23605,419.19,495.87
27.25589,414.57,492.14
27.27614,407.47,490.07
27.29675,401.87,487.57
27.31697,397.88,489.36
27.33711,396.10,492.23
27.35662,396.24,491.95
27.37727,396.33,493.14
27.39600,396.20,492.47
27.41718,393.58,491.07
27.43700,390.71,489.97
27.45569,388.17,489.28
27.47616,385.47,485.62
27.49599,385.21,487.23
27.51551,378.44,482.57
27.53697,376.90,482.77
27.55682,375.44,480.90
27.57565,375.18,480.36
27.59591,372.93,478.64
27.61601,374.84,475.85
27.63638,370.40,477.26
27.65724,370.94,474.59
27.67567,369.74,476.16
27.69666,369.87,477.03
27.71549,367.86,475.55
27.73570,369.51,476.58
27.75727,367.76,478.32
27.77654,368.85,474.86
27.79667,369.16,477.00
27.81644,368.30,475.56
27.83711,367.96,474.69
27.85604,364.87,475.01
27.87655,365.93,473.55
27.89694,362.41,475.54
27.91718,364.01,475.93
27.93642,364.38,475.61
27.95670,364.60,474.82
27.97549,361.71,475.42
27.99579,361.14,473.79
28.01562,360.55,474.47
28.03693,360.60,476.42
28.05714,360.68,474.47
28.07572,361.30,475.43
28.09591,361.20,474.34
28.11644,359.12,475.84
28.13655,361.12,473.02
28.15604,362.47,475.23
28.17726,363.79,473.60
28.19705,364.65,472.48
28.21634,361.32,471.97
28.23637,361.74,475.62
28.25522,364.34,475.01
28.27587,362.28,473.58
28.29715,362.24,474.75
28.31665,361.48,473.78
28.33626,362.90,473.29
28.35584,361.18,471.71
28.37695,359.96,473.88
28.39734,360.84,475.72
28.41601,360.75,478.30
28.43683,363.74,476.68
28.45636,362.17,477.70
28.47587,360.64,477.90
28.49545,361.08,478.22
28.51568,362.39,476.44
28.53544,361.61,478.22
28.55565,364.61,476.52
28.57667,361.32,477.78
28.59671,363.97,475.79
28.61649,361.33,474.71
28.63659,362.37,473.45
28.65583,363.63,473.49
28.67665,362.55,474.61
28.69689,360.92,473.49
28.71680,360.24,473.34
28.73679,360.56,473.75
28.75712,359.54,472.59
28.77586,362.81,474.61
28.79540,362.26,471.36
28.81705,361.76,471.23
28.83696,359.71,472.39
28.85618,362.13,470.87
28.87647,362.43,472.46
28.89731,364.82,471.64
28.91634,363.69,471.49
28.93573,363.30,472.09
28.95589,364.74,470.79
28.97601,362.68,471.67
28.99681,362.89,472.26
29.01689,362.25,472.96
29.03748,363.14,471.86
29.05663,359.87,471.73
29.07707,361.43,469.80
29.09687,360.81,470.21
29.11572,362.18,471.53
29.13621,363.69,472.62
29.15531,361.06,469.49
29.17697,359.67,472.43
29.19673,362.99,470.46
29.21606,360.63,471.19
29.23664,362.98,471.04
29.25640,360.53,471.80
29.27729,359.54,471.43
29.29597,361.93,472.40
29.31561,362.18,469.23
29.33594,360.49,470.53
29.35561,364.15,470.61
29.37715,361.55,471.19
29.39667,360.57,471.50
29.41594,363.41,472.08
29.43692,363.18,472.66
29.45601,362.41,474.46
29.47563,363.45,472.40
29.49656,361.62,476.44
29.51531,362.92,475.64
29.53786,363.93,476.36
29.55804,361.87,475.61
29.57708,361.35,473.97
29.59742,360.89,474.96
29.61839,361.66,472.57
29.63834,364.36,473.15
29.65770,361.61,472.71
29.67822,363.71,472.01
29.69662,364.88,472.67
29.71753,364.14,473.54
29.73807,365.77,475.71
29.75655,364.69,472.41
29.77889,364.98,472.92
29.79910,363.80,472.85
29.81776,366.34,472.38
29.83880,364.20,471.88
29.85836,366.60,471.20
29.87908,364.37,471.99
29.89774,363.97,470.93
29.92010,366.35,471.10
29.93930,367.24,470.66
29.95958,364.97,469.58
29.97918,365.00,473.33
29.99843,367.18,470.84
30.01881,366.74,470.87
30.03879,365.35,471.89
30.06023,368.13,470.00
30.07962,366.95,471.49
30.09902,368.33,469.33
30.11830,369.83,471.64
30.13889,367.35,471.86
30.15982,369.79,472.24
30.17924,370.32,472.56
30.19828,366.99,469.26
30.21850,369.05,472.43
30.23956,369.37,473.81
30.25899,367.85,474.40
30.28097,370.26,471.89
30.30103,369.10,475.56
30.32092,371.19,475.75
30.34022,372.08,473.93
30.36116,374.52,472.91
30.38232,375.68,475.20
30.40079,373.74,475.39
30.42219,374.71,473.41
30.44183,377.13,476.16
30.46224,375.53,474.23
30.48174,375.82,477.83
30.50146,375.25,475.41
30.52060,376.46,473.65
30.54024,377.32,476.14
30.56088,376.67,473.21
30.58100,379.87,474.49
30.60121,377.88,473.25
30.62219,380.14,473.26
30.64218,376.12,473.65
30.66089,366.64,467.84
30.68052,345.99,465.71
30.70114,328.83,465.96
30.72115,309.33,467.40
30.74223,295.34,465.74
30.76191,279.20,461.86
30.78179,269.17,451.77
30.80218,263.48,443.16
30.82190,261.32,437.05
30.84137,260.99,432.17
30.86083,263.86,428.12
30.88133,267.13,422.78
30.90204,274.93,421.44
30.92092,280.89,419.72
30.94136,287.93,419.15
30.96118,296.58,421.75
30.98184,303.04,426.41
31.00108,312.78,429.37
31.02142,318.83,433.45
31.04191,326.52,437.06
31.06186,333.07,442.36
31.08236,336.68,444.94
31.10144,342.40,448.76
31.12057,347.89,451.18
31.14124,352.94,453.25
31.16195,354.44,456.72
31.18077,358.32,459.48
31.20061,361.56,461.80
31.22140,363.32,463.44
31.24062,367.43,461.84
31.26162,367.73,466.76
31.28146,370.43,466.84
31.30099,373.73,468.36
31.32148,373.65,471.15
31.34144,374.65,470.72
31.36214,378.11,470.96
31.38138,378.14,469.86
31.40220,376.65,471.15
31.42157,377.52,470.91
31.44065,379.96,474.02
31.46190,378.98,472.52
31.48213,381.69,473.74
31.50209,380.44,474.10
31.52205,380.40,477.70
31.54221,383.74,481.14
31.56226,391.48,495.81
31.58239,401.24,517.95
31.60189,417.80,545.10
31.62133,436.41,572.97
31.64138,456.10,598.14
31.66193,473.98,611.72
31.68177,492.67,607.44
31.70031,504.02,593.76
31.72140,509.73,575.63
31.74145,514.89,556.65
31.76080,510.85,535.59
31.78155,504.00,514.71
31.80126,493.05,495.22
31.82048,484.41,481.99
31.84115,472.64,472.99
31.86173,464.70,462.51
31.88074,453.60,454.53
31.90068,444.90,451.83
31.92117,435.35,449.37
31.94146,430.78,447.11
31.96127,423.53,446.05
31.98051,419.16,447.76
32.00133,413.12,448.40
32.02090,408.93,451.75
32.04201,405.73,454.32
32.06089,401.02,454.59
32.08240,398.65,458.69
32.10205,398.01,458.59
32.12141,395.52,462.71
32.14136,391.62,465.02
32.16210,391.83,466.93
32.18173,390.10,465.91
32.20141,391.97,467.71
32.22180,388.59,468.87
32.24309,387.40,469.72
32.26170,387.35,470.91
32.28215,388.17,469.96
32.30271,387.23,474.15
32.32211,387.63,475.47
32.34250,385.18,476.40
32.36168,387.52,476.92
32.38121,384.71,476.23
32.40232,383.02,478.28
32.42284,382.29,478.49
32.44411,383.34,477.18
32.46323,379.84,478.90
32.48294,380.23,477.36
32.50383,381.04,476.90
32.52243,380.61,479.88
32.54359,381.36,480.52
32.56340,383.39,478.24
32.58468,380.85,476.73
32.60475,383.53,478.44
32.62524,383.88,475.95
32.64391,380.21,479.18
32.66409,380.60,478.98
32.68355,381.98,478.30
32.70340,383.86,477.22
32.72386,380.58,479.04
32.74436,383.31,476.74
32.76506,381.20,478.21
32.78396,383.83,476.66
32.80407,384.16,478.15
32.82524,381.58,477.70
32.84500,384.25,477.89
32.86428,380.05,480.45
32.88497,380.85,480.34
32.90420,383.36,479.37
32.92529,380.47,477.74
32.94445,379.41,481.69
32.96507,380.51,478.96
32.98426,380.46,477.96
33.00347,380.34,477.51
33.02518,378.20,478.31
33.04410,378.33,480.51
33.06464,377.96,479.29
33.08373,378.54,478.75
33.10439,379.74,478.50
33.12423,376.67,478.78
33.14464,378.47,476.42
33.16377,379.27,478.12
33.18464,377.58,479.22
33.20426,378.58,476.63
33.22433,379.80,478.50
33.24529,379.58,476.78
33.26404,381.04,479.81
33.28398,381.82,479.48
33.30516,380.38,478.09
33.32492,377.30,478.98
33.34422,377.53,476.27
33.36471,378.58,479.44
33.38380,378.77,476.73
33.40457,378.90,477.18
33.42471,377.10,475.05
33.44506,376.07,476.98
33.46480,379.43,476.19
33.48391,376.04,477.48
33.50407,375.48,475.84
33.52352,377.83,476.14
33.54398,376.22,476.64
33.56441,379.20,477.83
33.58480,378.04,476.44
33.60420,376.76,476.12
33.62363,377.54,476.15
33.64447,381.32,479.34
33.66352,377.81,478.90
33.68457,378.77,479.27
33.70528,380.34,476.28
33.72496,381.53,475.01
33.74374,379.53,477.70
33.76402,379.21,478.90
33.78376,377.05,477.26
33.80373,380.29,477.49
33.82382,379.06,477.63
33.84479,377.38,474.35
33.86336,380.10,478.50
33.88418,380.98,477.01
33.90422,376.19,475.69
33.92342,379.61,476.15
33.94388,376.36,477.26
33.96455,375.81,477.33
33.98538,375.47,476.82
34.00387,377.00,476.50
34.02374,377.13,475.27
34.04440,375.93,475.45
34.06385,375.69,475.70
34.08372,377.09,475.46
34.10555,376.42,474.64
34.12550,374.57,477.39
34.14549,376.44,476.71
34.16588,376.71,477.01
34.18542,373.81,477.17
34.20557,373.45,474.24
34.22575,372.12,477.35
34.24478,373.98,477.78
34.26523,374.76,477.72
34.28575,374.04,477.57
34.30436,372.94,475.87
34.32516,371.76,475.63
34.34586,375.16,476.87
34.36477,373.92,474.26
34.38568,370.98,476.91
34.40533,372.96,476.56
34.42605,371.30,473.71
34.44671,371.30,476.24
34.46712,368.96,474.91
34.48647,370.58,475.91
34.50558,367.65,476.55
34.52704,369.63,475.37
34.54645,369.64,473.94
34.56769,366.63,475.44
34.58768,365.65,474.27
34.60696,366.11,475.50
34.62771,366.49,476.97
34.64680,366.45,475.41
34.66752,366.96,474.66
34.68631,365.22,476.46
34.70818,366.25,474.27
34.72756,364.19,474.24
34.74814,363.94,475.62
34.76734,366.08,473.61
34.78802,362.56,476.98
34.80645,363.43,473.84
34.82686,364.19,474.16
34.84802,362.94,474.47
34.86726,363.73,477.57
34.88821,364.52,473.59
34.90712,365.31,477.14
34.92645,366.43,473.69
34.94809,364.08,477.16
34.96696,364.10,478.41
34.98626,363.83,475.80
35.00759,363.87,476.87
35.02724,364.09,478.90
35.04661,366.13,477.64
35.06795,365.98,476.88
35.08713,365.86,476.58
35.10681,364.99,476.39
35.12644,364.73,477.35
35.14690,366.06,473.99
35.16800,365.37,477.63
35.18722,364.98,474.88
35.20731,362.55,474.14
35.22783,364.17,475.36
35.24658,363.32,474.54
35.26615,364.09,476.22
35.28812,363.02,475.80
35.30655,364.16,472.15
35.32729,360.27,474.97
35.34804,362.00,474.42
35.36767,360.85,473.54
35.38711,362.51,473.33
35.40640,360.47,473.94
35.42658,360.13,475.70
35.44735,360.89,476.64
35.46763,359.59,473.94
35.48621,359.99,474.68
35.50745,360.25,472.42
35.52648,360.85,475.23
35.54782,362.87,473.88
35.56687,356.01,472.25
35.58712,343.35,472.79
35.60795,325.52,471.10
35.62634,304.77,471.11
35.64775,286.90,465.76
35.66799,273.83,462.36
35.68799,260.29,456.33
35.70730,255.02,444.98
35.72820,250.44,437.88
35.74714,252.90,431.49
35.76680,257.63,429.76
35.78654,261.96,427.46
35.80758,264.90,429.00
35.82632,273.27,429.79
35.84754,279.13,434.14
35.86676,284.79,434.01
35.88798,292.72,436.49
35.90773,299.57,438.65
35.92737,304.29,440.76
35.94759,311.90,442.21
35.96684,319.65,446.97
35.98761,324.59,448.34
36.00822,327.70,452.15
36.02664,331.24,454.78
36.04697,336.34,455.89
36.06808,339.72,461.85
36.08714,341.75,461.77
36.10775,345.71,464.09
36.12736,347.72,464.68
36.14704,351.12,464.83
36.16613,351.22,465.40
36.18785,355.02,470.56
36.20749,356.15,470.03
36.22768,355.38,471.15
36.24743,356.22,470.47
36.26816,359.14,473.81
36.28639,359.70,476.38
36.30793,359.09,476.82
36.32648,359.96,476.88
36.34688,359.23,476.86
36.36795,357.71,481.63
36.38756,361.41,480.98
36.40808,361.30,478.54
36.42690,362.18,478.23
36.44675,365.35,478.33
36.46801,363.47,475.21
36.48656,363.75,474.82
36.50706,366.29,475.50
36.52763,365.16,473.61
36.54709,364.82,476.03
36.56617,369.94,478.67
36.58641,382.27,488.70
36.60785,400.71,499.41
36.62692,422.46,509.88
36.64740,445.97,519.69
36.66642,470.40,528.41
36.68783,485.57,530.12
36.70743,488.68,533.03
36.72724,490.12,527.94
36.74837,482.62,522.36
36.76729,475.62,516.38
36.78787,466.74,511.92
36.80821,455.62,505.09
36.82887,445.57,497.91
36.84815,435.98,496.73
36.86898,429.84,493.38
36.88732,428.06,490.75
36.90797,424.31,491.36
36.92846,418.94,491.40
36.94725,414.38,489.40
36.96781,407.50,486.50
36.98833,401.66,488.17
37.00826,397.48,484.01
37.02783,396.02,482.42
37.04852,392.82,483.15
37.06907,388.63,482.01
37.08814,387.21,482.90
37.10766,382.06,478.02
37.12789,380.51,480.25
37.14780,376.02,479.21
37.16860,373.42,478.55
37.18782,374.49,477.24
37.20886,371.97,477.62
37.22768,368.84,475.96
37.24854,368.80,475.62
37.26879,370.23,476.73
37.28847,368.04,473.66
37.30831,366.94,476.53
37.32861,365.18,476.61
37.34730,366.49,475.13
37.36886,365.43,474.22
37.38848,369.73,473.23
37.40907,368.30,474.23
37.42714,368.70,473.84
37.44803,365.18,474.79
37.46824,362.92,472.43
37.48764,365.04,474.26
37.50793,360.66,473.88
37.52913,361.36,476.25
37.54884,362.97,474.17
37.56785,361.19,476.56
37.58840,360.98,474.10
37.60800,362.04,473.73
37.62792,362.52,474.40
37.64832,362.18,476.94
37.66722,364.14,475.54
37.68846,363.86,477.64
37.70845,363.05,476.49
37.72904,362.12,476.11
37.74873,362.58,477.38
37.76807,366.32,475.61
37.78856,365.08,478.81
37.80790,368.07,479.78
37.82837,364.53,485.51
37.84721,365.29,483.42
37.86741,365.24,483.19
37.88779,365.02,484.13
37.90825,366.42,481.64
37.92801,368.10,481.27
37.94756,366.68,480.88
37.96873,365.20,479.95
37.98828,365.94,479.35
38.00895,365.10,480.01
38.02797,364.47,477.58
38.04808,364.05,477.55
38.06721,364.74,477.93
38.08919,364.18,477.73
38.10867,364.35,476.68
38.12777,367.94,477.32
38.14732,366.69,477.37
38.16818,364.48,475.88
38.18889,365.87,474.20
38.20815,367.96,473.44
38.22841,364.56,474.45
38.24758,367.88,476.92
38.26885,368.10,474.16
38.28734,365.77,476.28
38.30858,366.09,475.79
38.32780,364.49,475.65
38.34791,365.65,474.24
38.36862,364.50,475.30
38.38738,366.33,473.99
38.40818,367.42,473.16
38.42836,366.33,474.50
38.44868,366.23,473.95
38.46855,365.39,474.35
38.48784,366.15,474.49
38.50754,365.17,473.60
38.52775,364.02,475.24
38.54730,365.48,473.07
38.56842,362.76,475.63
38.58780,364.74,474.59
38.60825,362.85,477.06
38.62825,364.18,475.66
38.64838,365.77,475.13
38.66759,365.54,474.97
38.68872,365.99,474.42
38.70824,366.03,477.27
38.72770,367.21,476.52
38.74791,365.95,476.00
38.76870,367.85,476.93
38.78867,369.94,479.27
38.80747,370.22,477.42
38.82869,370.51,477.72
38.84900,366.23,475.31
38.86871,368.77,475.00
38.88738,365.35,474.38
38.90769,366.35,473.63
38.92889,366.88,474.08
38.94847,366.92,477.15
38.96824,366.35,476.84
38.98900,367.39,476.11
39.00834,365.95,476.06
39.02850,367.02,475.97
39.04836,365.32,476.57
39.06824,365.70,475.80
39.08816,364.43,474.76
39.10734,366.70,473.13
39.12788,366.70,474.17
39.14727,367.25,475.64
39.16908,368.00,475.75
39.18730,368.67,474.75
39.20744,367.09,475.09
39.22844,366.62,474.82
39.24883,366.41,477.10
39.26874,367.33,476.66
39.28749,365.97,478.20
39.30759,367.42,479.81
39.32796,366.05,479.90
39.34868,366.94,477.58
39.36900,367.89,479.98
39.38751,367.76,480.42
39.40874,369.15,480.66
39.42828,367.19,479.44
39.44760,368.25,478.55
39.46874,367.88,475.71
39.48874,368.24,475.42
39.50827,367.22,475.75
39.52848,368.15,476.74
39.54757,367.57,476.12
39.56875,369.95,476.49
39.58840,367.81,474.87
39.60813,369.70,476.29
39.62884,369.47,477.51
39.64914,369.08,473.21
39.66754,370.08,473.07
39.68829,367.40,474.85
39.70736,368.27,473.52
39.72880,367.75,475.11
39.74801,370.11,474.42
39.76886,368.16,475.37
39.78861,369.48,471.79
39.80767,370.67,471.28
39.82756,368.27,473.29
39.84728,370.56,471.39
39.86806,368.47,472.45
39.88916,371.78,473.95
39.90892,367.94,470.31
39.92776,367.93,470.66
39.94806,359.97,470.66
39.96841,345.91,473.06
39.98729,328.02,473.56
40.00815,309.51,469.93
40.02827,291.55,469.20
40.04831,278.23,462.19
40.06890,265.27,453.88
40.08919,257.45,446.93
40.10817,252.42,438.77
40.12725,251.38,430.71
40.14830,252.87,428.68
40.16771,259.66,424.86
40.18716,261.30,427.06
40.20738,268.52,426.19
40.22802,275.33,429.82
40.24819,285.88,432.34
40.26807,291.40,437.83
40.28792,301.68,439.63
40.30875,308.28,441.79
40.32874,314.17,446.73
40.34722,323.27,453.15
40.36889,327.76,454.37
40.38841,332.60,457.10
40.40834,338.49,459.06
40.42857,343.36,462.02
40.44857,346.77,465.12
40.46772,348.58,466.79
40.48712,354.82,466.96
40.50860,356.14,467.50
40.52745,358.98,471.88
40.54764,361.84,472.85
40.56713,361.70,471.89
40.58706,362.99,475.37
40.60793,364.06,476.09
40.62919,363.81,478.25
40.64865,368.28,477.23
40.66877,370.37,477.31
40.68916,367.08,479.08
40.70821,370.61,477.42
40.72948,369.34,480.04
40.74915,372.40,478.93
40.76994,372.15,479.09
40.78820,373.78,477.23
40.80962,374.48,476.56
40.82860,375.86,475.60
40.84853,375.63,475.66
40.86873,374.18,477.86
40.88829,382.41,484.53
40.90902,395.93,493.71
40.93003,417.27,504.41
40.94842,440.02,516.97
40.96853,461.93,522.28
40.98969,486.84,528.62
41.00926,504.87,532.13
41.02803,511.64,529.46
41.05008,508.52,525.45
41.06863,506.29,522.00
41.08801,497.78,514.19
41.10882,487.42,509.47
41.12903,475.80,508.06
41.14902,467.04,500.71
41.16849,459.26,500.51
41.18874,454.14,496.88
41.20936,447.53,494.56
41.22829,443.43,489.62
41.24844,435.33,487.83
41.26955,430.51,486.24
41.28948,422.71,485.83
41.30997,418.10,485.20
41.32956,413.80,482.76
41.35027,408.75,481.41
41.36942,404.51,480.73
41.38933,402.19,479.51
41.41035,398.35,480.17
41.42938,396.34,477.54
41.45080,393.80,477.28
41.46954,393.84,478.49
41.48991,392.38,477.27
41.50983,393.08,477.89
41.53009,390.91,477.13
41.55013,387.53,478.09
41.57142,389.51,477.10
41.59000,387.68,475.35
41.61210,386.42,477.50
41.63166,384.72,478.02
41.65172,384.09,478.81
41.67066,385.47,476.49
41.69170,384.24,476.65
41.71067,384.48,477.42
41.73185,380.66,481.11
41.75053,381.59,480.19
41.77034,381.96,480.81
41.79144,383.82,480.65
41.81101,385.18,480.90
41.83184,384.53,481.62
41.85142,380.98,484.22
41.87165,381.82,482.32
41.89049,382.86,484.84
41.91023,385.78,484.07
41.93188,386.07,483.98
41.95071,385.14,484.90
41.97123,385.67,481.49
41.99035,385.45,481.90
42.01044,382.47,480.17
42.03196,384.29,481.04
42.05056,383.59,478.51
42.07081,385.32,478.06
42.09058,383.02,480.17
42.11130,383.48,481.12
42.13046,382.73,478.84
42.15091,384.20,476.81
42.17117,383.42,477.12
42.19054,381.67,476.92
42.21151,381.81,476.38
42.23077,384.93,475.33
42.25021,382.88,478.48
42.27210,383.50,478.18
42.29040,382.98,475.49
42.31061,380.51,475.43
42.33098,381.62,475.86
42.35151,382.42,478.02
42.37170,379.36,474.98
42.39084,382.45,475.66
42.41023,381.76,477.96
42.43133,382.87,478.92
42.45199,381.35,480.58
42.47161,381.27,478.22
42.49030,383.55,476.71
42.51187,384.52,478.28
42.53087,383.72,477.32
42.55060,383.63,478.94
42.57119,382.60,478.80
42.59174,380.76,479.60
42.61103,381.81,479.03
42.63142,383.85,476.42
42.65060,381.69,476.20
42.67154,381.72,477.82
42.69053,383.74,477.55
42.71104,383.76,478.86
42.73133,382.72,475.71
42.75141,383.65,474.45
42.77180,384.23,476.16
42.79091,384.87,476.66
42.81202,382.97,474.84
42.83166,381.03,476.15
42.85122,381.40,478.00
42.87056,384.58,480.04
42.89041,385.84,489.70
42.91084,386.98,507.52
42.93165,390.79,530.57
42.95177,392.07,542.70
42.97060,393.18,545.65
42.99115,392.05,543.91
43.01055,389.51,541.25
43.03082,388.43,540.77
43.05125,388.55,544.93
43.07094,388.31,552.18
43.09067,387.23,560.96
43.11209,387.92,560.34
43.12991,388.21,555.99
43.15195,386.63,545.46
43.17113,389.30,531.08
43.19205,385.87,512.74
43.21165,383.55,496.06
43.23183,382.59,481.72
43.25026,380.03,469.44
43.27049,377.25,455.16
43.29111,378.93,449.22
43.31056,375.35,442.78
43.33142,373.66,437.31
43.35129,374.11,435.93
43.37089,374.84,435.61
43.39078,375.29,434.92
43.41076,374.17,436.68
43.43085,377.55,439.01
43.45180,385.17,450.96
43.47045,396.53,462.92
43.49021,411.80,473.64
43.51063,427.91,482.92
43.53129,431.74,485.21
43.55018,431.47,486.67
43.57056,430.66,485.10
43.59095,427.58,481.89
43.61185,422.35,480.38
43.63164,421.46,481.95
43.65042,415.44,479.64
43.67114,415.73,481.63
43.69115,418.34,482.98
43.71074,416.81,481.43
43.73052,414.19,481.34
