Program Time [s],data 0,data 1
86.27353,361.21,474.06
86.29223,359.18,475.19
86.31410,359.81,472.97
86.33430,357.63,473.16
86.35413,354.77,471.66
86.37453,356.25,467.86
86.39313,355.92,467.07
86.41291,358.28,468.65
86.43306,359.87,464.45
86.45432,362.64,465.30
86.47418,362.69,467.49
86.49376,363.28,466.67
86.51386,363.88,469.84
86.53311,363.30,469.36
86.55342,358.64,469.70
86.57489,360.93,469.76
86.59384,359.80,469.93
86.61325,363.33,471.17
86.63283,360.94,469.59
86.65476,359.81,472.48
86.67450,358.83,472.67
86.69359,360.96,484.80
86.71378,362.74,500.77
86.73445,364.33,525.19
86.75339,365.68,554.74
86.77461,365.83,571.13
86.79398,362.77,568.27
86.81349,364.03,554.98
86.83370,359.14,538.85
86.85425,359.07,514.57
86.87323,356.20,498.83
86.89372,350.17,481.80
86.91476,350.24,467.17
86.93397,348.43,454.60
86.95336,347.56,445.23
86.97341,346.90,438.28
86.99375,342.44,431.81
87.01420,343.53,432.25
87.03343,343.17,428.05
87.05459,346.52,427.54
87.07474,346.68,429.79
87.09566,350.25,430.71
87.11410,350.24,432.37
87.13661,350.13,431.38
87.15631,354.70,433.97
87.17678,354.60,440.40
87.19606,356.78,441.94
87.21518,359.76,448.43
87.23628,360.49,451.27
87.25678,360.20,455.32
87.27651,363.96,458.14
87.29689,362.54,457.51
87.31660,359.21,461.17
87.33583,361.32,461.75
87.35530,364.64,465.12
87.37611,362.69,467.13
87.39497,362.88,467.54
87.41578,365.65,471.85
87.43530,365.89,471.73
87.45546,367.75,470.72
87.47531,364.20,475.24
87.49594,366.31,471.70
87.51537,367.59,475.79
87.53600,366.05,473.96
87.55495,366.01,474.28
87.57542,367.37,475.93
87.59523,370.17,477.28
87.61520,368.54,478.02
87.63537,366.51,480.54
87.65671,359.64,480.00
87.67587,357.12,475.50
87.69599,350.55,473.37
87.71530,347.99,474.39
87.73549,347.42,472.61
87.75515,348.43,473.95
87.77474,350.97,472.75
87.79695,351.21,471.15
87.81535,352.56,468.15
87.83629,353.70,470.41
87.85557,353.67,470.27
87.87600,358.73,470.39
87.89553,357.42,466.40
87.91635,356.47,466.46
87.93581,357.64,466.43
87.95673,357.13,465.79
87.97561,357.05,467.21
87.99668,359.94,470.53
88.01659,360.95,469.97
88.03652,357.92,470.42
88.05554,357.52,469.10
88.07564,356.68,471.93
88.09592,358.35,471.42
88.11497,357.32,476.51
88.13636,361.20,484.03
88.15529,363.40,484.01
88.17662,361.48,487.69
88.19556,362.54,489.66
88.21594,364.96,489.16
88.23534,367.37,484.03
88.25539,367.86,482.69
88.27585,366.75,482.98
88.29544,368.50,480.33
88.31628,366.44,481.06
88.33634,368.55,478.30
88.35619,367.99,478.34
88.37527,367.66,479.47
88.39577,366.61,474.76
88.41545,366.07,475.91
88.43632,370.43,471.46
88.45527,368.91,471.14
88.47508,372.05,468.50
88.49636,372.02,465.94
88.51489,373.02,469.03
88.53548,370.72,466.26
88.55553,371.27,461.64
88.57680,368.97,461.27
88.59550,369.75,458.40
88.61592,368.34,460.40
88.63680,366.07,459.74
88.65570,369.73,460.70
88.67677,368.68,461.87
88.69592,368.71,463.64
88.71535,369.12,468.72
88.73496,369.21,470.60
88.75503,368.49,469.86
88.77634,365.36,469.28
88.79504,368.42,469.29
88.81527,368.95,469.86
88.83614,369.11,468.82
88.85659,370.21,471.07
88.87638,371.18,468.51
88.89598,372.32,469.54
88.91657,373.03,474.34
88.93610,371.49,474.59
88.95673,371.92,477.98
88.97537,372.20,476.16
88.99609,373.00,476.13
89.01645,373.34,476.51
89.03615,374.76,476.29
89.05639,382.63,480.15
89.07531,388.18,477.31
89.09534,390.79,478.74
89.11503,392.89,476.13
89.13529,394.34,475.52
89.15630,392.76,474.32
89.17599,391.48,475.17
89.19577,389.96,472.59
89.21598,389.17,470.84
89.23576,387.37,469.55
89.25551,383.76,468.84
89.27482,383.33,469.43
89.29668,383.54,469.14
89.31503,380.89,470.67
89.33553,377.92,468.66
89.35568,375.84,470.73
89.37538,375.74,469.52
89.39533,373.66,469.66
89.41511,375.56,471.09
89.43578,378.59,469.27
89.45624,376.36,469.41
89.47606,375.40,472.39
89.49626,375.11,469.73
89.51610,376.52,471.10
89.53589,373.51,469.68
89.55641,373.26,471.79
89.57659,374.15,471.37
89.59507,375.48,472.26
89.61523,375.79,471.55
89.63611,375.93,471.89
89.65525,373.88,474.91
89.67516,377.70,474.84
89.69633,376.67,472.50
89.71540,374.22,472.41
89.73583,373.92,468.28
89.75581,372.95,470.11
89.77645,372.75,467.91
89.79549,372.13,466.69
89.81569,372.06,467.76
89.83574,376.25,469.06
89.85598,374.01,467.04
89.87592,375.86,467.48
89.89688,376.80,467.65
89.91519,375.90,469.53
89.93675,378.00,466.06
89.95659,378.01,466.54
89.97610,374.55,468.31
89.99558,375.76,469.05
90.01502,376.49,471.96
90.03657,369.41,470.19
90.05506,355.29,469.01
90.07580,336.22,464.81
90.09686,312.56,456.24
90.11672,295.60,451.93
90.13526,276.46,442.34
90.15668,266.57,436.89
90.17564,257.12,428.93
90.19567,254.15,427.22
90.21564,253.54,423.70
90.23646,259.83,423.08
90.25650,262.85,423.85
90.27515,270.14,427.52
90.29620,274.59,428.61
90.31678,283.73,429.39
90.33668,291.96,434.61
90.35542,301.09,436.08
90.37554,309.28,440.00
90.39579,315.95,446.21
90.41654,322.25,449.67
90.43522,328.42,450.48
90.45551,335.53,454.67
90.47634,342.16,455.43
90.49493,346.72,457.28
90.51587,350.23,459.54
90.53564,354.00,463.44
90.55665,357.96,462.99
90.57591,358.26,464.08
90.59607,363.35,464.88
90.61561,365.76,467.10
90.63552,366.32,469.55
90.65667,366.87,469.18
90.67578,366.10,470.25
90.69497,368.52,469.06
90.71492,371.79,470.83
90.73562,370.47,472.67
90.75616,373.72,469.44
90.77507,373.08,472.55
90.79485,377.66,472.22
90.81645,375.64,471.53
90.83499,378.63,472.27
90.85659,378.71,473.32
90.87677,390.33,477.94
90.89623,410.84,486.98
90.91482,433.77,493.06
90.93528,465.71,504.37
90.95611,492.79,508.31
90.97595,514.76,512.32
90.99587,528.20,513.66
91.01554,529.55,512.08
91.03593,523.96,513.11
91.05484,517.63,508.26
91.07604,506.08,506.29
91.09527,493.04,501.81
91.11632,480.07,497.51
91.13509,467.23,493.88
91.15504,456.95,490.84
91.17600,446.97,485.17
91.19545,435.10,481.98
91.21650,428.34,483.38
91.23605,423.12,480.85
91.25507,413.04,479.46
91.27576,407.22,476.18
91.29725,405.02,477.60
91.31717,400.09,477.31
91.33782,398.51,477.46
91.35598,397.18,478.71
91.37669,391.12,478.14
91.39622,388.45,473.95
91.41764,386.76,475.52
91.43665,385.65,474.16
91.45729,384.28,474.20
91.47731,385.72,474.95
91.49613,384.00,473.49
91.51631,382.12,471.38
91.53778,379.21,474.06
91.55841,379.38,473.97
91.57774,379.81,476.28
91.59827,380.71,474.26
91.61861,379.30,474.57
91.63837,377.70,475.75
91.65848,378.80,475.22
91.67927,379.23,476.01
91.69965,377.63,474.72
91.71892,377.17,471.99
91.73791,376.58,471.30
91.75879,378.45,474.67
91.77979,375.66,472.12
91.79791,378.55,472.90
91.81957,375.04,472.26
91.83826,373.86,474.45
91.85888,374.53,475.15
91.87830,377.33,473.14
91.89830,376.99,475.81
91.91872,374.49,474.03
91.93823,377.47,472.07
91.95859,374.76,474.69
91.97858,376.02,473.86
91.99830,375.59,473.30
92.01864,373.74,470.53
92.03810,375.74,470.16
92.05901,374.08,471.62
92.07883,376.73,473.45
92.09824,377.70,472.78
92.12049,373.93,472.87
92.13952,376.35,472.94
92.16068,374.38,474.18
92.18058,372.09,471.87
92.19995,372.69,474.42
92.22008,374.39,475.43
92.23982,372.08,472.44
92.25926,372.29,472.48
92.27884,370.31,473.57
92.29998,370.57,475.86
92.32013,373.32,477.82
92.33959,375.91,475.84
92.35882,374.39,474.50
92.37942,375.09,476.65
92.40055,372.45,477.14
92.42108,372.24,475.28
92.44038,371.25,475.26
92.46177,370.02,476.74
92.48126,370.10,475.28
92.50157,370.88,472.91
92.52122,367.89,472.12
92.54141,367.42,473.80
92.56029,366.11,471.17
92.58050,367.45,471.23
92.60157,366.64,472.85
92.62116,367.39,473.42
92.64015,365.28,471.18
92.66039,366.49,474.70
92.68022,366.05,474.24
92.70023,368.11,474.43
92.72126,366.36,471.22
92.74068,364.29,472.76
92.75975,364.17,474.84
92.78096,363.64,472.83
92.80140,366.02,475.08
92.82005,363.77,473.27
92.84168,364.95,473.63
92.85991,365.66,472.68
92.88026,364.64,473.92
92.90047,364.93,474.34
92.92006,364.44,472.16
92.94063,364.40,474.34
92.96125,365.03,474.35
92.98150,363.46,474.51
93.00012,363.17,474.76
93.02007,361.00,472.48
93.04002,362.68,470.25
93.05987,364.02,470.46
93.08135,362.42,470.68
93.10122,365.41,468.68
93.12179,366.60,468.65
93.14027,369.75,467.89
93.16050,369.04,469.12
93.18181,365.26,467.59
93.19968,367.85,468.88
93.22167,366.37,470.26
93.24073,365.01,469.75
93.26016,364.17,469.40
93.28137,365.78,469.24
93.30093,362.94,471.99
93.32103,366.26,472.01
93.34105,364.56,473.72
93.36014,365.93,471.33
93.38181,365.87,469.34
93.40109,364.26,471.20
93.42178,364.53,469.44
93.44027,364.95,470.31
93.46006,362.22,470.84
93.48112,362.78,470.45
93.50052,363.60,470.93
93.52148,363.34,472.89
93.54007,362.45,470.11
93.56122,364.20,473.20
93.58015,363.20,475.31
93.60169,363.46,472.84
93.62063,361.68,472.20
93.64127,361.06,471.68
93.65988,363.24,474.02
93.68070,362.45,473.29
93.70122,362.19,472.07
93.72174,362.70,471.58
93.74100,361.14,470.54
93.76118,362.21,467.76
93.77997,362.81,466.82
93.80042,361.03,465.03
93.81993,361.20,465.89
93.84039,360.60,465.11
93.86029,362.08,464.01
93.88048,354.28,465.38
93.90140,339.13,464.21
93.92117,322.78,459.75
93.94017,303.72,455.34
93.95980,289.12,455.49
93.97980,274.78,451.31
94.00048,263.59,445.40
94.02083,252.50,441.94
94.03987,250.55,438.47
94.06102,247.30,435.24
94.08059,249.30,433.40
94.10049,253.06,430.44
94.12058,260.20,434.23
94.14043,265.51,432.38
94.15995,273.47,437.12
94.18118,279.33,438.94
94.20149,289.48,442.70
94.21975,295.51,443.01
94.24140,304.25,447.71
94.26251,310.26,446.47
94.28082,318.26,450.38
94.30154,323.32,453.49
94.32229,326.99,453.99
94.34205,331.12,458.89
94.36125,336.25,462.06
94.38168,337.60,461.30
94.40327,341.03,461.19
94.42271,342.26,462.03
94.44223,345.32,463.27
94.46362,349.31,465.90
94.48200,351.91,466.26
94.50241,351.35,466.14
94.52268,354.04,469.26
94.54472,352.35,468.57
94.56449,355.64,468.32
94.58469,355.21,468.83
94.60362,357.91,473.15
94.62438,358.70,471.48
94.64343,359.99,472.79
94.66314,360.50,473.39
94.68330,363.97,476.38
94.70441,369.38,478.36
94.72311,379.60,480.31
94.74389,395.10,484.99
94.76267,415.44,491.86
94.78426,437.99,496.47
94.80437,457.79,505.36
94.82310,477.33,509.75
94.84329,487.78,512.74
94.86354,491.25,512.12
94.88466,487.60,510.88
94.90332,478.42,508.83
94.92318,470.22,502.61
94.94360,462.95,501.18
94.96328,450.45,496.11
94.98392,444.38,494.20
95.00281,435.47,491.55
95.02364,426.84,487.57
95.04312,418.37,483.42
95.06362,410.11,480.01
95.08391,406.63,480.04
95.10346,398.86,478.27
95.12465,395.41,477.22
95.14326,390.33,473.21
95.16353,387.55,471.10
95.18311,382.15,470.31
95.20379,379.90,472.83
95.22408,376.19,472.69
95.24271,375.48,470.20
95.26384,371.64,470.94
95.28484,372.84,472.24
95.30555,370.70,470.32
95.32437,369.71,472.86
95.34576,369.74,473.49
95.36536,367.95,474.65
95.38429,370.78,474.32
95.40456,367.06,471.27
95.42545,367.34,473.45
95.44474,366.84,471.15
95.46449,365.47,473.77
95.48455,367.85,471.45
95.50572,367.30,474.02
95.52400,366.43,470.51
95.54551,365.21,472.76
95.56546,364.20,472.01
95.58454,366.15,472.48
95.60456,367.98,472.32
95.62516,366.99,473.95
95.64422,369.45,471.91
95.66509,369.89,472.71
95.68555,369.77,472.59
95.70538,367.33,474.19
95.72504,370.16,472.58
95.74472,368.57,470.67
95.76486,368.62,472.39
95.78437,367.33,472.34
95.80554,366.64,471.98
95.82519,366.09,472.03
95.84412,366.71,474.59
95.86452,367.73,471.51
95.88453,366.56,473.50
95.90421,366.54,474.86
95.92524,368.60,472.49
95.94463,369.13,474.23
95.96400,371.21,472.10
95.98410,370.08,475.65
96.00385,369.22,473.48
96.02461,371.47,473.89
96.04527,371.04,474.19
96.06428,369.12,470.94
96.08493,370.23,471.31
96.10390,368.30,472.95
96.12402,369.48,470.41
96.14455,368.68,471.72
96.16370,366.75,469.82
96.18415,366.73,472.01
96.20533,367.00,470.93
96.22450,365.96,472.65
96.24505,365.93,470.15
96.26386,367.38,471.72
96.28515,368.19,470.41
96.30484,366.72,471.12
96.32397,365.86,468.91
96.34376,365.77,469.55
96.36557,365.25,470.91
96.38413,366.14,472.12
96.40558,366.48,470.30
96.42539,367.43,469.09
96.44357,369.95,469.21
96.46489,369.69,470.81
96.48413,371.20,473.56
96.50373,369.70,471.66
96.52535,368.74,470.33
96.54480,370.27,473.74
96.56513,368.47,471.07
96.58563,369.55,471.40
96.60431,372.40,469.94
96.62489,371.95,473.68
96.64495,369.06,473.16
96.66397,371.00,470.48
96.68516,368.59,470.91
96.70474,369.36,473.06
96.72522,369.23,471.28
96.74479,372.14,474.04
96.76503,369.51,474.55
96.78563,370.97,473.98
96.80454,369.78,472.01
96.82460,367.97,473.86
96.84370,370.57,472.92
96.86544,369.64,470.87
96.88394,370.94,472.70
96.90410,371.64,472.13
96.92426,372.40,473.26
96.94429,372.58,469.45
96.96484,373.46,469.82
96.98473,371.37,470.21
97.00489,372.75,470.73
97.02551,369.85,470.18
97.04445,372.04,471.92
97.06546,372.03,470.59
97.08396,370.49,470.46
97.10552,370.49,471.21
97.12477,372.98,471.33
97.14410,374.18,473.61
97.16411,371.27,472.87
97.18549,372.28,472.37
97.20418,374.92,469.77
97.22414,371.59,472.88
97.24484,376.43,470.02
97.26541,373.88,473.00
97.28584,375.38,469.27
97.30447,377.15,473.12
97.32487,376.33,471.52
97.34437,377.68,473.44
97.36420,372.81,471.19
97.38527,375.28,472.26
97.40566,373.74,471.39
97.42447,372.44,471.00
97.44471,372.21,471.18
97.46436,373.16,473.86
97.48445,374.70,472.03
97.50442,374.79,472.76
97.52374,374.55,473.95
97.54408,375.18,472.65
97.56487,376.20,471.16
97.58480,375.56,472.77
97.60417,373.55,472.39
97.62613,375.15,470.61
97.64481,374.76,471.10
97.66559,378.12,472.14
97.68535,377.53,472.62
97.70613,379.55,471.81
97.72581,378.92,472.73
97.74679,380.32,472.15
97.76582,378.89,474.13
97.78514,378.77,472.19
97.80505,376.34,472.33
97.82638,377.30,473.84
97.84582,377.83,474.89
97.86539,377.09,474.13
97.88708,377.46,474.16
97.90701,376.86,474.04
97.92686,376.51,472.31
97.94757,376.84,473.59
97.96719,378.53,472.61
97.98573,375.42,472.63
98.00611,378.78,472.46
98.02596,380.05,471.54
98.04715,377.55,471.93
98.06590,376.51,472.70
98.08703,365.96,476.57
98.10589,348.80,474.24
98.12706,331.50,476.37
98.14701,308.05,475.79
98.16629,292.26,473.15
98.18637,278.24,465.01
98.20678,269.06,457.85
98.22700,265.09,446.76
98.24672,264.47,442.47
98.26695,267.81,436.28
98.28562,271.04,433.70
98.30701,278.29,436.08
98.32701,283.62,435.87
98.34585,289.11,433.03
98.36667,298.97,436.29
98.38675,305.56,437.43
98.40700,315.53,439.42
98.42738,324.32,443.15
98.44761,329.25,447.14
98.46637,336.04,451.19
98.48577,340.86,453.50
98.50766,345.19,455.39
98.52640,349.37,456.73
98.54755,353.20,459.87
98.56746,357.65,461.59
98.58592,359.36,461.05
98.60713,365.39,464.81
98.62584,365.06,463.57
98.64709,367.39,465.73
98.66677,369.55,467.72
98.68640,371.27,468.81
98.70695,370.43,467.22
98.72679,373.87,471.16
98.74566,371.95,470.88
98.76622,376.08,469.53
98.78580,375.63,470.02
98.80754,375.70,472.11
98.82597,378.69,470.95
98.84758,381.13,473.30
98.86617,393.73,479.17
98.88623,411.02,484.26
98.90574,434.19,491.37
98.92669,456.95,495.81
98.94678,477.98,497.85
98.96658,495.30,505.97
98.98706,505.29,508.98
99.00736,508.78,510.86
99.02592,506.65,507.01
99.04588,501.64,505.17
99.06707,490.48,500.04
99.08738,483.30,497.14
99.10647,472.93,494.87
99.12667,461.95,490.15
99.14726,449.27,487.85
99.16724,442.98,484.61
99.18717,436.11,484.21
99.20686,425.36,481.64
99.22702,420.83,479.87
99.24728,416.08,478.87
99.26598,408.93,478.78
99.28666,404.86,476.64
99.30737,402.10,476.66
99.32669,398.92,478.13
99.34652,392.84,476.13
99.36573,390.31,476.96
99.38737,389.43,477.82
99.40585,386.56,476.32
99.42715,387.16,475.59
99.44702,384.65,477.46
99.46715,383.26,478.63
99.48606,379.86,476.77
99.50685,380.67,478.53
99.52726,379.85,477.14
99.54603,380.48,476.57
99.56689,378.87,474.53
99.58607,380.53,477.13
99.60673,379.00,478.49
99.62758,376.71,478.86
99.64624,379.75,475.16
99.66553,378.88,475.47
99.68656,378.54,477.71
99.70561,379.34,477.42
99.72710,376.18,474.80
99.74673,375.35,475.07
99.76737,378.86,473.58
99.78694,377.32,474.62
99.80720,378.02,477.57
99.82696,377.04,476.69
99.84625,377.18,476.19
99.86691,377.54,473.63
99.88602,380.71,473.60
99.90638,378.37,474.48
99.92714,379.81,475.62
99.94764,379.73,473.25
99.96584,378.52,474.97
99.98694,377.43,473.90
100.00800,376.99,475.52
100.02741,376.55,474.88
100.04669,380.00,476.38
100.06652,377.71,473.74
100.08780,379.42,475.58
100.10730,379.03,472.87
100.12677,377.83,475.75
100.14794,376.22,475.39
100.16510,377.58,473.10
100.18755,374.62,475.17
100.20607,374.48,473.88
100.22681,374.17,472.24
100.24738,373.85,474.85
100.26744,376.45,473.06
100.28737,376.11,472.04
100.30632,376.48,473.89
100.32759,375.35,472.57
100.34655,378.46,472.65
100.36662,374.66,472.23
100.38626,377.92,469.73
100.40760,378.04,469.81
100.42679,377.57,472.17
100.44788,374.98,469.81
100.46632,377.17,472.10
100.48726,374.60,471.93
100.50769,373.97,473.53
100.52687,376.15,472.07
100.54669,374.38,470.95
100.56738,374.67,470.45
100.58742,372.31,473.63
100.60748,372.31,471.37
100.62687,371.76,471.16
100.64747,370.44,471.07
100.66750,369.43,470.84
100.68691,369.02,470.74
100.70790,369.77,470.46
100.72739,370.05,472.34
100.74793,369.70,469.12
100.76816,366.70,470.38
100.78770,367.32,470.72
100.80799,367.60,470.38
100.82714,367.38,469.86
100.84752,366.06,470.85
100.86725,366.27,472.38
100.88867,366.08,468.26
100.90735,365.59,471.43
100.92817,367.69,468.60
100.94832,368.02,469.60
100.96711,365.71,471.97
100.98783,366.64,469.82
101.00805,365.80,471.15
101.02788,369.16,471.12
101.04828,369.22,470.90
101.06616,365.68,473.60
101.08765,369.87,472.65
101.10742,368.96,471.18
101.12758,370.15,470.45
101.14732,368.77,472.31
101.16844,368.86,471.29
101.18896,365.36,473.82
101.20740,369.27,474.54
101.22841,370.06,472.29
101.24712,369.20,474.23
101.26781,366.57,471.93
101.28709,365.91,471.76
101.30894,366.10,471.65
101.32891,366.36,473.82
101.34890,368.52,471.98
101.36810,364.70,471.69
101.38708,366.66,472.53
101.40753,365.87,469.99
101.42795,369.35,470.54
101.44773,369.44,471.65
101.46776,366.14,470.56
101.48708,367.91,470.74
101.50744,367.37,469.78
101.52720,368.94,469.10
101.54742,366.16,467.86
101.56825,367.83,468.37
101.58848,369.71,470.90
101.60847,371.43,468.87
101.62711,368.55,470.45
101.64842,369.78,472.63
101.66602,369.59,472.44
101.68720,369.88,470.76
101.70666,369.64,472.75
101.72859,367.74,470.10
101.74702,369.42,470.72
101.76844,369.20,473.06
101.78819,365.45,472.75
101.80792,368.43,471.88
101.82845,367.90,471.28
101.84833,365.91,471.47
101.86782,366.83,470.06
101.88945,365.25,471.26
101.90951,367.29,470.03
101.92768,364.70,470.12
101.94767,363.44,470.56
101.96914,363.37,474.03
101.98952,365.69,471.21
102.00967,364.91,473.89
102.02992,364.30,473.35
102.04955,362.34,472.85
102.06816,362.87,470.55
102.08900,362.34,471.51
102.10925,363.14,471.61
102.12977,363.41,471.05
102.14829,363.13,473.19
102.17085,361.53,473.11
102.19022,361.78,472.11
102.20930,362.33,473.01
102.23013,362.04,470.76
102.25186,362.82,471.85
102.27090,362.10,473.35
102.29035,360.86,472.15
102.31024,360.27,472.76
102.33074,362.33,471.12
102.35040,362.57,470.31
102.37048,359.91,471.16
102.39119,362.15,472.33
102.41077,359.93,471.47
102.43099,359.25,469.76
102.44906,362.00,472.23
102.47169,358.99,472.31
102.49014,361.12,469.97
102.51026,359.69,470.95
102.53064,361.26,473.84
102.54981,361.60,470.99
102.57173,361.27,470.50
102.59088,361.40,471.44
102.61154,361.28,473.89
102.63136,360.30,471.30
102.65178,362.40,473.67
102.67094,362.12,473.28
102.69090,360.94,474.29
102.71013,359.45,471.54
102.73151,357.63,471.98
102.75144,359.74,471.55
102.77092,357.96,472.14
102.79091,359.91,472.97
102.81101,358.72,474.21
102.83147,359.29,470.63
102.85015,357.60,472.09
102.87056,356.12,471.25
102.89062,357.71,471.60
102.91176,359.46,471.39
102.93199,360.98,472.07
102.95049,359.04,473.66
102.97131,358.66,472.86
102.99199,358.03,472.91
103.01146,361.48,473.68
103.03024,362.12,474.70
103.05073,360.79,472.62
103.07020,358.84,470.99
103.09123,358.91,472.53
103.11065,358.44,469.05
103.13105,357.69,471.48
103.15021,359.14,471.05
103.17180,359.61,471.86
103.19114,353.96,470.25
103.21046,340.40,475.16
103.22944,323.66,479.38
103.24928,305.26,483.80
103.27157,291.15,478.88
103.29159,275.89,472.93
103.31089,263.52,466.03
103.33172,256.72,457.26
103.35095,253.80,450.86
103.37126,256.46,446.99
103.39060,255.41,441.40
103.41086,260.98,438.07
103.43159,266.45,436.86
103.45060,272.19,437.73
103.47184,280.05,442.09
103.49161,285.96,442.97
103.51151,295.43,442.62
103.53097,299.33,446.95
103.55246,307.35,449.54
103.57011,313.47,449.84
103.59218,320.57,453.17
103.61097,324.66,454.80
103.63103,332.49,457.50
103.65112,336.69,461.51
103.67107,337.12,461.65
103.69267,342.80,461.92
103.71276,343.48,461.08
103.73031,346.58,463.87
103.75106,349.23,464.57
103.77147,348.45,465.75
103.79282,350.52,466.43
103.81093,354.16,464.80
103.83070,354.08,468.60
103.85266,356.15,468.17
103.87168,356.37,469.27
103.89169,358.83,466.61
103.91259,356.90,470.77
103.93216,359.21,469.29
103.95040,359.40,468.08
103.97199,364.84,470.48
103.99054,365.86,468.67
104.01046,365.57,466.45
104.03074,364.85,467.70
104.05110,365.23,469.13
104.07185,365.56,467.09
104.09037,369.85,468.94
104.11145,381.63,475.36
104.13025,402.92,484.78
104.15160,425.24,493.12
104.17148,453.84,500.85
104.19386,474.04,507.43
104.21128,486.32,509.45
104.23140,488.77,510.60
104.25176,488.17,508.21
104.27233,481.24,507.94
104.29166,471.33,503.75
104.31156,462.26,500.94
104.33023,451.52,496.89
104.35156,443.65,495.20
104.37170,434.36,493.68
104.39266,423.83,488.71
104.41185,418.82,489.39
104.43073,407.94,486.03
104.45224,401.69,485.67
104.47116,395.50,481.98
104.49107,391.14,482.39
104.51290,388.11,478.29
104.53116,386.74,477.80
104.55132,383.18,477.29
104.57145,381.46,475.97
104.59055,376.72,478.97
104.61136,373.37,475.96
104.63150,374.28,477.96
104.65068,372.82,473.62
104.67196,371.14,473.56
104.69131,367.38,474.22
104.71202,365.36,471.75
104.73196,365.45,472.75
104.75227,363.28,473.85
104.77121,365.96,474.97
104.79227,364.32,474.38
104.81241,362.66,470.83
104.83006,363.83,472.48
104.85123,364.73,471.28
104.87036,362.72,472.03
104.89233,361.59,472.53
104.91152,364.54,468.84
104.93156,361.42,470.77
104.95035,362.50,468.42
104.97040,363.58,470.48
104.99049,363.80,470.00
105.01111,361.94,473.37
105.03175,362.39,470.40
105.05148,361.53,473.66
105.07131,363.63,472.34
105.09000,360.86,474.01
105.11077,362.66,474.05
105.13011,362.52,474.31
105.15023,361.59,471.64
105.17192,361.67,472.14
105.19245,362.54,474.52
105.21174,362.74,472.92
105.23166,364.67,475.85
105.25077,364.44,476.02
105.27186,366.53,474.60
105.29020,364.85,471.81
105.31247,367.56,473.97
105.33089,366.03,474.92
105.35059,365.81,473.98
105.37129,363.46,473.32
105.39077,363.66,474.04
105.41030,363.81,476.17
105.43064,364.74,474.66
105.45143,364.21,474.55
105.47140,363.22,475.02
105.49102,364.60,474.20
105.51258,363.35,473.74
105.53015,364.07,472.40
105.55143,363.51,471.78
105.57015,362.56,472.03
105.59121,364.81,471.04
105.61024,365.45,473.10
105.63131,364.66,473.42
105.65110,365.60,471.22
105.67178,364.96,471.14
105.69197,364.29,472.18
105.71115,367.03,474.53
105.73047,367.16,473.85
105.75264,367.84,475.23
105.77188,365.89,471.83
105.79389,368.60,473.42
105.81399,367.35,473.20
105.83334,369.77,470.28
105.85316,367.60,471.43
105.87417,369.08,472.43
105.89364,369.57,470.26
105.91440,371.47,470.34
105.93357,371.54,469.20
105.95214,374.22,469.64
105.97265,374.10,469.83
105.99275,375.00,469.94
106.01300,371.35,471.22
106.03368,371.89,471.10
106.05315,371.46,471.97
106.07364,372.91,469.19
106.09400,374.01,470.72
106.11340,374.03,471.83
106.13446,376.27,473.75
106.15359,375.31,473.53
106.17365,375.77,469.45
106.19378,373.52,470.03
106.21294,371.85,469.85
106.23358,372.88,468.70
106.25222,375.03,469.48
106.27300,375.67,466.19
106.29240,373.88,466.94
106.31271,374.77,467.57
106.33278,373.19,467.58
106.35359,374.10,469.91
106.37268,372.88,468.51
106.39331,373.81,469.68
106.41304,372.90,470.78
106.43402,371.36,471.44
106.45275,372.82,471.09
106.47285,374.61,469.44
106.49386,373.35,472.21
106.51311,372.41,472.93
106.53381,375.91,470.86
106.55439,375.80,475.97
106.57304,374.27,475.68
106.59270,375.59,477.70
106.61439,374.41,478.14
106.63489,375.00,477.15
106.65214,375.38,479.68
106.67392,376.09,478.44
106.69215,375.46,476.50
106.71265,375.21,476.66
106.73436,375.17,473.40
106.75377,374.45,475.14
106.77352,373.16,474.51
106.79370,373.19,473.05
106.81358,374.69,472.30
106.83328,373.93,473.19
106.85228,376.13,468.88
106.87201,375.34,467.76
106.89219,374.87,467.62
106.91303,375.60,466.67
106.93304,377.32,466.38
106.95494,376.32,468.87
106.97280,376.48,468.13
106.99232,376.50,468.61
107.01323,377.72,468.85
107.03294,374.42,467.74
107.05316,377.83,469.66
107.07368,375.14,467.50
107.09366,376.19,468.71
107.11396,376.76,467.60
107.13240,375.90,469.92
107.15278,374.12,470.05
107.17347,376.31,466.73
107.19447,377.17,468.93
107.21324,373.70,467.72
107.23229,375.21,471.17
107.25424,375.47,471.19
107.27342,374.39,470.74
107.29322,373.61,472.23
107.31429,375.57,471.95
107.33314,371.41,470.51
107.35463,359.11,472.83
107.37271,343.93,472.98
107.39311,324.70,475.73
107.41236,305.51,473.45
107.43379,291.29,467.58
107.45333,278.18,458.22
107.47384,270.60,451.54
107.49399,267.50,443.12
107.51418,266.45,436.09
107.53314,269.36,432.12
107.55450,271.66,431.34
107.57215,280.31,431.69
107.59351,288.13,431.66
107.61283,295.53,435.03
107.63221,304.16,436.02
107.65459,312.35,436.64
107.67400,318.15,441.88
107.69266,322.09,442.21
107.71237,330.94,445.92
107.73265,337.00,448.96
107.75284,342.67,451.09
107.77272,345.74,452.99
107.79416,350.40,456.73
107.81495,353.90,460.25
107.83417,358.92,460.81
107.85449,357.81,459.94
107.87428,363.39,464.34
107.89476,365.45,464.67
107.91409,368.79,465.43
107.93501,368.44,468.45
107.95661,370.18,468.60
107.97410,370.65,469.26
107.99584,368.57,470.20
108.01428,367.17,471.97
108.03680,369.97,471.92
108.05439,367.66,474.43
108.07428,371.63,473.42
108.09527,371.33,473.18
108.11402,372.82,473.03
108.13482,375.11,476.48
108.15532,376.10,484.14
108.17416,382.95,499.46
108.19476,396.86,530.52
108.21401,417.26,570.92
108.23604,442.87,602.45
108.25687,467.68,618.28
108.27719,488.63,617.84
108.29793,502.44,599.04
108.31731,510.79,573.41
108.33781,508.32,546.64
108.35615,505.46,523.23
108.37728,495.97,502.95
108.39679,486.41,484.14
108.41755,474.98,468.51
108.43875,464.40,457.07
108.45725,453.14,450.16
108.47667,444.72,442.65
108.49667,438.39,438.49
108.51754,428.97,439.76
108.53768,421.98,438.66
108.55710,414.14,438.79
108.57613,411.82,439.98
108.59694,404.25,441.08
108.61770,401.11,444.43
108.63779,396.81,445.76
108.65682,392.25,451.47
108.67666,391.08,454.51
108.69654,390.26,457.21
108.71614,388.03,459.14
108.73735,383.44,460.46
108.75627,383.95,462.55
108.77748,380.24,461.47
108.79773,381.97,463.02
108.81722,379.18,462.75
108.83656,379.80,465.39
108.85641,376.67,465.20
108.87765,378.73,465.71
108.89615,377.63,466.19
108.91719,375.72,467.02
108.93762,377.72,468.53
108.95681,379.11,469.42
108.97654,374.35,469.02
108.99738,374.77,470.60
109.01620,378.02,470.87
109.03788,376.08,469.48
109.05638,376.88,469.87
109.07642,372.58,471.14
109.09792,371.07,472.56
109.11780,371.45,469.70
109.13706,372.78,467.70
109.15797,371.59,471.09
109.17673,370.69,469.35
109.19792,371.26,469.52
109.21786,372.57,472.29
109.23703,372.68,468.50
109.25620,369.90,470.51
109.27691,372.01,471.50
109.29762,372.21,469.88
109.31667,374.70,471.55
109.33734,371.59,472.26
109.35778,374.78,471.76
109.37858,372.82,473.46
109.39701,371.18,469.37
109.41710,370.49,471.01
109.43711,372.66,471.46
109.45674,368.64,470.47
109.47660,372.45,470.52
109.49759,369.29,469.58
109.51627,369.83,470.45
109.53676,371.74,471.53
109.55645,370.04,474.06
109.57612,373.90,471.69
109.59602,374.81,472.15
109.61659,373.70,473.75
109.63803,372.15,472.07
109.65890,369.78,472.25
109.67876,371.76,471.65
109.69832,371.65,472.43
109.71838,369.57,470.96
109.73798,368.50,472.54
109.75779,371.14,472.31
109.77930,368.07,471.83
109.79809,367.11,470.48
109.81703,366.27,472.27
109.83862,367.55,470.15
109.85830,368.55,469.61
109.87752,366.83,471.66
109.89817,366.49,471.50
109.91768,366.67,470.98
109.93760,365.09,471.31
109.95861,364.92,471.48
109.97862,365.63,470.37
109.99733,368.18,471.19
110.01710,365.01,470.12
110.03888,367.93,471.63
110.05861,366.24,469.51
110.07743,368.70,472.33
110.09855,368.88,470.90
110.11902,365.80,469.70
110.13722,368.74,472.37
110.15853,368.11,469.40
110.17881,366.26,472.26
110.19755,366.04,472.28
110.21889,364.87,472.24
110.23821,365.19,470.70
110.25723,367.78,472.53
110.27809,367.62,472.89
110.29849,368.60,472.78
110.31738,368.60,469.00
110.33805,365.35,472.06
110.35889,366.33,470.62
110.37749,368.43,468.44
110.39878,366.61,468.95
110.41795,369.69,470.84
110.43872,370.11,471.27
110.45805,366.09,472.15
110.47784,367.99,471.97
110.49820,370.26,470.76
110.51858,368.30,471.21
110.53821,371.83,471.68
110.55840,369.21,472.74
110.57804,369.59,470.59
110.59909,370.65,472.32
110.62000,367.95,474.12
110.63838,369.44,470.86
110.65923,365.84,471.72
110.67917,365.91,472.01
110.69982,366.71,473.78
110.71843,366.89,473.53
110.73802,368.15,472.36
110.75996,364.66,471.51
110.77967,363.85,471.70
110.79900,364.90,472.29
110.81866,363.35,469.29
110.83817,365.17,469.51
110.85826,361.21,473.36
110.87856,362.67,470.28
110.89998,362.19,472.38
110.91954,361.78,470.33
110.93967,362.38,470.59
110.95936,364.11,469.60
110.97844,362.72,471.54
110.99872,364.55,470.19
111.01861,364.70,468.59
111.03985,364.62,467.81
111.05918,364.48,470.09
111.08001,360.95,467.99
111.10036,362.84,468.32
111.12058,363.32,468.08
111.14097,364.52,470.43
111.16077,360.38,467.55
111.17934,360.35,469.16
111.19999,361.28,467.42
111.21988,360.72,467.16
111.24052,361.88,467.61
111.26032,360.71,465.99
111.27935,361.04,469.33
111.29902,355.73,469.58
111.32081,341.23,466.68
111.34009,324.43,463.49
111.35948,307.33,457.19
111.38077,291.08,451.61
111.39993,277.90,444.59
111.41926,263.66,439.80
111.43984,253.95,435.49
111.46065,250.89,431.72
111.47975,249.90,430.35
111.50088,249.83,429.80
111.52089,253.80,431.59
111.54021,256.31,429.72
111.56067,259.42,431.62
111.58046,267.54,432.58
111.60017,271.22,434.70
111.62040,279.39,439.01
111.63982,284.43,438.98
111.65951,290.94,443.94
111.67910,301.84,444.67
111.69964,307.55,449.63
111.72092,312.74,449.57
111.74052,317.17,452.65
111.75969,321.05,454.43
111.77928,328.69,456.20
111.80037,330.79,457.28
111.82058,335.47,460.09
111.83986,338.85,461.23
111.86079,341.99,463.62
111.88030,342.07,463.36
111.89991,343.76,462.18
111.91910,347.16,461.62
111.94080,347.70,462.32
111.95907,352.45,464.27
111.98038,351.85,464.20
112.00009,353.09,465.88
112.01975,353.19,467.25
112.04047,353.33,465.14
112.06084,357.49,466.27
112.08185,357.39,468.39
112.10184,354.67,468.79
112.12115,354.46,468.45
112.14040,356.76,468.86
112.16083,357.32,467.52
112.18010,356.27,465.88
112.20172,356.83,467.83
112.22137,357.01,468.13
112.24034,360.60,466.07
112.26147,368.03,470.26
112.28146,383.40,476.32
112.30008,400.90,483.91
112.32053,420.47,492.96
112.34064,439.83,500.36
112.36179,458.07,506.55
112.38070,478.51,511.14
112.40184,488.49,511.93
112.42108,494.34,512.96
112.44069,493.92,510.64
112.46016,486.91,503.42
112.48027,475.51,501.73
112.50115,465.82,497.96
112.52183,458.02,494.37
112.54275,447.86,489.26
112.56137,436.30,485.54
112.58108,429.04,483.82
112.60138,419.15,482.55
112.62311,413.00,478.69
112.64228,406.08,478.80
112.66229,398.89,474.01
112.68220,392.76,473.56
112.70202,387.60,472.77
112.72221,387.45,473.67
112.74204,383.90,472.58
112.76230,378.81,469.70
112.78286,376.16,469.65
112.80296,374.72,468.53
112.82224,372.80,469.67
112.84275,370.68,469.77
112.86155,367.45,469.44
112.88117,368.26,468.34
112.90133,364.81,468.56
112.92116,362.62,466.06
112.94148,365.34,464.97
112.96169,365.83,468.30
112.98276,363.76,466.00
113.00102,365.82,467.27
113.02174,365.36,468.97
113.04203,364.66,467.28
113.06266,363.23,468.25
113.08208,361.58,467.70
113.10309,362.29,469.49
113.12180,363.32,470.07
113.14276,359.91,467.13
113.16226,360.24,468.29
113.18138,360.59,469.83
113.20245,360.51,470.02
113.22106,359.22,468.37
113.24142,358.65,469.77
113.26212,358.86,469.08
113.28146,359.08,469.35
113.30193,362.79,471.19
113.32201,361.73,468.80
113.34193,360.11,468.12
113.36293,360.70,469.95
113.38224,360.46,467.87
113.40279,363.04,468.90
113.42144,360.75,467.69
113.44149,362.56,469.57
113.46245,362.57,468.57
113.48243,362.16,468.93
113.50158,360.81,466.72
113.52265,362.98,466.38
113.54188,361.26,465.70
113.56229,360.34,468.30
113.58258,361.16,466.67
113.60120,359.98,466.98
113.62101,362.43,467.64
113.64114,362.01,465.96
113.66252,362.73,466.78
113.68191,359.81,466.56
113.70281,361.98,468.05
113.72216,360.43,469.30
113.74297,360.14,469.85
113.76209,359.86,467.32
113.78253,362.26,468.79
113.80144,359.75,470.62
113.82120,359.57,467.39
113.84233,358.78,468.34
113.86236,359.03,468.48
113.88125,360.37,465.99
113.90283,358.48,469.01
113.92246,360.33,468.20
113.94101,360.14,467.95
113.96247,361.82,465.95
113.98108,359.45,468.03
114.00222,360.73,468.25
114.02118,359.11,470.67
114.04112,360.02,469.66
114.06108,359.87,468.89
114.08109,360.19,467.72
114.10299,359.62,468.05
114.12286,359.69,468.89
114.14193,361.20,470.89
114.16299,359.15,472.10
114.18278,360.22,471.27
114.20294,360.40,471.75
114.22169,361.19,469.23
114.24201,361.62,470.79
114.26269,363.02,470.23
114.28128,362.98,469.92
114.30287,361.79,471.13
114.32205,363.81,470.00
114.34155,363.30,471.24
114.36156,361.70,470.79
114.38248,362.34,467.04
114.40189,362.15,466.99
114.42165,360.92,469.01
114.44267,360.59,468.19
114.46255,361.40,470.62
114.48182,364.78,470.72
114.50155,363.49,471.94
114.52132,366.12,470.09
114.54182,363.85,472.60
114.56197,365.74,469.96
114.58256,365.10,472.34
114.60143,361.14,470.44
114.62205,361.73,468.86
114.64128,361.78,468.55
114.66189,363.32,468.49
114.68103,363.15,470.94
114.70182,364.67,467.68
114.72137,363.00,469.40
114.74125,362.66,468.60
114.76175,362.17,470.02
114.78238,362.29,468.36
114.80291,365.22,470.87
114.82142,363.06,469.18
114.84187,363.73,469.47
114.86200,363.49,469.15
114.88228,360.99,471.59
114.90162,364.16,469.23
114.92262,362.09,471.94
114.94229,363.26,471.93
114.96273,364.87,468.11
114.98162,362.08,468.14
115.00127,364.76,470.55
115.02159,363.78,469.80
115.04279,363.16,470.23
115.06168,365.38,468.42
115.08282,364.87,467.70
115.10165,366.49,468.55
115.12351,366.09,470.73
115.14239,364.90,470.10
115.16428,364.97,469.38
115.18384,368.84,469.49
115.20338,368.86,471.21
115.22506,367.02,470.35
115.24505,370.78,469.18
115.26574,368.74,471.10
115.28575,372.70,470.01
115.30483,370.17,468.47
115.32442,371.75,468.53
115.34564,372.99,472.40
115.36531,375.11,471.65
115.38401,377.74,469.84
115.40494,377.62,471.34
115.42445,375.55,468.29
115.44565,378.14,470.00
115.46413,378.20,470.61
115.48575,376.67,469.72
115.50668,374.88,470.79
115.52699,377.17,469.32
115.54547,374.83,467.92
115.56548,374.74,466.51
115.58508,376.68,469.33
115.60697,377.67,468.13
115.62766,377.16,468.22
115.64764,375.45,467.60
115.66848,376.70,467.13
115.68988,377.18,470.42
115.70882,375.51,472.52
115.72878,377.30,469.14
115.74983,374.92,469.69
115.76900,376.20,473.54
115.78989,375.22,471.06
115.80927,372.15,473.50
115.82855,372.71,473.82
115.84874,372.48,473.20
115.86867,374.48,474.30
115.88847,374.35,473.92
115.90995,374.68,471.10
115.92944,372.59,472.83
115.94827,375.20,475.63
115.96914,376.97,473.85
115.98995,373.51,473.34
116.00872,371.02,475.30
116.02913,365.76,474.49
116.04929,367.55,472.33
116.07003,365.76,470.95
116.09000,363.23,470.73
116.11086,365.54,467.35
116.12926,363.21,468.09
116.15087,350.89,470.92
116.17075,335.35,467.07
116.18993,314.80,465.76
116.21025,299.18,459.89
116.23062,280.61,457.12
116.25195,272.38,450.92
116.27050,264.46,441.12
116.29065,259.93,438.04
116.31184,261.29,432.23
116.33081,263.00,428.24
116.35147,270.00,425.60
116.37167,273.65,421.68
116.39151,277.43,420.43
116.41181,284.77,424.51
116.43088,293.11,427.00
116.45008,298.86,426.79
116.47064,305.86,433.57
116.49172,313.95,435.46
116.51185,318.26,440.48
116.53146,324.90,442.01
116.55149,329.41,444.65
116.57037,337.24,449.14
116.59138,342.46,450.09
116.61168,345.56,452.56
116.63129,349.06,458.15
116.65002,348.80,457.10
116.67109,352.33,460.79
116.69042,354.34,460.60
116.71111,358.32,462.42
116.73130,358.81,467.22
116.75198,359.00,466.31
116.77120,360.80,468.42
116.79188,362.51,469.36
116.81113,363.73,470.38
116.83056,365.51,471.16
116.85155,365.34,474.11
116.87056,364.01,474.38
116.89120,364.54,474.18
116.91157,367.80,473.03
116.93092,368.98,475.07
116.95005,378.79,477.83
116.97015,386.82,486.89
116.99200,401.69,499.21
117.01144,418.76,513.42
117.03082,440.85,535.08
117.05040,461.28,547.03
117.07039,483.02,553.27
117.09167,494.64,550.78
117.11091,505.36,538.57
117.13100,504.93,525.54
117.15068,498.46,514.78
117.17078,492.49,505.93
117.19012,483.33,497.01
117.21124,470.29,489.49
117.23123,462.06,483.13
117.25118,450.56,479.51
117.27015,440.35,476.23
117.29169,430.70,474.30
117.31075,423.19,474.95
117.33020,419.18,471.54
117.35148,409.72,471.11
117.37043,404.57,473.41
117.39043,401.01,472.88
117.41045,396.84,472.69
117.43069,392.94,472.36
117.45009,388.44,470.98
117.47115,382.19,471.52
117.49182,383.01,471.22
117.51277,378.25,470.00
117.53188,376.63,470.93
117.55265,373.05,472.55
117.57121,373.00,469.89
117.59104,370.06,471.28
117.61138,370.31,470.79
117.63122,369.76,472.45
117.65106,369.41,472.78
117.67234,366.12,471.16
117.69178,366.40,470.91
117.71299,365.15,472.66
117.73159,367.58,472.45
117.75103,368.96,470.15
117.77198,366.26,468.65
117.79240,367.74,469.60
117.81283,367.83,469.08
117.83260,368.44,468.76
117.85195,364.36,469.60
117.87119,368.03,467.42
117.89289,365.30,468.17
117.91109,365.52,470.38
117.93109,365.40,470.76
117.95285,366.83,468.88
117.97127,364.58,470.50
117.99288,363.80,471.14
118.01256,361.64,472.22
118.03215,364.29,471.87
118.05101,362.46,468.74
118.07142,361.77,473.10
118.09285,362.73,473.02
118.11195,358.92,471.75
118.13236,359.91,471.52
118.15236,358.80,472.68
118.17208,359.59,469.99
118.19308,356.62,470.45
118.21385,358.34,470.82
118.23335,357.21,472.15
118.25268,359.66,471.25
118.27202,359.36,469.13
118.29281,358.86,471.73
118.31333,358.89,472.71
118.33212,360.71,469.99
118.35372,357.79,470.01
118.37305,358.56,471.64
118.39201,359.93,471.64
118.41347,360.59,470.65
118.43287,358.93,470.39
118.45298,356.48,469.89
118.47214,357.95,469.09
118.49306,356.78,469.22
118.51398,357.90,470.69
118.53377,356.39,472.08
118.55394,358.17,468.98
118.57279,357.33,473.51
118.59307,358.09,471.38
118.61391,358.90,470.87
118.63215,358.87,473.45
118.65258,359.15,471.94
118.67269,360.76,471.19
118.69292,359.52,470.94
118.71284,359.50,470.65
118.73295,358.63,470.95
118.75312,358.37,470.80
118.77267,360.25,469.73
118.79352,359.93,471.51
118.81306,362.18,470.11
118.83264,360.20,470.34
118.85398,359.80,470.57
118.87396,358.73,470.06
118.89212,358.90,466.94
118.91366,358.46,469.71
118.93346,358.38,465.86
118.95286,356.96,469.25
118.97273,357.94,467.75
118.99392,359.89,468.76
119.01368,360.59,468.07
119.03202,360.58,467.64
119.05243,359.93,468.19
119.07287,358.91,467.07
119.09281,358.86,465.63
119.11373,360.44,468.70
119.13251,360.31,466.90
119.15252,357.42,468.51
119.17289,357.03,465.63
119.19253,357.73,466.79
119.21214,358.37,464.94
119.23270,357.29,465.78
119.25393,356.55,466.35
119.27246,357.82,468.08
119.29231,357.43,468.83
119.31271,359.97,470.27
119.33269,358.42,467.89
119.35384,357.55,467.35
119.37302,358.38,468.70
119.39391,358.37,468.43
119.41342,359.16,470.19
119.43282,361.27,469.61
119.45259,359.69,468.71
119.47349,359.06,471.44
119.49296,361.37,471.83
119.51323,359.59,467.90
119.53377,359.36,467.99
119.55218,359.34,468.08
119.57216,357.68,469.05
119.59386,356.65,468.47
119.61343,356.73,470.36
119.63298,358.15,471.89
119.65316,359.30,469.63
119.67334,356.53,469.09
119.69211,356.98,469.05
119.71252,357.40,470.40
119.73390,357.21,468.17
119.75327,360.21,466.92
119.77229,359.60,469.74
119.79296,357.66,468.20
119.81359,360.70,469.77
119.83250,358.92,470.24
119.85296,358.71,468.34
119.87263,361.19,468.46
119.89322,358.07,466.80
119.91201,358.31,468.63
119.93389,358.57,465.27
119.95276,360.63,465.09
119.97380,360.84,467.30
119.99326,357.19,468.26
120.01343,357.49,465.35
120.03349,358.26,466.74
120.05217,358.30,468.63
120.07205,356.73,466.40
120.09352,358.94,469.37
120.11386,359.01,466.51
120.13228,360.96,467.37
120.15318,357.90,468.01
120.17397,358.71,465.40
120.19332,355.74,465.20
120.21261,357.16,467.66
120.23315,354.89,468.01
120.25251,354.56,467.00
120.27367,356.74,465.77
120.29389,358.14,467.86
120.31328,359.76,465.44
120.33367,357.43,467.18
120.35345,358.91,466.31
120.37392,361.81,466.87
120.39224,361.16,469.13
120.41312,360.37,467.23
120.43272,359.82,467.66
120.45228,360.69,467.55
120.47230,361.27,465.92
120.49394,359.49,468.76
120.51229,358.59,467.53
120.53369,357.89,466.95
120.55362,359.44,466.97
120.57215,358.27,467.48
120.59281,357.86,467.05
120.61346,360.33,468.29
120.63258,359.78,465.85
120.65315,360.74,465.15
120.67308,359.47,466.01
120.69271,359.00,466.91
120.71349,360.18,468.11
120.73252,358.93,464.63
120.75330,359.68,468.18
120.77306,357.80,465.48
120.79346,361.00,466.82
120.81209,358.79,467.58
120.83347,359.81,468.35
120.85237,358.22,467.29
120.87281,357.52,465.09
120.89283,360.04,466.80
120.91390,357.94,466.99
120.93337,360.26,466.91
120.95264,358.41,467.36
120.97244,357.22,466.82
120.99221,359.03,468.06
121.01247,358.49,466.74
121.03257,357.31,468.91
121.05355,358.92,469.44
121.07336,358.02,468.52
121.09329,360.51,468.48
121.11349,360.53,471.44
121.13274,360.01,469.80
121.15291,359.44,468.63
121.17349,360.42,469.23
121.19302,359.60,469.02
121.21218,361.95,467.25
121.23212,359.63,468.45
121.25219,361.19,468.37
121.27377,358.81,466.95
121.29374,358.85,465.65
121.31281,358.47,468.73
121.33273,360.37,471.44
121.35395,360.07,468.55
121.37232,357.21,459.50
121.39207,348.97,448.56
121.41335,345.45,429.77
121.43305,339.31,419.49
121.45230,337.87,413.22
121.47326,337.04,415.25
121.49373,335.70,414.51
121.51329,337.65,415.59
121.53330,338.68,420.01
121.55377,339.33,425.99
121.57201,343.06,428.66
121.59342,344.42,432.74
121.61369,348.59,438.00
121.63371,348.41,444.46
121.65384,351.70,448.52
121.67349,352.14,450.73
121.69317,353.78,455.62
121.71396,354.91,459.99
121.73396,355.14,460.93
121.75291,358.13,469.82
121.77219,357.33,476.42
121.79357,358.83,494.26
121.81229,357.04,518.18
121.83233,358.58,544.71
