Program Time [s],data 0,data 1
86.27343,356.62,464.49
86.29245,352.37,464.27
86.31381,355.81,465.71
86.33482,351.03,464.27
86.35489,349.62,461.28
86.37323,347.61,460.62
86.39332,351.62,458.41
86.41320,351.20,458.16
86.43300,354.17,454.89
86.45464,354.48,456.71
86.47313,358.65,455.91
86.49426,356.26,455.37
86.51383,357.67,458.58
86.53356,357.41,458.28
86.55422,352.89,458.48
86.57424,355.49,462.81
86.59413,355.20,459.02
86.61484,355.74,462.10
86.63324,357.49,461.10
86.65500,354.99,462.35
86.67474,353.53,463.18
86.69400,355.80,473.64
86.71469,354.54,491.82
86.73368,357.81,518.06
86.75451,360.12,547.91
86.77328,357.27,563.92
86.79338,358.53,559.05
86.81298,355.65,548.51
86.83481,352.31,527.67
86.85476,354.10,506.21
86.87471,350.72,490.14
86.89348,347.61,471.46
86.91449,343.42,455.85
86.93342,343.21,440.86
86.95366,340.58,436.07
86.97509,341.38,425.28
86.99304,337.20,420.74
87.01288,335.75,420.54
87.03449,339.45,419.63
87.05589,338.29,418.74
87.07526,341.97,421.30
87.09451,344.67,421.59
87.11460,344.13,420.37
87.13510,344.06,419.86
87.15600,345.90,426.05
87.17493,351.89,427.19
87.19656,353.34,430.45
87.21690,356.21,436.27
87.23573,354.32,441.15
87.25616,356.69,446.16
87.27654,355.08,447.15
87.29497,355.73,448.35
87.31649,356.76,449.05
87.33561,357.41,452.60
87.35509,359.59,452.28
87.37632,359.44,455.39
87.39674,359.16,458.25
87.41576,361.76,460.57
87.43598,362.62,459.96
87.45583,360.95,461.54
87.47622,358.36,462.99
87.49528,360.67,465.33
87.51658,358.77,465.69
87.53530,358.33,466.16
87.55570,363.03,464.49
87.57676,364.05,465.87
87.59540,362.04,467.62
87.61508,362.26,468.95
87.63617,363.59,468.75
87.65574,355.21,468.63
87.67513,347.66,468.10
87.69619,342.17,465.19
87.71605,342.40,466.08
87.73684,339.35,463.52
87.75505,344.25,462.41
87.77607,345.23,462.84
87.79585,345.89,459.47
87.81569,348.07,457.90
87.83577,348.96,458.33
87.85688,350.26,457.96
87.87543,349.65,457.86
87.89671,352.00,457.95
87.91503,350.87,458.49
87.93660,352.65,456.85
87.95651,353.07,459.01
87.97546,353.80,458.50
87.99685,353.79,459.48
88.01631,351.74,458.21
88.03639,351.40,459.82
88.05505,353.61,460.76
88.07658,349.60,461.01
88.09624,353.17,462.78
88.11488,352.09,465.85
88.13659,352.80,472.92
88.15622,356.58,476.91
88.17531,357.58,478.54
88.19607,356.41,480.67
88.21640,360.60,478.90
88.23573,360.05,475.57
88.25623,360.39,475.74
88.27568,363.20,472.01
88.29515,361.15,474.24
88.31665,364.68,471.76
88.33614,364.84,470.56
88.35621,362.65,468.46
88.37686,363.36,467.38
88.39695,362.44,468.69
88.41655,363.03,465.12
88.43515,361.59,461.20
88.45666,362.58,459.66
88.47591,364.87,457.18
88.49637,364.53,456.91
88.51635,367.25,456.29
88.53546,363.62,453.34
88.55669,365.74,453.79
88.57511,365.07,453.10
88.59610,362.98,451.36
88.61662,361.38,452.19
88.63681,362.92,449.96
88.65572,361.31,452.37
88.67561,361.23,451.78
88.69602,360.82,453.15
88.71625,363.17,457.00
88.73532,361.62,459.41
88.75491,362.04,461.24
88.77611,362.14,461.36
88.79603,363.32,461.67
88.81658,362.67,460.56
88.83574,364.03,461.42
88.85582,362.78,459.19
88.87633,364.99,461.94
88.89591,364.79,461.16
88.91594,366.17,461.71
88.93599,366.98,466.28
88.95535,365.79,465.33
88.97677,364.54,468.43
88.99654,367.16,467.86
89.01493,366.39,464.83
89.03604,368.10,466.64
89.05596,376.43,468.96
89.07521,381.86,469.34
89.09615,387.66,466.50
89.11676,390.06,469.04
89.13500,388.55,465.51
89.15625,386.87,463.74
89.17588,387.69,461.89
89.19577,386.65,461.87
89.21529,384.55,462.03
89.23519,383.12,460.67
89.25540,381.63,461.98
89.27552,379.21,458.75
89.29602,376.72,457.75
89.31584,376.33,457.67
89.33608,372.40,462.08
89.35571,369.84,460.78
89.37621,371.30,462.23
89.39576,371.03,462.48
89.41577,370.70,459.50
89.43674,371.61,463.17
89.45555,370.58,459.68
89.47617,370.48,459.82
89.49524,368.84,462.57
89.51673,369.84,460.83
89.53534,370.37,459.82
89.55535,367.84,461.87
89.57682,367.41,459.65
89.59546,370.78,464.98
89.61519,368.11,461.27
89.63530,370.99,463.71
89.65572,368.26,464.08
89.67541,368.50,461.82
89.69483,370.39,463.65
89.71656,369.46,462.65
89.73656,369.20,458.27
89.75651,366.41,460.38
89.77527,368.88,461.32
89.79645,367.69,456.63
89.81569,368.60,457.81
89.83670,369.02,457.89
89.85593,370.13,458.15
89.87680,370.73,457.39
89.89613,369.20,457.72
89.91572,369.73,456.92
89.93662,371.68,458.27
89.95486,371.89,460.15
89.97565,370.22,460.33
89.99548,370.91,462.12
90.01557,368.56,460.25
90.03574,362.11,459.24
90.05616,350.42,458.87
90.07683,328.31,453.83
90.09580,309.09,448.96
90.11556,287.36,440.91
90.13562,270.28,434.38
90.15688,260.05,425.34
90.17504,252.52,420.91
90.19508,245.88,417.79
90.21525,247.80,411.97
90.23609,249.20,414.45
90.25505,257.62,414.33
90.27631,261.77,417.13
90.29509,270.24,416.79
90.31547,278.33,422.58
90.33534,286.84,423.28
90.35520,296.20,426.85
90.37666,301.78,429.34
90.39610,309.64,435.85
90.41503,318.34,439.24
90.43655,325.85,442.86
90.45517,327.25,443.04
90.47553,334.77,445.62
90.49592,339.43,447.94
90.51661,345.17,450.39
90.53659,349.25,449.95
90.55651,353.15,454.91
90.57670,354.15,454.63
90.59595,357.28,457.66
90.61668,357.66,457.20
90.63514,359.80,459.20
90.65534,362.08,460.97
90.67585,363.59,460.85
90.69546,365.99,460.54
90.71634,364.61,458.92
90.73676,364.89,462.30
90.75606,369.35,459.79
90.77667,371.60,459.76
90.79550,370.65,463.11
90.81647,372.23,464.13
90.83524,371.15,460.89
90.85512,374.74,465.70
90.87630,383.53,468.11
90.89642,406.63,475.74
90.91596,430.29,485.91
90.93675,459.70,493.68
90.95654,487.81,500.44
90.97499,509.96,504.09
90.99491,522.37,506.09
91.01500,526.51,504.98
91.03625,522.11,504.29
91.05607,515.49,499.42
91.07528,502.43,494.45
91.09535,492.55,491.87
91.11547,475.80,487.69
91.13563,464.10,481.86
91.15584,452.33,480.40
91.17633,440.17,476.28
91.19550,431.53,474.17
91.21497,423.72,471.42
91.23645,417.97,470.05
91.25670,409.38,468.04
91.27626,405.42,467.76
91.29615,400.46,468.09
91.31699,394.77,467.57
91.33623,392.94,468.36
91.35761,392.07,465.95
91.37765,387.38,467.45
91.39662,384.33,464.34
91.41788,384.95,463.46
91.43729,381.27,464.20
91.45771,379.20,462.48
91.47642,378.98,463.37
91.49698,378.86,463.75
91.51777,378.39,461.55
91.53710,376.83,461.49
91.55826,375.94,464.58
91.57790,372.54,466.74
91.59829,373.95,466.23
91.61691,376.13,464.02
91.63833,373.07,464.45
91.65858,371.35,466.28
91.67981,374.96,463.84
91.69952,371.58,462.90
91.71831,372.68,463.79
91.73876,372.52,464.64
91.75842,372.27,465.11
91.77829,369.79,465.19
91.79932,372.53,463.31
91.81907,372.17,464.97
91.83806,368.28,463.68
91.85971,371.30,462.66
91.87803,372.28,465.06
91.89805,371.32,462.84
91.91854,369.74,465.12
91.93946,369.10,462.23
91.95926,371.74,464.46
91.97952,368.54,462.93
91.99824,370.02,460.14
92.01802,368.75,462.26
92.03865,369.95,461.52
92.05884,370.84,460.26
92.07854,368.37,462.44
92.09947,373.22,462.07
92.11988,369.96,462.60
92.13925,370.29,461.27
92.16015,369.32,462.45
92.18038,367.49,463.62
92.19964,367.16,464.49
92.22003,365.30,464.90
92.23929,368.52,464.40
92.26079,365.87,462.20
92.27903,365.46,466.09
92.30052,368.07,464.06
92.32034,367.11,468.16
92.33892,369.55,465.62
92.36056,370.82,464.44
92.38029,369.98,466.52
92.39890,369.15,464.51
92.42107,364.40,466.33
92.44067,363.70,464.78
92.46039,363.89,464.67
92.47981,363.89,465.92
92.50155,365.28,461.94
92.52009,363.33,463.45
92.54143,361.75,462.65
92.56159,363.77,462.84
92.58021,360.51,463.91
92.59999,360.73,461.97
92.62113,363.11,462.95
92.64111,363.21,464.96
92.66070,361.40,463.33
92.68029,362.69,461.63
92.70006,360.17,464.73
92.72143,362.02,464.05
92.74178,360.45,462.77
92.76132,360.17,465.40
92.78033,359.37,463.30
92.79971,358.39,463.01
92.82150,358.35,465.09
92.84013,358.68,463.83
92.86113,358.95,461.88
92.88041,359.42,462.48
92.89994,360.97,464.24
92.92060,360.73,464.39
92.94163,359.74,463.49
92.96023,356.64,461.77
92.98123,357.50,462.77
93.00126,355.82,463.50
93.02064,355.73,462.31
93.04017,357.52,463.22
93.06157,357.26,460.85
93.08181,359.75,457.50
93.10113,360.71,459.15
93.12066,361.90,458.22
93.13982,363.11,460.49
93.16041,361.55,457.54
93.18178,361.34,457.55
93.20084,361.26,459.74
93.22036,361.49,460.34
93.24017,358.57,461.47
93.26183,360.07,461.50
93.28111,359.28,462.01
93.30106,358.38,462.49
93.32027,356.83,461.54
93.34150,357.55,461.10
93.36116,356.98,462.38
93.38003,359.92,461.33
93.40068,358.67,460.75
93.42023,360.81,462.14
93.44121,360.25,461.37
93.46069,356.62,461.62
93.48054,357.13,462.62
93.50119,358.86,461.85
93.52048,357.31,463.68
93.54048,356.33,463.76
93.56111,357.59,461.70
93.58075,357.66,462.17
93.60153,355.92,465.62
93.62036,357.47,463.84
93.64146,356.41,465.24
93.65989,356.63,464.50
93.68030,354.73,461.74
93.70073,354.28,462.91
93.72176,356.47,458.97
93.73990,353.97,457.40
93.76013,355.32,457.83
93.78088,355.92,457.22
93.80124,356.78,458.67
93.82149,356.61,457.39
93.84125,356.08,453.52
93.86075,356.46,456.13
93.88111,346.90,455.14
93.90079,333.84,451.89
93.92019,313.49,450.66
93.94020,298.99,447.77
93.96004,282.38,444.11
93.98002,265.74,437.76
94.00119,255.60,433.66
94.02038,247.55,431.96
94.04125,241.31,428.60
94.06145,238.53,425.30
94.08080,240.61,423.45
94.10098,246.12,422.14
94.12050,251.71,422.98
94.14038,257.21,422.38
94.16081,267.83,426.65
94.18080,274.79,425.27
94.20102,281.00,432.34
94.21982,291.47,435.57
94.24260,300.21,434.07
94.26084,303.50,439.86
94.28140,309.63,442.64
94.30216,316.47,442.40
94.32104,321.15,447.36
94.34176,326.27,449.92
94.36275,331.82,448.53
94.38287,333.48,452.52
94.40329,334.33,454.07
94.42385,335.83,452.10
94.44221,339.85,453.40
94.46361,341.28,456.23
94.48343,342.66,456.29
94.50355,344.72,459.33
94.52357,347.16,460.11
94.54460,345.80,458.45
94.56467,350.73,460.40
94.58381,351.43,460.04
94.60343,351.31,462.71
94.62447,351.89,460.61
94.64295,352.01,463.62
94.66465,353.29,461.25
94.68401,357.53,465.71
94.70435,363.26,465.87
94.72326,375.88,471.88
94.74397,393.42,476.67
94.76308,411.09,482.80
94.78284,433.32,489.73
94.80414,452.91,494.40
94.82367,471.78,500.14
94.84302,485.34,503.48
94.86375,484.64,503.46
94.88343,482.07,503.16
94.90470,474.64,496.55
94.92312,469.32,493.27
94.94473,459.65,488.09
94.96368,447.49,487.22
94.98399,440.91,482.71
95.00439,431.02,481.03
95.02416,424.45,476.86
95.04435,414.08,474.01
95.06373,404.56,473.04
95.08272,400.20,467.09
95.10356,394.53,468.05
95.12356,388.48,465.52
95.14478,387.68,464.70
95.16348,380.94,462.06
95.18306,377.15,460.29
95.20405,374.85,460.66
95.22390,372.77,462.32
95.24468,369.48,460.36
95.26449,368.29,463.02
95.28395,367.08,463.48
95.30486,367.12,462.52
95.32478,365.49,462.21
95.34409,365.51,463.07
95.36425,365.54,464.63
95.38488,365.18,464.29
95.40445,360.81,464.20
95.42560,360.49,462.00
95.44472,359.63,461.22
95.46433,360.03,463.86
95.48528,361.89,462.40
95.50442,358.23,462.41
95.52473,360.97,463.83
95.54454,360.33,463.25
95.56471,361.63,463.95
95.58542,361.30,461.90
95.60570,360.69,462.73
95.62570,360.76,462.43
95.64442,362.18,462.06
95.66519,364.97,465.56
95.68409,365.27,464.37
95.70409,364.05,462.85
95.72500,362.29,465.91
95.74551,362.64,461.18
95.76405,363.60,463.70
95.78528,363.51,464.45
95.80437,359.90,461.03
95.82387,360.77,461.17
95.84458,360.72,464.57
95.86432,359.82,461.65
95.88542,363.35,464.97
95.90383,361.46,464.05
95.92401,363.16,465.41
95.94418,365.36,463.72
95.96370,366.81,465.44
95.98391,364.30,464.05
96.00415,366.14,465.95
96.02518,365.04,464.75
96.04485,364.38,463.44
96.06375,362.99,461.08
96.08454,362.61,463.63
96.10567,362.80,463.91
96.12407,363.31,460.76
96.14411,362.34,460.83
96.16470,361.19,462.58
96.18561,361.27,460.83
96.20487,359.29,459.47
96.22505,361.30,462.78
96.24414,362.27,462.44
96.26367,360.24,462.12
96.28425,360.18,461.30
96.30540,362.78,460.09
96.32569,362.97,461.66
96.34505,360.24,458.75
96.36468,360.11,458.73
96.38492,359.93,459.87
96.40460,363.17,458.74
96.42558,362.84,458.81
96.44469,362.64,462.43
96.46476,364.61,462.67
96.48386,366.28,460.38
96.50382,365.29,461.60
96.52524,364.70,462.87
96.54513,365.96,462.45
96.56514,366.15,460.64
96.58533,366.91,460.77
96.60379,365.45,460.16
96.62546,367.10,462.09
96.64524,363.06,462.73
96.66516,362.30,463.94
96.68467,363.91,463.55
96.70385,365.60,462.07
96.72551,364.65,465.16
96.74507,365.62,461.97
96.76432,364.65,464.76
96.78532,363.06,463.66
96.80396,361.74,462.51
96.82393,364.44,461.45
96.84560,363.23,461.24
96.86379,364.43,463.44
96.88466,364.17,462.06
96.90532,365.33,460.69
96.92431,365.14,460.09
96.94573,364.84,460.02
96.96356,366.56,461.11
96.98474,366.77,461.90
97.00477,366.16,459.93
97.02537,363.59,459.13
97.04418,366.36,460.25
97.06456,363.93,459.96
97.08382,363.68,461.70
97.10554,364.02,460.70
97.12520,366.23,460.24
97.14400,365.58,462.25
97.16374,366.55,460.82
97.18543,368.78,462.64
97.20536,367.12,463.16
97.22454,366.29,459.92
97.24503,368.06,462.46
97.26367,367.81,460.99
97.28406,370.01,460.11
97.30373,368.39,463.32
97.32406,370.22,463.05
97.34575,371.70,462.74
97.36356,367.46,463.19
97.38415,370.45,463.61
97.40401,369.56,460.72
97.42488,369.06,463.67
97.44391,369.89,462.51
97.46439,370.96,462.01
97.48440,369.37,460.63
97.50411,369.75,462.36
97.52504,371.00,461.02
97.54569,369.06,462.94
97.56553,371.51,460.29
97.58422,369.23,461.10
97.60383,370.34,462.56
97.62578,369.38,463.55
97.64568,370.36,462.61
97.66492,371.53,461.06
97.68639,373.24,462.52
97.70585,371.77,463.82
97.72581,372.66,463.48
97.74490,374.48,463.63
97.76617,372.29,463.08
97.78525,374.30,462.86
97.80543,372.65,462.22
97.82543,370.63,465.26
97.84618,372.47,462.14
97.86603,370.34,461.87
97.88695,373.68,461.65
97.90746,374.02,462.59
97.92696,370.56,464.82
97.94747,372.24,462.87
97.96731,371.23,465.06
97.98661,371.51,464.15
98.00636,370.91,463.50
98.02629,372.65,461.79
98.04668,374.27,461.11
98.06747,372.42,462.21
98.08669,364.22,463.10
98.10752,346.40,466.27
98.12604,324.53,466.37
98.14696,301.87,468.24
98.16752,283.82,461.34
98.18745,270.05,454.40
98.20587,262.20,444.69
98.22648,260.35,435.83
98.24746,258.33,433.41
98.26597,261.48,427.30
98.28618,262.91,425.06
98.30582,271.11,424.30
98.32614,275.73,422.63
98.34739,284.08,422.73
98.36612,293.07,424.42
98.38637,299.81,426.48
98.40665,307.57,431.62
98.42675,317.74,434.43
98.44623,324.13,436.50
98.46624,328.18,437.18
98.48700,335.10,443.11
98.50707,341.57,447.12
98.52615,343.56,449.58
98.54746,350.17,451.59
98.56675,350.05,451.10
98.58718,356.67,452.62
98.60616,357.93,454.42
98.62644,361.15,455.51
98.64756,362.05,455.05
98.66684,366.43,456.82
98.68707,364.18,459.02
98.70581,367.99,458.71
98.72666,367.86,461.17
98.74655,368.07,458.93
98.76692,371.89,459.77
98.78596,369.85,460.68
98.80622,370.85,461.27
98.82680,370.72,463.88
98.84632,374.41,465.86
98.86663,389.73,470.91
98.88638,405.83,477.60
98.90731,430.31,483.10
98.92728,453.49,488.23
98.94653,474.44,491.97
98.96631,491.78,496.35
98.98597,502.28,501.97
99.00633,505.38,500.92
99.02589,505.59,498.24
99.04579,496.93,498.02
99.06589,486.12,491.63
99.08592,478.36,487.70
99.10595,468.75,483.12
99.12634,459.50,481.71
99.14671,446.56,476.75
99.16729,437.90,477.48
99.18700,428.45,471.86
99.20579,420.54,473.28
99.22710,415.49,472.07
99.24699,411.46,470.74
99.26595,403.01,468.74
99.28717,400.03,467.55
99.30664,394.55,467.82
99.32753,392.58,467.79
99.34696,387.66,466.10
99.36759,385.24,467.45
99.38612,384.01,467.56
99.40609,381.14,465.97
99.42604,382.43,466.08
99.44715,378.13,468.15
99.46732,376.85,465.81
99.48603,374.98,467.10
99.50670,374.56,467.85
99.52761,377.23,468.17
99.54607,373.15,467.13
99.56583,375.58,468.02
99.58722,374.44,465.37
99.60684,372.74,468.59
99.62752,372.33,467.56
99.64714,374.16,468.75
99.66714,373.60,468.13
99.68677,372.73,467.37
99.70714,370.71,465.88
99.72716,373.64,467.96
99.74586,371.68,467.80
99.76685,372.29,464.63
99.78644,373.26,464.60
99.80608,371.37,465.85
99.82752,373.56,464.94
99.84582,372.98,463.40
99.86663,373.45,464.52
99.88747,374.01,466.26
99.90633,371.69,465.89
99.92642,374.17,465.74
99.94740,370.57,463.99
99.96778,370.35,464.47
99.98722,373.27,463.70
100.00653,369.69,464.04
100.02643,374.08,464.14
100.04733,371.11,466.44
100.06692,373.79,465.34
100.08711,373.02,466.55
100.10688,370.24,463.63
100.12798,371.12,463.52
100.14686,372.70,461.88
100.16561,370.23,462.84
100.18668,368.49,463.26
100.20750,368.38,465.30
100.22608,368.61,465.74
100.24734,368.30,464.92
100.26612,370.58,462.04
100.28695,372.36,461.74
100.30660,372.68,461.71
100.32652,371.72,461.67
100.34735,369.20,462.34
100.36676,372.95,461.74
100.38764,371.30,461.07
100.40695,371.50,461.46
100.42729,373.02,462.59
100.44705,369.84,461.72
100.46654,372.73,459.69
100.48732,371.60,460.63
100.50757,369.42,459.98
100.52637,370.08,460.33
100.54702,369.93,464.38
100.56706,366.73,463.71
100.58832,365.24,463.29
100.60712,367.17,460.79
100.62715,363.06,462.64
100.64714,364.42,462.58
100.66759,365.31,463.00
100.68620,361.72,462.90
100.70706,361.86,462.48
100.72731,364.00,461.98
100.74711,362.84,459.74
100.76783,362.98,459.73
100.78815,362.42,459.35
100.80738,362.92,462.14
100.82838,361.09,461.42
100.84709,359.01,462.09
100.86838,362.75,459.08
100.88749,361.89,460.41
100.90741,361.98,458.92
100.92703,360.44,461.90
100.94829,361.74,462.59
100.96726,362.66,460.13
100.98811,361.39,461.63
101.00898,360.56,462.61
101.02789,362.28,461.19
101.04717,363.83,461.87
101.06715,362.07,461.93
101.08643,363.50,463.54
101.10837,362.63,460.43
101.12854,365.59,462.26
101.14835,362.81,462.02
101.16717,364.40,462.08
101.18871,362.31,461.36
101.20812,361.32,461.47
101.22778,361.89,463.28
101.24749,361.04,460.77
101.26845,361.37,462.17
101.28900,362.10,460.53
101.30798,361.90,460.82
101.32853,359.99,460.90
101.34728,360.58,461.94
101.36826,359.71,460.39
101.38768,362.35,460.64
101.40723,362.44,462.06
101.42695,362.77,459.30
101.44618,362.48,459.13
101.46826,361.30,458.97
101.48745,363.61,458.05
101.50705,363.77,458.33
101.52631,362.06,457.18
101.54861,364.38,461.41
101.56793,364.49,459.78
101.58789,364.75,460.11
101.60848,363.38,460.29
101.62864,363.34,459.95
101.64738,362.02,463.35
101.66783,362.96,460.05
101.68782,364.83,462.10
101.70734,363.99,461.60
101.72843,364.62,460.30
101.74787,361.94,460.49
101.76882,363.81,462.20
101.78763,360.56,460.71
101.80730,359.68,461.39
101.82771,360.10,461.17
101.84738,362.12,463.11
101.86758,361.16,462.34
101.88926,359.22,463.09
101.90928,362.07,459.98
101.92792,358.92,460.82
101.94735,361.26,461.20
101.96971,360.29,462.95
101.98818,359.79,464.35
102.00803,359.83,461.18
102.02930,356.27,462.49
102.04925,356.27,462.08
102.06704,358.41,462.75
102.08930,359.09,462.22
102.10804,357.75,464.46
102.12927,358.10,461.73
102.14849,355.50,460.99
102.16936,356.59,463.88
102.18930,355.17,463.39
102.20988,354.54,463.49
102.23049,356.03,462.53
102.25137,356.92,463.78
102.27105,353.96,462.60
102.29002,355.89,463.85
102.31139,356.45,460.86
102.33148,353.11,461.14
102.35049,355.67,461.81
102.37038,357.87,463.42
102.39137,356.35,460.23
102.41192,357.59,460.90
102.43021,355.91,461.09
102.44985,355.56,460.17
102.47175,356.64,461.10
102.49070,355.71,462.20
102.51127,353.28,463.03
102.53110,356.49,462.33
102.54994,353.12,464.39
102.57049,356.47,464.33
102.59177,355.33,463.62
102.61040,354.27,464.19
102.63180,353.08,460.63
102.65135,356.02,463.69
102.67158,354.79,464.43
102.69076,355.63,460.97
102.71037,352.36,460.72
102.73168,353.29,463.29
102.75075,355.29,463.45
102.77182,352.19,462.36
102.79108,354.52,463.56
102.81058,351.05,461.61
102.83002,352.77,464.05
102.85050,352.83,462.91
102.87058,351.93,460.16
102.89186,350.91,460.61
102.91073,351.69,462.97
102.93141,354.16,464.06
102.95061,352.72,463.26
102.97083,352.50,464.58
102.99017,353.77,462.17
103.01072,356.10,464.66
103.03101,354.73,461.64
103.05062,354.48,462.33
103.07067,353.64,463.95
103.09041,353.37,460.84
103.11064,352.75,458.69
103.13187,353.86,458.13
103.15030,351.30,460.25
103.17040,351.96,459.01
103.19015,349.05,461.48
103.21050,337.08,464.02
103.23004,320.32,469.53
103.25054,300.32,474.16
103.27183,280.75,471.54
103.29008,265.32,466.03
103.31194,257.97,454.61
103.33150,249.09,446.10
103.35173,246.12,441.19
103.37130,246.75,435.88
103.39063,250.50,430.79
103.41052,253.06,428.38
103.43091,259.16,430.17
103.45055,266.97,428.48
103.47253,273.47,430.89
103.49245,279.39,432.94
103.51230,288.88,433.91
103.53108,295.65,436.73
103.55184,301.59,439.64
103.57123,307.89,439.08
103.59232,312.26,444.42
103.61077,320.31,446.56
103.63251,325.42,448.94
103.65171,329.87,451.28
103.67255,331.90,452.31
103.69204,336.52,452.16
103.71146,340.09,452.89
103.73135,342.48,452.64
103.75258,345.03,455.18
103.77272,344.49,454.00
103.79204,346.30,456.87
103.81073,347.29,454.37
103.83034,349.33,457.55
103.85278,350.32,455.69
103.87185,352.53,459.88
103.89092,351.77,456.85
103.91103,353.34,460.31
103.93246,352.02,459.63
103.95192,355.45,459.60
103.97043,358.67,458.92
103.99160,360.81,458.77
104.01194,360.37,456.78
104.03181,360.16,455.62
104.05275,360.66,459.22
104.07144,358.73,457.60
104.09178,363.29,459.20
104.11155,377.08,464.24
104.13070,395.60,473.82
104.15193,421.26,484.26
104.17256,448.96,493.40
104.19312,470.81,499.57
104.21161,481.25,503.16
104.23129,485.69,502.77
104.25231,483.37,502.00
104.27238,479.94,498.51
104.29243,467.99,494.95
104.31262,460.73,490.85
104.33062,447.74,490.32
104.35171,438.71,484.57
104.37113,427.96,482.15
104.39284,418.74,479.27
104.41056,410.41,479.83
104.43162,403.47,477.08
104.45116,396.30,473.03
104.47170,390.68,471.51
104.49211,389.37,471.12
104.51214,383.56,471.42
104.53038,380.34,468.29
104.55139,378.95,468.70
104.57253,375.36,466.45
104.59130,370.34,465.81
104.61281,371.23,465.64
104.63158,367.60,466.11
104.65070,364.27,466.01
104.67116,363.73,466.55
104.69121,362.68,464.35
104.71101,362.07,462.43
104.73104,361.14,465.22
104.75139,361.39,463.40
104.77090,359.69,464.63
104.79186,360.00,465.58
104.81172,356.58,463.28
104.83149,358.91,462.42
104.85239,359.05,460.18
104.87043,358.17,459.75
104.89286,358.86,460.21
104.91290,356.64,458.60
104.93070,355.32,461.03
104.95065,358.73,458.98
104.97155,358.22,460.97
104.99039,356.77,460.49
105.01052,355.40,461.46
105.03170,356.18,461.20
105.05239,356.39,461.13
105.07108,357.63,461.36
105.09047,354.94,462.78
105.11162,356.23,462.00
105.13003,355.19,463.00
105.15109,358.71,464.16
105.17020,359.14,464.79
105.19293,358.10,465.40
105.21212,359.55,462.72
105.23141,358.60,466.51
105.25146,359.61,466.31
105.27080,361.22,464.29
105.29147,359.58,464.30
105.31109,359.73,464.35
105.33032,360.36,465.56
105.35062,359.09,464.59
105.37095,359.08,466.54
105.39021,359.70,466.56
105.41179,359.67,463.03
105.43033,357.64,463.95
105.45168,359.06,462.07
105.47028,358.11,464.93
105.49118,357.24,464.64
105.51131,359.86,463.77
105.53128,358.56,462.30
105.55131,358.40,461.29
105.57005,357.83,464.54
105.59052,360.69,462.46
105.61180,359.32,463.06
105.63162,361.36,464.80
105.65010,359.08,463.19
105.67256,361.22,464.34
105.69164,359.14,464.63
105.71050,358.60,464.06
105.73181,359.34,463.95
105.75219,362.39,463.04
105.77295,360.92,464.33
105.79387,362.50,461.81
105.81204,362.24,460.69
105.83229,362.56,463.16
105.85323,365.42,461.40
105.87462,364.99,463.24
105.89419,367.19,460.42
105.91359,365.63,461.03
105.93340,366.41,460.79
105.95279,366.67,459.65
105.97353,367.25,460.39
105.99360,368.22,459.29
106.01466,366.70,461.89
106.03321,365.19,458.83
106.05302,366.89,461.25
106.07273,368.38,459.94
106.09477,370.67,463.33
106.11284,367.70,462.34
106.13329,370.49,462.84
106.15280,370.77,461.65
106.17392,367.88,460.67
106.19352,370.16,460.27
106.21396,366.56,459.27
106.23353,367.14,460.21
106.25262,367.74,457.25
106.27371,368.64,458.47
106.29263,370.98,460.28
106.31267,367.80,459.32
106.33273,368.51,459.36
106.35345,369.89,457.51
106.37263,369.15,460.27
106.39479,368.85,458.62
106.41339,368.01,458.47
106.43417,367.96,461.23
106.45236,369.31,462.18
106.47245,367.24,459.62
106.49484,369.85,458.75
106.51432,367.26,461.67
106.53395,367.42,461.08
106.55420,368.98,465.05
106.57316,366.80,468.00
106.59378,370.33,465.58
106.61324,369.40,467.25
106.63453,367.01,470.26
106.65329,371.00,467.45
106.67425,371.53,469.29
106.69313,369.26,465.26
106.71284,368.82,465.33
106.73479,368.07,466.62
106.75347,370.79,466.42
106.77325,368.61,464.78
106.79306,369.81,464.04
106.81361,368.60,460.91
106.83343,369.10,459.45
106.85390,367.00,461.95
106.87386,368.24,461.07
106.89210,370.75,457.63
106.91447,368.22,460.09
106.93386,372.09,458.37
106.95354,370.36,455.71
106.97217,370.20,458.79
106.99314,371.56,457.05
107.01225,370.52,459.95
107.03384,369.15,456.08
107.05220,370.49,458.17
107.07388,372.41,459.59
107.09321,369.09,457.57
107.11492,369.81,458.47
107.13268,369.44,460.44
107.15309,369.81,456.65
107.17350,368.82,458.03
107.19349,369.60,457.27
107.21379,370.35,457.13
107.23219,369.20,459.02
107.25422,367.82,459.98
107.27274,367.22,460.01
107.29246,368.18,461.02
107.31309,371.59,463.06
107.33360,364.66,460.30
107.35397,353.31,462.64
107.37289,334.52,466.12
107.39298,315.18,463.58
107.41260,298.01,460.42
107.43302,283.70,455.28
107.45387,271.19,447.31
107.47286,264.43,438.43
107.49347,259.83,431.69
107.51376,259.15,426.45
107.53269,262.37,423.78
107.55373,265.55,421.12
107.57333,271.55,418.94
107.59228,280.52,422.26
107.61238,288.51,421.39
107.63215,294.90,422.92
107.65415,305.82,428.73
107.67292,313.09,430.78
107.69211,316.87,433.47
107.71250,322.58,435.25
107.73394,331.42,441.00
107.75228,336.64,440.53
107.77275,341.99,442.70
107.79307,346.81,445.70
107.81347,349.95,449.85
107.83374,349.56,448.72
107.85419,355.00,451.30
107.87488,357.09,454.77
107.89381,359.03,455.70
107.91339,362.66,457.50
107.93508,361.97,456.98
107.95675,362.62,457.83
107.97429,364.45,462.12
107.99510,361.97,461.15
108.01559,364.60,461.36
108.03545,364.49,460.10
108.05411,362.97,464.48
108.07564,365.03,461.30
108.09557,367.71,465.15
108.11424,368.19,463.67
108.13467,368.52,465.63
108.15584,369.17,470.96
108.17554,379.94,490.24
108.19403,391.62,523.54
108.21460,413.32,562.30
108.23641,439.01,595.50
108.25699,463.59,611.09
108.27641,484.82,609.75
108.29741,500.04,593.80
108.31749,505.76,565.52
108.33777,505.51,538.40
108.35799,500.42,513.47
108.37867,492.45,492.49
108.39705,484.66,474.67
108.41741,472.81,460.85
108.43795,461.68,446.75
108.45734,452.18,438.61
108.47651,441.47,432.65
108.49640,431.71,429.00
108.51658,425.08,426.26
108.53645,417.78,429.01
108.55726,409.53,426.78
108.57635,403.33,428.46
108.59684,398.74,432.90
108.61763,395.52,433.75
108.63740,391.15,436.71
108.65686,388.11,439.67
108.67679,388.10,442.59
108.69635,382.13,446.64
108.71619,382.88,447.90
108.73816,378.20,450.42
108.75728,375.92,451.58
108.77620,375.30,454.16
108.79727,374.30,452.05
108.81749,373.93,452.63
108.83704,373.05,455.16
108.85659,371.60,455.13
108.87741,374.26,457.96
108.89724,372.03,457.69
108.91704,371.39,459.67
108.93686,370.38,459.24
108.95762,371.00,460.77
108.97784,370.34,459.70
108.99615,370.84,460.16
109.01702,369.13,461.76
109.03616,371.27,460.12
109.05754,370.58,459.87
109.07624,368.82,461.77
109.09676,367.21,460.73
109.11833,367.30,458.52
109.13798,366.03,458.95
109.15703,366.06,460.28
109.17639,366.83,461.29
109.19698,367.81,462.05
109.21797,366.34,459.16
109.23716,365.09,459.99
109.25646,365.79,460.38
109.27657,367.60,459.31
109.29664,366.95,461.83
109.31620,369.22,459.66
109.33892,368.36,462.93
109.35645,366.46,463.05
109.37792,368.78,463.08
109.39691,365.89,462.39
109.41704,365.42,460.75
109.43771,365.23,460.39
109.45761,365.60,459.36
109.47654,364.84,459.72
109.49735,364.70,461.24
109.51609,364.62,462.35
109.53608,364.42,461.38
109.55785,368.08,463.42
109.57624,366.48,462.55
109.59746,368.32,462.19
109.61616,367.79,464.77
109.63896,367.01,461.52
109.65773,366.07,463.98
109.67829,363.73,464.01
109.69780,365.62,462.10
109.71881,366.47,461.07
109.73800,364.99,462.75
109.75741,362.77,463.38
109.77882,363.11,461.30
109.79717,364.19,461.22
109.81758,360.31,462.77
109.83876,360.90,460.04
109.85816,361.33,460.77
109.87821,361.05,459.10
109.89825,360.76,460.31
109.91759,361.83,460.81
109.93770,360.68,460.04
109.95885,361.29,463.25
109.97721,359.04,461.09
109.99777,360.96,462.40
110.01767,360.60,462.09
110.03729,359.86,460.98
110.05878,359.78,459.09
110.07880,360.95,462.91
110.09829,360.31,462.15
110.11981,362.39,460.44
110.13816,361.42,462.39
110.15817,362.82,459.62
110.17700,359.54,462.78
110.19792,358.89,461.93
110.21997,361.15,461.72
110.23885,361.89,461.71
110.25749,362.64,460.08
110.27860,360.42,463.07
110.29829,360.75,461.28
110.31820,362.95,459.06
110.33797,362.64,462.37
110.35895,362.61,461.01
110.37810,364.38,459.76
110.39728,362.86,460.31
110.41891,361.71,461.14
110.43830,362.70,458.99
110.45896,364.06,461.67
110.47896,362.24,462.40
110.49741,365.17,461.22
110.51837,363.84,461.41
110.53816,364.57,463.35
110.55764,363.31,462.34
110.57878,366.16,460.78
110.59990,363.18,462.75
110.61866,364.32,464.28
110.63880,362.24,464.31
110.65964,360.88,460.92
110.67977,359.28,463.10
110.69888,360.73,463.31
110.71943,359.84,463.29
110.73927,360.05,464.03
110.75947,360.04,463.91
110.77980,361.00,461.72
110.79880,361.50,462.58
110.81864,360.61,461.97
110.83997,359.54,461.60
110.85919,357.80,462.38
110.87945,357.02,460.96
110.89932,356.54,461.78
110.91848,355.91,462.76
110.93961,356.83,459.65
110.95937,355.60,460.08
110.97813,355.99,460.36
110.99987,359.32,461.36
111.01989,359.01,459.41
111.04043,357.74,459.38
111.06058,356.62,460.96
111.08037,356.87,459.90
111.10026,356.45,457.71
111.12076,356.83,460.36
111.14022,356.27,458.06
111.15918,356.54,456.79
111.17996,356.57,458.19
111.19987,355.57,456.24
111.21933,355.25,458.72
111.23907,355.16,454.83
111.26051,356.49,459.26
111.28016,355.52,458.27
111.29954,350.34,458.96
111.31935,336.98,458.57
111.33956,321.33,453.10
111.35952,301.99,448.00
111.37928,283.65,440.73
111.39921,269.54,434.20
111.42052,255.91,430.86
111.43975,247.46,423.81
111.45997,243.40,423.42
111.47937,243.47,420.13
111.50035,244.31,421.86
111.52089,246.48,418.79
111.53953,248.09,421.97
111.56096,251.78,421.75
111.58114,259.42,421.04
111.59946,266.44,423.12
111.61918,271.26,427.00
111.64027,277.80,429.59
111.65939,284.12,433.48
111.68006,293.96,433.60
111.70075,301.32,438.19
111.71968,307.81,440.22
111.73975,313.22,442.80
111.75971,317.36,442.77
111.77906,320.84,445.94
111.79906,325.48,447.18
111.82063,329.62,451.28
111.84053,334.32,450.67
111.86095,336.70,451.45
111.87963,336.63,453.40
111.89961,338.98,453.60
111.92026,341.65,454.38
111.94056,343.92,455.38
111.95985,347.22,454.43
111.97919,344.13,456.91
112.00023,346.69,453.90
112.02072,347.55,457.73
112.04180,347.94,457.81
112.06115,349.48,456.00
112.08025,348.28,454.79
112.10272,350.60,456.13
112.12061,349.53,458.59
112.14005,349.22,456.51
112.16166,349.83,458.65
112.18118,351.97,457.23
112.20086,351.18,455.72
112.22105,351.84,458.66
112.24123,352.19,455.35
112.26106,361.95,461.75
112.28186,376.44,465.40
112.30163,394.01,476.52
112.32014,415.79,484.97
112.34113,435.90,493.60
112.36139,456.64,496.77
112.38126,474.92,503.02
112.40177,488.08,505.31
112.42055,489.80,502.76
112.44055,490.67,501.44
112.46189,482.60,497.01
112.48098,474.76,490.21
112.50296,463.37,486.28
112.52184,451.70,483.38
112.54169,442.91,481.27
112.56134,431.58,475.57
112.58273,424.36,474.45
112.60215,414.62,471.34
112.62286,405.92,468.84
112.64132,400.14,469.22
112.66134,395.01,466.87
112.68198,390.90,465.32
112.70246,382.44,465.29
112.72126,380.25,464.48
112.74219,376.12,461.39
112.76280,372.27,460.93
112.78278,368.82,460.65
112.80300,370.51,458.71
112.82293,367.94,456.65
112.84115,364.71,456.60
112.86196,364.28,458.32
112.88117,360.04,456.04
112.90245,358.31,458.85
112.92201,358.23,457.09
112.94137,358.94,457.27
112.96186,358.07,459.02
112.98181,357.51,457.52
113.00168,357.60,458.50
113.02263,358.75,456.45
113.04291,359.16,459.49
113.06204,358.06,459.48
113.08190,355.16,460.48
113.10367,356.86,459.69
113.12260,358.83,458.11
113.14278,357.00,459.00
113.16262,354.17,458.13
113.18163,354.68,458.53
113.20180,355.18,457.36
113.22173,352.60,460.11
113.24223,355.52,458.82
113.26251,355.77,461.40
113.28131,355.55,458.30
113.30276,355.50,458.91
113.32223,356.12,460.59
113.34136,355.13,461.46
113.36257,355.09,460.02
113.38107,356.89,458.30
113.40236,354.50,460.32
113.42150,357.24,460.42
113.44200,355.47,461.00
113.46162,354.57,461.05
113.48211,355.32,457.42
113.50244,354.37,457.14
113.52146,354.01,456.54
113.54142,357.64,455.01
113.56125,356.94,454.88
113.58106,353.17,455.86
113.60183,353.77,454.64
113.62126,354.30,456.41
113.64298,355.73,455.15
113.66196,356.16,456.65
113.68289,355.90,456.37
113.70257,355.69,458.76
113.72255,355.72,456.82
113.74274,354.59,459.08
113.76130,353.79,458.41
113.78138,354.86,458.89
113.80249,354.57,458.99
113.82269,354.85,457.28
113.84291,354.00,456.75
113.86107,355.24,460.34
113.88148,351.47,458.45
113.90139,353.22,459.17
113.92287,354.39,456.37
113.94130,355.59,459.11
113.96186,353.86,458.42
113.98234,355.24,459.45
114.00197,353.58,458.32
114.02197,356.46,458.76
114.04261,353.57,458.64
114.06161,355.23,458.86
114.08200,354.32,460.86
114.10245,354.57,460.40
114.12132,354.63,461.08
114.14170,354.90,460.90
114.16190,357.23,462.72
114.18291,355.20,461.72
114.20102,357.16,461.06
114.22266,358.07,458.54
114.24215,354.96,461.90
114.26151,356.73,461.77
114.28143,356.06,461.10
114.30277,357.08,458.27
114.32208,355.68,459.94
114.34191,355.75,459.25
114.36150,358.36,458.82
114.38232,355.72,459.54
114.40264,355.47,459.38
114.42217,356.03,456.98
114.44291,355.34,457.80
114.46245,358.88,459.20
114.48209,359.00,461.97
114.50225,359.49,462.34
114.52280,360.65,461.09
114.54245,360.04,460.93
114.56180,359.35,460.00
114.58280,356.42,462.92
114.60253,356.36,460.60
114.62127,358.72,458.93
114.64251,358.60,460.69
114.66270,355.05,459.49
114.68190,356.86,457.86
114.70278,358.03,457.36
114.72144,358.43,459.35
114.74160,357.92,459.25
114.76230,357.95,460.81
114.78188,358.61,459.81
114.80295,357.45,459.86
114.82198,358.84,459.77
114.84243,356.15,462.15
114.86224,355.64,459.04
114.88259,356.28,458.81
114.90174,357.03,459.72
114.92144,358.63,458.98
114.94134,354.85,460.23
114.96180,356.65,460.85
114.98144,359.79,459.24
115.00270,359.32,461.06
115.02159,359.78,461.16
115.04175,359.56,459.21
115.06283,361.55,458.28
115.08297,361.56,458.96
115.10128,363.17,458.35
115.12335,360.96,461.16
115.14327,360.04,458.95
115.16482,363.13,460.57
115.18367,361.02,458.22
115.20495,360.56,458.84
115.22520,361.47,461.11
115.24437,365.01,460.03
115.26420,366.48,460.98
115.28646,364.11,460.19
115.30588,365.89,460.07
115.32466,368.92,459.20
115.34411,368.59,458.83
115.36488,371.38,458.99
115.38556,370.49,459.27
115.40423,372.52,459.28
115.42520,370.43,460.26
115.44532,372.19,459.05
115.46497,370.35,459.99
115.48502,373.22,458.35
115.50506,371.10,458.38
115.52514,372.51,459.60
115.54604,372.11,458.13
115.56501,370.75,457.85
115.58609,369.16,458.17
115.60603,371.78,458.31
115.62734,372.70,458.17
115.64794,370.87,457.29
115.66895,371.76,459.34
115.68962,369.02,460.43
115.70976,371.55,459.46
115.72867,370.23,461.32
115.74903,371.89,460.38
115.76972,369.42,460.85
115.78903,367.97,462.28
115.80892,367.72,463.47
115.82828,367.20,462.61
115.84957,369.06,464.33
115.87000,369.26,461.28
115.88814,369.41,461.73
115.90895,367.88,463.37
115.92845,370.23,463.38
115.94810,367.81,464.06
115.96802,371.77,463.83
115.98844,369.08,462.97
116.00822,365.67,464.32
116.02943,363.48,463.44
116.04880,359.23,462.61
116.07041,360.87,459.93
116.08915,358.81,459.24
116.11084,359.10,460.83
116.13030,356.12,458.49
116.14963,344.96,457.52
116.16950,330.77,458.70
116.18985,308.28,457.03
116.21200,290.01,452.61
116.23018,273.81,443.65
116.25196,262.95,439.67
116.27061,255.62,430.75
116.29010,254.60,425.59
116.31148,254.27,422.59
116.33018,257.91,415.10
116.35123,261.37,411.22
116.37055,266.26,413.25
116.39090,271.41,409.58
116.41128,277.64,412.77
116.43025,286.01,413.60
116.45068,291.31,417.44
116.47108,298.30,420.29
116.49073,305.83,423.31
116.51098,310.79,430.13
116.53022,319.84,430.54
116.55125,325.75,437.35
116.57046,330.15,438.28
116.59039,334.59,440.12
116.61070,338.20,446.18
116.63073,345.14,447.24
116.65135,346.60,447.39
116.67095,347.10,448.81
116.69000,349.74,450.76
116.71127,352.97,453.80
116.73118,353.87,456.15
116.75087,355.81,457.63
116.77038,356.50,457.91
116.79110,359.50,457.56
116.81164,356.95,459.81
116.83076,360.75,461.29
116.85089,359.91,463.02
116.87149,360.28,462.09
116.89090,361.96,464.08
116.91039,363.12,465.30
116.93074,364.81,464.16
116.95146,374.49,469.46
116.97021,382.07,474.46
116.99052,395.25,490.03
117.01184,416.76,505.95
117.03088,439.21,526.65
117.05144,458.65,542.28
117.07090,476.36,547.57
117.09150,491.74,545.65
117.11058,500.46,531.54
117.13099,503.55,518.15
117.15007,498.00,505.30
117.17166,490.36,496.22
117.19063,480.87,487.49
117.21012,469.61,479.07
117.23104,455.43,474.97
117.25094,445.16,472.01
117.27090,435.27,468.02
117.29108,424.16,466.92
117.31002,419.51,462.36
117.33161,411.42,463.51
117.35145,404.95,463.70
117.37176,399.04,462.17
117.39182,394.40,462.33
117.41171,389.33,462.58
117.43097,388.07,463.83
117.45126,383.08,460.59
117.47284,378.84,461.28
117.49157,374.18,461.23
117.51202,371.49,461.53
117.53295,371.46,460.50
117.55283,369.18,459.49
117.57200,366.52,459.34
117.59185,366.77,458.76
117.61137,365.42,458.91
117.63139,364.85,462.14
117.65179,363.13,460.39
117.67190,360.31,460.30
117.69260,361.42,461.13
117.71300,362.06,460.26
117.73114,362.98,460.24
117.75191,361.13,458.82
117.77230,361.26,458.70
117.79283,361.92,460.46
117.81252,361.06,458.33
117.83124,360.43,458.93
117.85115,361.52,458.38
117.87270,361.38,456.46
117.89189,360.28,460.12
117.91125,359.17,460.26
117.93114,361.73,459.17
117.95140,360.02,459.70
117.97135,356.84,460.22
117.99127,356.08,462.67
118.01149,359.23,461.85
118.03291,358.28,459.87
118.05191,356.30,460.61
118.07214,357.58,461.71
118.09293,357.33,461.39
118.11199,356.30,459.84
118.13163,353.85,461.59
118.15396,352.77,460.24
118.17265,352.21,460.21
118.19373,350.16,460.74
118.21203,349.68,460.36
118.23307,350.95,460.71
118.25223,353.87,460.05
118.27219,352.88,459.44
118.29314,351.65,462.72
118.31369,354.93,459.49
118.33386,354.50,458.99
118.35328,356.11,461.46
118.37356,354.55,462.28
118.39211,354.05,462.52
118.41298,352.30,460.41
118.43219,352.39,462.21
118.45345,350.78,460.87
118.47288,353.37,462.47
118.49336,352.44,462.51
118.51245,353.16,459.46
118.53258,353.83,461.64
118.55388,350.77,459.98
118.57395,351.44,460.47
118.59278,351.73,460.99
118.61275,352.41,460.11
118.63381,351.51,463.33
118.65307,353.43,463.76
118.67390,354.34,459.97
118.69265,354.78,459.50
118.71212,353.64,459.92
118.73218,355.28,458.93
118.75217,352.52,460.10
118.77253,353.81,461.19
118.79367,354.21,461.34
118.81237,355.27,457.32
118.83239,354.13,458.74
118.85323,353.92,461.03
118.87247,353.23,459.79
118.89385,355.61,456.34
118.91328,351.96,456.95
118.93319,353.86,455.77
118.95313,353.45,459.92
118.97347,354.00,457.66
118.99373,351.49,456.48
119.01384,351.83,457.99
119.03354,353.74,455.10
119.05232,354.34,455.86
119.07396,354.77,456.68
119.09223,354.11,457.87
119.11365,353.29,456.86
119.13307,354.66,459.29
119.15251,354.09,456.12
119.17395,352.06,456.04
119.19327,352.19,459.29
119.21385,351.37,456.63
119.23291,351.85,456.21
119.25345,351.35,456.00
119.27232,352.67,456.30
119.29217,353.47,457.34
119.31284,352.00,459.88
119.33347,352.22,459.67
119.35233,351.12,460.76
119.37251,352.03,459.25
119.39357,352.15,460.78
119.41354,353.33,458.79
119.43300,354.67,460.27
119.45369,355.72,458.95
119.47341,356.55,460.01
119.49341,357.20,459.25
119.51392,357.42,461.05
119.53362,354.82,458.40
119.55349,355.39,459.55
119.57388,354.09,458.95
119.59271,352.47,459.27
119.61277,351.12,459.15
119.63220,353.34,458.96
119.65284,350.33,461.12
119.67210,351.35,460.48
119.69216,352.56,458.57
119.71286,352.55,457.85
119.73274,350.84,459.67
119.75354,354.01,457.12
119.77318,351.51,457.32
119.79396,354.30,457.67
119.81293,355.23,457.58
119.83300,353.11,460.26
119.85262,354.99,458.80
119.87273,354.56,459.38
119.89326,353.45,459.84
119.91349,355.38,456.02
119.93256,353.20,457.23
119.95309,355.08,455.25
119.97222,352.80,456.13
119.99270,352.71,458.36
120.01265,353.95,456.81
120.03277,355.07,457.33
120.05262,351.41,455.96
120.07361,354.59,458.64
120.09305,352.08,457.20
120.11314,351.70,459.42
120.13331,353.26,459.63
120.15369,353.16,458.67
120.17281,351.84,456.26
120.19314,350.50,457.08
120.21336,352.69,456.06
120.23399,350.11,454.59
120.25208,350.00,456.50
120.27331,352.49,457.84
120.29298,352.91,456.34
120.31253,350.41,455.52
120.33274,353.79,458.47
120.35389,352.78,457.12
120.37254,354.64,457.56
120.39307,354.42,459.24
120.41308,352.92,459.04
120.43287,354.78,459.15
120.45335,354.57,460.21
120.47355,353.57,457.63
120.49291,355.58,458.48
120.51381,356.38,457.16
120.53321,354.43,456.06
120.55225,352.71,458.71
120.57371,351.65,455.88
120.59382,354.21,455.29
120.61364,353.32,456.85
120.63260,356.14,458.61
120.65369,354.49,457.78
120.67254,354.31,454.79
120.69294,352.10,457.59
120.71216,351.36,457.21
120.73218,351.65,455.05
120.75343,353.17,455.09
120.77308,353.57,454.08
120.79301,354.85,456.44
120.81341,352.96,456.02
120.83302,352.56,455.89
120.85243,355.27,455.74
120.87303,355.23,457.80
120.89240,353.28,455.03
120.91351,354.52,457.43
120.93266,354.60,456.37
120.95299,352.48,458.30
120.97330,354.44,456.28
120.99393,354.85,459.67
121.01366,354.10,456.24
121.03276,352.70,459.40
121.05262,352.80,458.43
121.07209,354.40,458.02
121.09309,352.95,460.52
121.11337,353.20,457.99
121.13358,355.44,458.68
121.15396,354.84,460.05
121.17319,355.76,456.28
121.19228,352.09,456.10
121.21352,353.11,457.07
121.23339,355.24,459.18
121.25309,354.05,456.39
121.27292,354.63,458.84
121.29283,353.51,456.61
121.31296,355.05,456.50
121.33256,356.21,458.74
121.35232,354.47,462.31
121.37243,351.98,449.34
121.39322,342.94,438.00
121.41372,336.45,419.90
121.43249,335.47,407.76
121.45242,331.69,405.40
121.47258,332.29,402.01
121.49285,331.77,404.58
121.51351,332.33,405.72
121.53279,331.17,409.25
121.55392,334.76,412.52
121.57205,338.77,420.59
121.59207,340.11,422.90
121.61374,341.94,428.64
121.63313,343.87,434.01
121.65362,344.65,439.26
121.67211,348.16,441.35
121.69349,349.19,444.24
121.71334,349.69,448.34
121.73359,352.62,452.71
121.75251,350.53,456.43
121.77302,350.22,466.48
121.79253,351.92,482.52
121.81274,353.99,508.26
121.83272,352.54,535.71
