Program Time [s],data 0,data 1
4.7669,503.04,576.29
4.78706,504.44,576.63
4.80699,504.95,576.9
4.82708,505.76,577.32
4.84701,505.61,576.46
4.86686,504.69,575.37
4.88683,504.35,574.09
4.90707,502.28,573.07
4.92685,502.02,570.06
4.94683,502.02,567.65
4.96686,501.21,565.72
4.98688,502.97,567.17
5.0069,503.78,569.34
5.02688,503.62,571.27
5.04684,504.9,572.82
5.06683,505.72,575.45
5.08782,507.17,576.56
5.10783,508.54,577.45
5.12805,510.43,577.56
5.14783,514.55,578.65
5.1679,518.44,578.72
5.18783,518.75,580.77
5.20799,520.8,579.82
5.22789,523.04,578.26
5.24783,524.83,577.6
5.26781,525.47,576.48
5.28782,524.77,575.19
5.30782,523.22,575.95
5.32783,522.77,576.16
5.34784,521.82,576.53
5.36785,518.46,577.42
5.38789,516.16,579.34
5.40789,513.13,579.47
5.42806,508.51,582.18
5.44823,505.8,583.34
5.46819,503.64,584.47
5.48821,502.71,583.78
5.50775,503.97,582.62
5.52821,504.58,580.3
5.54796,507.06,580.44
5.56793,507.85,580.75
5.58804,507.68,580.6
5.60782,508.34,581.08
5.62788,508.47,582.26
5.64782,508.98,581.81
5.66786,508.58,579.85
5.68883,508.27,577.88
5.7088,507.81,578.5
5.72883,506.25,578.6
5.74888,505,579.28
5.76882,503.6,579.83
5.78885,502.68,580.46
5.80898,500.54,578.97
5.82888,499.04,577.17
5.84941,498.23,576.54
5.8689,495.78,574.63
5.88891,493.63,575.31
5.90906,492.3,574.84
5.92907,492.64,575.28
5.94888,492.31,576.02
5.96909,490.85,576.62
5.98882,491.08,576.29
6.00901,492.26,577.43
6.02888,492.41,577.95
6.04887,492.53,579.16
6.06891,493.62,579.73
6.08978,494.3,579.18
6.10974,495.84,580.54
6.12979,496.87,580.64
6.14989,498.5,580.91
6.16985,500,582.13
6.18979,501,581.3
6.20985,502.8,582.04
6.2298,504.24,582.03
6.24983,506.19,582.43
6.26977,506.15,581.34
6.28987,505.32,580.47
6.30993,505.66,580.78
6.32978,506.73,580.62
6.34975,506.58,580.3
6.36985,505.46,580.64
6.38975,504.77,580.71
6.40977,503.82,580.17
6.42979,503.65,580.53
6.45,501.52,580.43
6.46988,499.62,580.74
6.48975,499.89,580.79
6.50988,500.12,582.04
6.5308,500.49,582.83
6.55107,502.19,581.86
6.57117,503.16,582.29
6.59128,503.12,582.03
6.61087,502.7,581.83
6.63079,502.96,582.06
6.65088,503.17,581.85
6.67089,503.13,580.28
6.69088,502.31,579.62
6.71076,501.25,580.9
6.73088,501.2,581.72
6.75085,500.96,581.97
6.77096,501.77,582.78
6.79159,502.61,583.22
6.81124,503.29,582.38
6.83107,503.03,580.9
6.85087,501.83,581.12
6.87188,501.86,580.9
6.89189,500.29,579.32
6.91277,500.43,578.25
6.93288,501.34,579
6.9528,502.48,580.2
6.97286,502.38,581.16
6.99287,503.1,581.33
7.01299,501.88,582.06
7.03403,502.51,582.25
7.05375,501.61,582.8
7.07387,500.88,583.24
7.09399,500.11,585.19
7.11386,500.49,589.15
7.13482,498.99,595.32
7.15472,505.59,594.86
7.17479,520.07,585.69
7.19487,542.26,569.35
7.21484,564.61,544.48
7.23475,585.69,515.98
7.25485,601.15,487.99
7.27514,611.12,461.39
7.29481,615.29,441.51
7.3148,613.44,428.41
7.33472,606.35,422.53
7.35507,595.28,421.42
7.37492,584.62,424.54
7.39489,570.3,429.43
7.41485,558.44,438.14
7.435,545.55,447.72
7.45475,535.44,460.77
7.475,528.35,473.22
7.49486,521.68,484.97
7.5149,516.95,497.18
7.53484,513.36,505.74
7.55492,511.49,514.19
7.57502,509.39,522.56
7.59501,506.91,529.64
7.61498,506.13,535.52
7.63575,503.9,539.81
7.65598,504.32,544.65
7.67573,502.46,547.32
7.69586,500.97,549.66
7.71594,500.17,553.12
7.73589,499.54,555.5
7.75573,498.63,558.2
7.77585,498.3,560.36
7.79582,499.44,563.29
7.81591,496.95,569.23
7.83576,492.16,581.38
7.85583,487.33,591.71
7.87574,484.46,596.37
7.89582,482.17,600.89
7.91598,482.14,602.71
7.93576,483.11,602.77
7.95583,483.49,601.82
7.97595,485.19,600.65
7.99589,487.75,600.32
8.01579,475.4,616.06
8.0358,456.52,651.65
8.0558,438.62,698.32
8.07582,432.49,739.85
8.09584,431.8,758.48
8.1158,435.24,754.79
8.13575,439.79,740.03
8.15581,446.23,719.62
8.17579,452.38,697.7
8.19582,458.11,677.56
8.21579,462.29,659.85
8.23584,466.03,647.48
8.25672,469.62,635.78
8.27678,474.3,625.23
8.29676,478.04,616.98
8.31688,481.23,608.58
8.33688,484.38,602.47
8.35681,486.51,596.97
8.3769,487.21,593.78
8.39704,487.97,591.22
8.41674,490.57,589.18
8.43673,492.06,587.94
8.45689,493.45,585.95
8.47673,494.76,582.96
8.49672,497.01,581.37
8.51685,496.4,579.9
8.53673,497.72,579.72
8.55681,498.38,579.17
8.57685,498.9,579.14
8.59793,498.52,576.51
8.6179,497.82,574.21
8.63786,497.05,573.57
8.65875,496.24,572.85
8.67872,497.39,571.68
8.69889,496.72,570.35
8.71875,497.17,570.28
8.73882,498.94,569.82
8.75985,498.95,568.26
8.78005,499.76,568.41
8.79986,499.61,568.72
8.81984,499.29,568.98
8.83995,499.03,569.18
8.85988,498.02,569.15
8.87986,498.42,568.92
8.89984,499.54,569.13
8.91991,499.83,568.91
8.94081,499.46,567.93
8.96094,498.97,566.14
8.98083,498.78,565.51
9.00189,498.82,563.81
9.02185,499.06,562.45
9.04281,499.25,561.76
9.06283,499.6,561.81
9.08278,500.68,562.25
9.10281,499.54,561.6
9.12282,499.23,561.68
9.14376,498.99,562.74
9.16376,498.59,561.99
9.18405,498.27,563.19
9.20385,498.02,562.16
9.22376,497.21,562.72
9.24381,497.37,563.18
9.26381,498.1,563.54
9.28378,497.28,563.43
9.30373,495.62,564.75
9.32381,494.9,564.2
9.34384,494.52,566.16
9.36381,495.41,568.33
9.38376,494.53,571.46
9.40379,495.03,576.17
9.42379,501.62,567.94
9.44378,514.9,545.55
9.46382,532.92,518.44
9.4849,551.13,490.95
9.50498,566.31,466.56
9.52589,576.65,444.05
9.54588,582.32,428.24
9.56573,580.65,419.59
9.58576,575.32,415.07
9.6058,568.66,416.66
9.62583,561.33,420.93
9.64574,553.66,428.94
9.66574,543.73,437.75
9.68578,536.58,449.2
9.70679,528.07,461.16
9.72689,522.25,473.13
9.74671,517.8,484.1
9.76699,513.84,493.48
9.78699,510.07,502.99
9.8078,507.06,509.79
9.82787,505.65,517.23
9.84778,504.12,521.98
9.86779,503.89,527.99
9.88785,502.92,532.59
9.90883,501.73,536.87
9.92883,501.39,541.3
9.9488,500.11,543.44
9.96874,500.49,545.75
9.98875,499.19,548
10.0088,498.75,549.8
10.0289,498,551.44
10.0491,497,552.75
10.0689,495.6,555.2
10.0888,496.28,568.36
10.109,494.02,598.29
10.1289,487.42,644.03
10.149,477.34,695.23
10.1688,463.27,738.38
10.1888,454.41,763.7
10.2088,450.53,765.76
10.2289,448.23,751.41
10.2491,450.38,731.73
10.2687,452.3,708.18
10.2888,456.04,684.55
10.3088,459.63,663.84
10.3287,461.91,645.27
10.3488,464.13,630.02
10.3687,468.3,618.21
10.3888,464.84,608.77
10.4089,463.27,599.42
10.4288,464.02,591.93
10.4488,466.01,586.15
10.4689,468.81,580.72
10.4887,471.25,575.77
10.5088,472.8,572.02
10.5291,475.04,569.42
10.549,476.83,568.33
10.5688,478.67,568.07
10.5888,481.13,568.45
10.6088,482.91,568.16
10.6288,489.12,568.33
10.6487,492.1,568.06
10.6689,494.48,567.45
10.6898,496.18,568.16
10.7098,498.15,569.93
10.7308,498.32,569.94
10.7509,499.05,570.75
10.771,499.84,570.4
10.7908,499.47,570.32
10.8118,500.78,572.26
10.8318,501.62,573.81
10.8518,499.9,574.65
10.872,500.12,574.32
10.8917,497.1,573.65
10.9119,495.68,572.32
10.9318,494.54,571.66
10.9518,495.03,571.53
10.972,495.63,572.02
10.992,494.5,573.42
11.0119,494.4,574.73
11.0318,495.12,574.79
11.0518,495.1,573.03
11.0718,495.08,572.22
11.0918,496.46,571.78
11.1118,495.77,570.42
11.1318,496.02,569.54
11.1518,497.21,569.43
11.1717,497.37,568.74
11.1918,496.1,568.8
11.2118,494.88,569.84
11.2318,493.9,569.07
11.2519,494.92,569.06
11.2718,495.54,568.64
11.2918,496.63,569.52
11.3117,495.7,569.01
11.3317,495.96,569.41
11.3517,496.97,569.33
11.3718,496.58,568.66
11.3918,495.86,567.93
11.4117,496.29,566.94
11.4317,496.43,567.56
11.4518,496.94,567.44
11.4718,498.96,567.36
11.4918,498.56,566.68
11.5118,497.85,566.75
11.532,497.68,567.8
11.5518,497.95,568.64
11.5719,498.76,568.71
11.5918,498.8,568.37
11.6118,499.64,568.49
11.6317,499.32,567.2
11.652,499.05,566.76
11.6719,497.84,567.01
11.6917,500.27,568.6
11.7118,505.42,569.88
11.7317,508.53,569.91
11.7518,510.43,570.13
11.7717,512.54,572.1
11.7918,511.43,572.28
11.8119,510.95,576.62
11.8318,509.56,583.9
11.8518,511.45,588.32
11.8718,519.16,583.66
11.8918,531.53,570.12
11.9118,547.42,546.9
11.9318,559.14,516.92
11.9518,568.51,483.34
11.9719,573.81,454.47
11.9918,570.05,429.37
12.0117,563.44,412.1
12.0317,551.15,400.48
12.0518,536.32,394.38
12.0717,522.46,395.71
12.0919,509.36,402.37
12.1119,499.29,411.49
12.1318,491.23,423.19
12.1517,486.99,435.96
12.1717,483.59,448.56
12.1921,483.47,460.85
12.2121,483.78,472.48
12.2318,484.22,483.18
12.252,484.58,493.55
12.2721,485.46,501.44
12.2918,485.97,509.55
12.3117,486.78,515.84
12.3318,486.62,522.67
12.3519,486.3,527.94
12.3718,486.24,531.75
12.3919,486.39,535.6
12.4122,487.11,537.68
12.4319,489.49,540.74
12.4518,490.39,543.6
12.4719,492.11,545.08
12.4918,494.29,549.86
12.5117,494.03,571.69
12.5321,494.03,615.55
12.5517,489.82,677.04
12.5719,482.66,740.43
12.5917,476.53,776.35
12.6118,470.62,784.08
12.6318,467.7,770.06
12.6519,466.16,747.45
12.6718,465.53,722.36
12.6919,467.82,697.29
12.7117,469.66,672.83
12.7318,472.13,652.66
12.7518,474.1,634.53
12.7718,475.68,620.62
12.7917,479.34,609.9
12.8118,481.48,600.72
12.8319,483.18,594.78
12.8517,486.34,589.02
12.8717,487.88,584.22
12.8919,489.1,581.57
12.912,489.68,578.46
12.9318,490.34,576.97
12.9518,491.68,575.77
12.9717,492.34,573.22
12.9917,493.27,570.18
13.0119,494.02,568.74
13.0317,494.01,567.99
13.0519,494.21,568.79
13.0719,495.37,568.03
13.0917,496.3,567.63
13.1117,497.44,568.3
13.1317,496.55,567.24
13.1521,498.04,566.99
13.1719,499.03,566.59
13.1917,498.23,564.88
13.2117,498.78,564.5
13.2317,499.22,564.6
13.2518,498.98,564.88
13.2721,497.98,565.1
13.292,498.79,564.88
13.312,499.03,564.71
13.3317,499.02,564.37
13.3517,497.82,564.69
13.372,497.86,564.75
13.3918,498.48,564.6
13.4117,498.39,564.48
13.4318,496.91,564.39
13.4518,496.13,563.71
13.4719,495.3,562.77
13.4919,494.64,561.61
13.5119,495.31,560.89
13.5319,496.05,562.11
13.552,495.84,561.49
13.5718,496.87,561.39
13.592,496.3,560.71
13.6119,497.04,561.77
13.6319,498.03,562.62
13.6518,498.82,562.89
13.6718,498.06,562.51
13.6918,497.85,562.41
13.7117,497.68,561.73
13.7318,497.14,561.78
13.7527,497.91,562.63
13.7728,497.33,562.9
13.7927,496.07,563.32
13.8128,497.05,563.86
13.8328,497.84,564.89
13.8529,498.87,565.91
13.8737,498.9,566.13
13.8937,498.52,566.1
13.9148,499.02,568.28
13.9357,498.41,570.42
13.9557,498.53,571.34
13.9759,498.42,572.67
13.9958,498.94,572.74
14.0157,497.75,572.79
14.0357,497.8,572.43
14.056,497.24,571.75
14.0767,498.19,572
14.0968,498.35,573.8
14.1169,499.28,574.84
14.1368,500.43,576.27
14.1571,503.14,577.62
14.1768,514.11,570.29
14.1967,533.49,556.63
14.2167,552.99,540.31
14.2367,572.99,521.45
14.2568,588.6,500.56
14.2769,595.08,479.45
14.2967,596.46,458.76
14.3168,592.57,443.21
14.3368,583.45,432.56
14.358,569.96,427.45
14.3778,555.77,426.36
14.3977,540.22,427.89
14.4177,526.77,434.31
14.4378,514.62,443.25
14.4578,505.1,452.2
14.4778,498.88,462.76
14.4988,496.1,476.01
14.5187,493.68,487.81
14.5387,491.74,499.04
14.5587,490.6,508.64
14.5788,489.68,516.51
14.5988,489.94,525.41
14.6188,489.95,530.53
14.6388,491.56,536.62
14.6588,492.05,542.3
14.6789,493.44,547.24
14.6987,493.75,550.99
14.7188,494.8,554.99
14.7388,494.64,557.19
14.7597,494.51,561.55
14.7798,496.61,582.24
14.7999,501.09,629.8
14.8208,499.07,698.84
14.8408,485.46,761.47
14.8607,471.97,798.58
14.8808,462.57,805.06
14.9007,457.06,791.85
14.9208,456.25,769.68
14.9408,458.2,744.94
14.9607,461.16,718.75
14.9808,464.53,693
15.0008,468.22,672
15.0208,471.98,654.8
15.0409,474.98,639.84
15.0608,478.99,629.07
15.0809,482.19,620.86
15.1008,483.55,614.69
15.1208,485.44,607.95
15.1407,488.55,604.16
15.1608,488.64,602.13
15.1807,489.91,599.3
15.2009,491.93,598.24
15.2209,492.14,596.39
15.2408,493.52,594.51
15.2609,494.21,593.81
15.2808,492.57,592.25
15.3008,491.86,591.2
15.321,490.68,589.16
15.3409,489.95,587.33
15.3607,489.96,586.46
15.3819,491.57,584.57
15.4018,493.05,583.46
15.4217,494.44,583.76
15.4418,495.95,584.41
15.4618,495.56,582.93
15.4817,496.45,582.94
15.5017,497.36,583.35
15.5218,497.49,584.08
15.5419,498.19,584.47
15.5617,498.95,583.57
15.5819,498.96,583.26
15.6019,499.77,583.81
15.6217,500.42,584.45
15.6418,501.53,584.76
15.6619,502.23,585.41
15.6817,502.98,585.72
15.7019,502.58,584.18
15.7219,503.27,584.14
15.7418,501.81,583.91
15.7617,501.25,583.53
15.7818,501.2,584.23
15.8028,500.76,583.18
15.8228,499.81,582.74
15.8427,498.65,581.8
15.8629,499.12,581.24
15.8828,497.49,582.19
15.9028,496.6,581.55
15.9227,496.28,581.44
15.9427,496.62,581.35
15.9627,497.3,581.48
15.9829,498.24,581.39
16.0032,498.59,581.51
16.0227,499.27,582.01
16.0427,499.22,581.61
16.0628,499.97,581.08
16.0828,500.18,581.07
16.1029,499.74,579.85
16.1227,499.79,580.88
16.1427,500.64,581.91
16.1627,500.91,581.13
16.1827,502.13,580.9
16.2029,501.7,581.12
16.2227,501.96,582.1
16.2428,502.77,583.48
16.2628,501.62,584.58
16.2828,500.69,585.07
16.3027,501.15,586.05
16.323,500.72,587.04
16.3429,500.98,587.63
16.3629,501.98,587.91
16.3827,501.59,588.13
16.4028,501.47,588.7
16.4229,501.58,591.16
16.4428,504.06,590.13
16.4627,513.45,581.3
16.4829,527.56,564.84
16.503,545.05,544.27
16.5227,562.84,521.62
16.5428,575.87,498.7
16.5628,582.7,475.16
16.5828,582.16,456.32
16.603,576.33,442.86
16.6227,567.66,435.69
16.6429,554.73,432.95
16.6627,542.38,435.36
16.6827,529.71,439.29
16.7027,518.96,447.03
16.7229,510.97,458.82
16.7428,504.38,470.46
16.7628,499.1,482.57
16.7827,495.08,494.45
16.8027,492.87,504.16
16.8228,490.89,513.93
16.8428,490.51,523.14
16.8627,490.21,530.92
16.8831,490.97,536.13
16.9027,492.98,541.51
16.9227,494.98,545.8
16.9428,495.78,549.84
16.9628,495.63,554.08
16.9827,497.7,558.06
17.0027,499.56,562.85
17.0228,497.05,583.68
17.0427,491.04,626.74
17.0628,478.63,685.79
17.0828,466.91,738.84
17.1028,461.92,771.27
17.1227,460.74,776.01
17.1427,462.79,765.81
17.1627,465.23,747.45
17.1827,467.39,725.56
17.2028,471.91,704.45
17.2227,475.53,684.76
17.2428,478.02,667.61
17.2629,479.42,653.69
17.2828,483.33,640.75
17.3029,486.87,630.2
17.3229,488.69,622.16
17.343,489.36,618.13
17.3628,490.48,613.3
17.3827,492.59,609.84
17.403,493.87,606.07
17.4228,495.1,602.66
17.4429,495.88,598.73
17.4628,496.7,595.18
17.4828,496.96,593.55
17.5031,496.57,592.04
17.5228,496.66,589.43
17.5427,496.72,589.14
17.5628,497.18,589.31
17.583,497.74,588.85
17.6029,498.39,587.08
17.6227,499.12,586.86
17.6427,497.69,586.89
17.6629,498.55,586.71
17.6827,498.84,585.57
17.7027,498.07,586.46
17.7227,497.26,586.37
17.7427,498.21,585.29
17.7628,498.37,585.23
17.7828,498.69,584.39
17.803,497.55,583.91
17.8228,496.84,584.13
17.8427,497.27,584.3
17.863,498.22,584.84
17.8827,497.38,585.87
17.9027,497.5,585.3
17.9227,498,585.04
17.9428,497.8,584.63
17.9628,499.44,584.3
17.9827,499.95,583.64
18.0027,498.56,583.12
18.0228,497.65,584.29
18.0427,498.32,583.63
18.0629,499.66,583.31
18.0831,499.52,583.05
18.1029,500.02,582.24
18.1227,500.42,583.39
18.1427,500.13,583.31
18.1629,499.71,582.85
18.1829,499.56,582.88
18.2029,499.65,583.1
18.2229,499.32,582.08
18.2427,498.86,582.07
18.2631,498.09,582.65
18.2834,498.67,583.32
18.3029,498.33,582.06
18.3229,498.27,582.85
18.3429,498.21,582.68
18.3627,498.57,582.34
18.3829,497.86,582.07
18.4027,497.09,581.26
18.4228,496.27,582.41
18.4428,496.61,582.73
18.4628,497.09,582.58
18.4828,498.07,583.06
18.5027,498.86,582.05
18.5227,498.49,581.84
18.5427,497.59,581.07
18.5627,497.47,580.86
18.5829,498.38,580.29
18.6026,500.7,579.23
18.6227,500.96,580.58
18.6429,500.17,582.67
18.6627,499.94,585.53
18.6828,500.95,587.83
18.7027,506.96,582.46
18.7228,516.57,570.57
18.7429,527.45,549.06
18.7629,535.76,522.24
18.7831,542.01,493.8
18.8028,545.81,468.84
18.8229,545.85,447.67
18.8429,541.48,432.54
18.8628,536.38,421.43
18.8829,533.11,418.54
18.9031,525.88,420.83
18.9228,522.51,427.47
18.9426,518.41,437.77
18.9627,515.92,449.62
18.9828,512.94,460.3
19.0028,510.55,474.04
19.0227,509.84,486.03
19.0427,508.47,495.62
19.0628,507.58,504.9
19.0826,506.66,514.12
19.1027,505.13,522.7
19.1227,505.1,529.56
19.1427,504.68,535.84
19.1628,505.15,542.08
19.1838,504.52,547.66
19.2037,504.21,551.13
19.2237,503.37,555.5
19.2438,502.9,559.4
19.2638,501.92,561.52
19.2838,502.73,575.62
19.3038,502.59,613.89
19.3237,496.67,673.32
19.3438,484.94,741.45
19.3637,473.95,789.36
19.3837,467.56,804.69
19.4047,465.85,793.75
19.4258,466.68,770.8
19.4468,468.34,744.24
19.4677,471.27,718.39
19.4878,474.22,695.71
19.5077,477.38,674.77
19.5278,480.7,657.82
19.5477,482.56,643.45
19.5677,483.25,631.56
19.5878,486,622.65
19.6078,487.6,614.92
19.6277,491.08,609.54
19.6478,492.26,603.83
19.6676,493.41,600.06
19.6877,494.33,596.65
19.7076,495.86,594.52
19.7277,496.29,591.62
19.7478,496.83,588.89
19.7679,497.27,586.71
19.7888,498.61,584.17
19.8098,497.89,582.34
19.8298,497.31,578.87
19.8508,498.65,577.1
19.8717,498.92,574.68
19.892,500.94,574.14
19.9127,501.15,572.51
19.9328,501.52,570.81
19.9538,501.02,570.85
19.9737,501.21,569.28
19.9948,502.37,568.82
20.0147,502.9,567.66
20.0346,503.32,567.73
20.0548,504.85,568.38
20.0747,504.48,568.51
20.0947,503.99,567.2
20.1147,502.99,566.56
20.1348,502.99,566.45
20.1546,502.79,565.96
20.175,502.23,565.97
20.1947,501.79,564.37
20.2148,501.03,563.9
20.2346,501.02,564.12
20.2547,499.82,564.3
20.2747,499.46,564.84
20.2946,499.36,563.67
20.3146,499.09,562.34
20.3347,498.67,562.87
20.3547,497.94,562.89
20.3748,497.75,562.72
20.3946,497.8,564.17
20.4146,497.24,565.34
20.4346,498.19,565.27
20.4548,497.55,564.42
20.4756,497.04,563.73
20.4957,497.43,563.39
20.5158,498.15,563.71
20.5357,498.32,563.17
20.5568,498.85,564.53
20.5767,498.08,566.23
20.5966,499.07,566.98
20.6169,499.65,569.19
20.6366,500.12,572.35
20.6568,501.7,579.28
20.6766,510.16,577.42
20.6968,528.33,566.94
20.7168,550.26,550.55
20.7368,569.41,531.44
20.7566,585.73,507.35
20.7767,594.78,483.08
20.7968,594.83,459.87
20.8169,588.06,441.69
20.8367,572.25,426.75
20.857,557.2,418.4
20.8767,541.36,413.12
20.8967,527.09,414.3
20.9167,515.87,418.04
20.9367,506.5,426.03
20.9566,500.8,434.82
20.9769,496.44,444.66
20.9967,492.95,455.73
21.0168,489.96,464.78
21.0367,490.17,473.83
21.0566,490.73,484.26
21.0767,490.39,493.81
21.097,490.71,501.05
21.1167,490.77,508.44
21.1369,491.21,514.35
21.1566,490.77,520.08
21.1766,491.62,525.06
21.1966,491.09,529.05
21.2167,490.68,532.64
21.2367,492.14,536.31
21.2566,492.71,538.65
21.2767,493.97,542.32
21.2967,494.18,543.26
21.3167,494.34,544.8
21.3366,494.47,546.64
21.3567,493.58,564.32
21.3766,488.66,603.85
21.3968,481.73,655.68
21.4167,473.98,705.95
21.4366,467.79,733.56
21.4566,465.43,735.45
21.4766,464.34,726.96
21.4966,465.48,710.36
21.5167,466.98,690.29
21.5368,470.58,671.83
21.5567,473.67,652.87
21.5767,475.33,636.49
21.5967,478.27,622.19
21.6167,481.41,611.56
21.6367,483.33,601.64
21.6566,485.46,594.52
21.6766,487.17,589.61
21.6967,480.74,587.09
21.7168,478.19,586.27
21.7367,476.15,583.22
21.7566,475.52,579.97
21.7767,477.62,578.18
21.7968,479.69,576.74
21.8166,480.56,574.19
21.8367,482.24,572.56
21.8567,484,570.44
21.8767,484.6,568.16
21.8967,485.68,566.12
21.9167,486.74,565.1
21.9367,489.39,564.68
21.9568,490.71,563.34
21.9767,491.97,563.28
21.9967,492.18,561.22
22.0167,492.14,559.18
22.0367,491.91,559.74
22.0567,492.33,560.39
22.0768,493.46,559.91
22.0967,496.17,559.93
22.1168,496.14,559.75
22.1366,496.71,560
22.1567,496.17,559
22.1767,496.53,558.2
22.1966,496.23,557.56
22.2167,495.78,556.85
22.2366,495.43,558.88
22.2567,495.34,558.5
22.2766,496.47,558.2
22.2968,495.98,558.36
22.3167,497.18,558.29
22.3366,496.55,559.63
22.3568,497.04,559.5
22.3766,497.83,559.4
22.3968,498.46,558.92
22.4166,498.17,558.54
22.4367,498.34,558.43
22.4567,498.87,558.94
22.4767,499.3,559.96
22.4966,497.64,559.16
22.5167,498.31,559.93
22.5367,498.05,559.75
22.5567,497.04,560.4
22.5766,496.23,560.72
22.5966,495.78,562.17
22.6167,495.63,561.14
22.6367,496.1,561.31
22.6568,495.08,562.25
22.6766,495.67,561.4
22.6967,496.93,560.72
22.7166,497.75,560.78
22.7367,498.6,561.02
22.7566,499.08,560.62
22.7766,498.66,559.49
22.7966,499.13,559.99
22.8167,498.7,560.4
22.8366,496.76,560.72
22.8566,496.01,559.57
22.8766,494.61,559.46
22.8966,493.69,560.37
22.9167,493.35,562.49
22.9367,494.08,568.79
22.9566,497.26,575.44
22.9768,504.81,570.55
22.9966,520.05,554.84
23.0166,538.44,534.47
23.0368,555.35,508.58
23.0567,567.28,481.06
23.0768,575.22,454.25
23.0966,576.78,430.2
23.1166,574.42,412.96
23.1366,566.34,401.37
23.1567,554.07,396.49
23.1776,541.46,395.4
23.1976,528.77,399.12
23.2179,519.41,407.49
23.2377,512.53,418.19
23.2577,508.22,430.16
23.2777,504.78,442.12
23.2976,503.22,454.7
23.3178,501.38,467.56
23.3378,500.7,479.05
23.3577,499.16,488.04
23.3777,498.13,497.63
23.3978,497.5,506.1
23.4179,498.6,512.68
23.4377,499.88,518.35
23.4577,499.91,522.08
23.4776,500.32,527.66
23.4977,500.46,532.73
23.5176,500.77,535.98
23.5378,500.41,538.99
23.5578,498.93,547.59
23.5778,494.95,581.07
23.5978,482.76,633.26
23.6176,468,695.81
23.6377,452.8,752.84
23.6581,444.44,791.68
23.678,444.55,800.14
23.6979,447.44,786.11
23.7181,451.95,762.29
23.7379,456.16,734.43
23.7579,461.93,706.55
23.7776,467.74,679.44
23.7976,471.8,656.35
23.8176,474.84,636.08
23.8379,478.07,620.06
23.8577,481.46,606.05
23.8776,483.96,594.44
23.8977,486.17,584.15
23.9176,487.34,576.92
23.9376,488.67,569.94
23.9578,489.14,564.55
23.9776,491.11,561.84
23.9977,493.49,559.27
24.0177,494.19,557.62
24.0378,494.95,556.29
24.0576,495.96,556.24
24.0777,496.37,554.59
24.0977,496.5,554.27
24.1177,496,555.02
24.1379,496.8,556.21
24.1577,497.44,557.57
24.1776,497.75,557.06
24.1979,497.8,557.45
24.2177,496.44,556.96
24.2377,496.95,557.16
24.2577,497.56,556.73
24.2777,496.45,555.99
24.2976,496.16,556.19
24.3177,497.33,558.15
24.3377,498.46,559.32
24.3576,499.17,560.06
24.3776,498.74,560.45
24.3976,497.99,561.16
24.4177,498.59,562.52
24.4377,498.47,563.82
24.4576,498.78,562.86
24.4776,497.82,562.68
24.4976,497.06,561.75
24.5176,498.05,562.4
24.5376,497.84,561.72
24.5576,498.67,562.17
24.5777,498.74,561.34
24.5976,499.99,560.47
24.6176,500.39,559.98
24.6376,500.51,560.18
24.6576,499.21,559.95
24.6776,498.37,558.96
24.6976,497.49,558.57
24.7176,497.4,558.65
24.7378,497.92,558.72
24.7577,497.93,558.58
24.7779,498.75,559.46
24.7977,498,558.97
24.8176,497.4,558.58
24.8376,496.72,558.46
24.8576,495.97,560.17
24.8779,495.78,559.13
24.8978,495.62,559.11
24.9178,495.9,560.49
24.9376,496.12,561.39
24.9579,496.9,563.11
24.9781,497.32,565.09
24.998,497.65,566.27
25.0177,497.52,567.02
25.0377,498.42,569.01
25.0579,505.13,561.61
25.0776,518.11,549.29
25.0976,535.09,531.03
25.118,553.07,511.62
25.138,564.86,485.7
25.1577,576.68,459.36
25.1777,578.35,435.89
25.1977,574.08,414.11
25.2179,566.46,399.49
25.2381,556.17,391.79
25.2581,545.14,390.63
25.2776,534.91,392.91
25.2976,526.73,401.52
25.3179,518.18,412.62
25.3377,512.75,425.3
25.3577,509,437.24
25.3776,505.8,449.39
25.3979,504.24,460.71
25.4177,502.79,471.97
25.4379,501.63,482.78
25.4577,500.91,492.82
25.4776,501.12,501.06
25.4976,500.5,507.24
25.5179,499.2,514.4
25.5377,498.96,518.92
25.5578,499.37,523.33
25.5776,499.09,527.67
25.5976,498.88,531.13
25.6178,498.7,535.11
25.6381,497.96,539.09
25.6579,497.37,554.87
25.6777,494.29,593.89
25.6977,486.44,654.12
25.7178,477.95,717.49
25.7379,469.76,758.39
25.7577,463.61,765.92
25.7776,462.69,754.13
25.7976,462.75,734.91
25.8177,464.4,712.52
25.8377,466.52,689.42
25.858,469.02,668.94
25.8776,472.41,650.75
25.8977,474.53,636.4
25.9177,477.02,622.92
25.9376,479.02,611.74
25.9577,480.02,604.19
25.9776,481.61,597.35
25.9977,482.89,591.08
26.0186,484.11,587.46
26.0388,486.09,581.77
26.0586,488.67,579.62
26.0786,487.94,577.89
26.0986,483.95,582.32
26.1187,481.76,583.85
26.1387,482.21,583.88
26.1589,482.17,582.71
26.1787,482.13,580.76
26.1986,482.91,579.61
26.2187,483.33,576.69
26.2387,484.46,575.15
26.2588,485.17,573.72
26.2786,486.33,572.18
26.2986,489.47,571.14
26.3187,491.17,570.11
26.3389,492.74,568.69
26.3587,493.79,567.55
26.3788,495.03,565.44
26.3986,495.43,563.95
26.4188,496.14,562.76
26.4386,497.11,561.41
26.4587,497.49,559.93
26.4787,498.19,560.34
26.4987,498.15,560.47
26.5187,497.32,560.98
26.5389,498.26,560.58
26.5588,498.01,560.67
26.5786,497.01,560.93
26.5986,497.2,561.15
26.6188,496.36,561.12
26.6385,496.49,562.29
26.6588,497.99,562.24
26.6788,497.19,561.59
26.6987,497.56,560.87
26.7189,497.44,559.7
26.7388,496.96,559.36
26.7588,496.56,559.69
26.7789,496.85,560.35
26.7986,495.68,559.08
26.8187,495.94,558.46
26.8387,496.36,557.37
26.8591,496.48,555.7
26.8796,496.79,554.76
26.8997,496.03,553.81
26.9196,497.42,554.64
26.9396,498.34,554.72
26.9599,498.07,555.17
26.9798,497.46,556.54
26.9996,497.57,555.23
27.0197,498.85,555.38
27.0396,498.08,554.11
27.0599,498.07,553.89
27.0796,499.05,554.11
27.0996,498.84,554.89
27.1196,497.87,553.91
27.1397,497.3,554.13
27.1598,497.64,554.1
27.1797,497.91,556.08
27.1996,497.33,558.87
27.2196,496.46,565.09
27.2396,498.37,569.07
27.2597,501.5,565.26
27.2799,506,557.41
27.2996,511,546.13
27.3196,515.4,530.5
27.3396,520.32,509
27.3597,524.25,484.8
27.3799,528.6,460.44
27.3996,531.08,439.15
27.4197,532.67,423.52
27.4395,533.93,411.42
27.4598,532.95,404.93
27.4798,532.36,403.15
27.4996,532.29,405.92
27.5196,529.63,410.33
27.5399,527.1,418.27
27.5596,525.68,428.41
27.5798,523.95,439.93
27.5997,522.56,450.94
27.6196,519.25,462.16
27.6397,517.6,471.12
27.6595,515.48,481.9
27.6797,513.38,490.72
27.6998,510.51,499.98
27.7196,509.4,506.78
27.7396,508.92,513.02
27.7596,506.94,517.82
27.7797,505.75,522.06
27.7997,504.8,526.04
27.8196,505.04,529.84
27.8397,502.83,539.47
27.8597,498.67,572.97
27.8796,488.13,622.98
27.8997,476.51,680.18
27.9195,468,725.75
27.9396,464.4,747.4
27.9596,464.12,745.72
27.9796,465.9,732.77
27.9998,467.32,714.62
28.0198,470.06,693.9
28.0397,472.84,672.52
28.0597,475.48,653.81
28.0796,478.18,636.85
28.0996,479.74,623.28
28.1196,482,611.02
28.1396,483.8,601.82
28.1596,485.64,593.86
28.1796,487.51,588.88
28.1996,489.01,584.31
28.2198,490.21,582.25
28.2395,490.96,582.4
28.2595,492.77,583.12
28.2796,494.82,581.89
28.2995,496.25,579.32
28.3196,496,578.05
28.3396,497.4,575.84
28.3596,498.12,573.27
28.3796,499.7,571.62
28.3999,500.76,569.69
28.4196,501.01,567.36
28.4396,501.01,566.08
28.46,499.6,565.07
28.4798,499.88,564.25
28.4997,499.71,561.6
28.5196,500.17,560.28
28.5396,500.13,559.43
28.5596,501.51,560.14
28.5797,501,559.11
28.5996,500.4,559.09
28.6196,499.32,558.67
28.6396,499.46,557.74
28.6596,499.77,557.79
28.6796,499.61,558.63
28.6997,497.49,560.11
28.7197,497.79,560.68
28.7397,497.63,561.75
28.7607,497.71,560
28.7806,497.97,558.8
28.8008,497.97,558.44
28.8208,497.78,557.75
28.8408,498.22,557
28.8609,499.38,557.8
28.8807,499.3,556.44
28.9007,498.44,557.75
28.9217,498.35,556.4
28.9416,497.48,554.32
28.9616,498.39,553.86
28.9816,497.31,553.89
29.0017,498.05,555.31
29.0217,498.44,555.85
29.0419,498.55,555.28
29.0617,497.84,554.22
29.082,497.27,554.58
29.1016,497.62,554.86
29.1219,497.69,554.69
29.1418,497.76,555.55
29.1618,499.2,556.84
29.1816,498.76,556.87
29.2017,498.61,558.3
29.2217,497.89,558.44
29.2417,496.91,557.55
29.2616,496.53,556.64
29.2816,495.82,556.51
29.3017,497.46,558.01
29.3216,498.17,559.61
29.3417,498.93,561.89
29.3616,500.95,564.51
29.3817,505.16,555.41
29.4016,511.93,539.93
29.4217,525.14,521.94
29.4418,536.51,499.75
29.4618,546.21,473.8
29.4817,554.37,451.24
29.5017,558.29,431.99
29.5218,556.64,416.99
29.5416,551.31,405.8
29.5617,545.05,399.44
29.5817,537.04,398.95
29.6016,529.43,402.56
29.6217,524.34,410.45
29.6416,518.48,418.96
29.6617,513.38,429.37
29.6818,510.3,440.89
29.7018,509.64,452.51
29.7217,507.51,463.01
29.7418,505.01,474.21
29.7617,503.61,482.97
29.7816,503.69,492.57
29.8016,501.15,499.46
29.8216,499.52,506.57
29.8417,499.82,512.65
29.8616,500.25,516.72
29.8817,501.4,521.18
29.9016,500.52,525.54
29.9216,500.62,527.83
29.9418,500.09,529.47
29.9617,500.28,532.77
29.9817,500.42,534.42
30.0016,500.54,548.14
30.0216,497.03,583.51
30.0417,492.62,636.61
30.0617,484.5,696.09
30.0816,475,742.87
30.1018,469,761.89
30.1216,466.2,755.52
30.1417,465.16,738.01
30.1617,466.53,715.01
30.1816,468.62,691.01
30.2018,472.5,668.61
30.2217,475.8,647.69
30.2418,479.44,629.75
30.2617,480.75,616.4
30.2817,482.4,603.92
30.3018,484.52,593.94
30.3217,485.42,586.95
30.3417,487.33,580.36
30.3617,488.07,574.89
30.3819,489.85,569.71
30.4016,491.68,565.77
30.4217,493.95,563.61
30.4417,493.76,561.69
30.4618,493.21,558.95
30.4816,492.16,556.76
30.5016,493.33,556.01
30.5219,492.87,554.21
30.5419,493.09,554.17
30.5617,493.27,552.73
30.5817,493.42,551.79
30.6017,494.54,551.43
30.6217,495.23,550.94
30.6417,495.18,550.75
30.6617,495.95,551.4
30.6819,495.76,551.92
30.7017,496.41,553.14
30.7219,496.12,553.11
30.7416,497.5,554.29
30.7618,498.8,555.03
30.7816,498.84,556.22
30.8021,499.47,554.78
30.8216,500.58,555.62
30.8417,500.86,554.3
30.8616,500.69,554.44
30.8818,500.35,553.75
30.9017,498.68,554.6
30.9219,498.35,554.48
30.9416,497.08,554.78
30.9618,497.26,554.83
30.9816,497.41,553.66
31.0015,497.13,553.33
31.0216,497.3,551.86
31.0416,496.64,552.29
31.0616,496.91,551.83
31.0817,497.53,552.87
31.1024,496.82,553.69
31.1217,496.46,553.15
31.1418,495.97,552.52
31.1617,493.97,553.02
31.1817,495.38,552.42
31.2019,496.3,553.33
31.2219,497.64,553.07
31.2416,497.91,552.45
31.2617,497.33,552.56
31.2816,497.67,551.05
31.3017,496.93,551.64
31.3217,497.95,552.11
31.3421,498.76,552.29
31.3615,498.01,551.63
31.3818,498.6,552.91
31.4018,499.48,553.12
31.4218,500.79,553.5
31.4416,500.83,552.8
31.4618,501.06,553.64
31.4816,500.45,552.71
31.5018,500.56,552.97
31.5218,499.85,554.18
31.542,498.88,554.34
31.5619,499.7,554.47
31.5818,499.16,557.38
31.6015,503.13,555.3
31.6221,509.7,547.04
31.6415,519.96,534.23
31.6616,532.37,517.79
31.6818,543.1,495.23
31.7019,551.48,471.38
31.7217,554.18,449.51
31.7417,552.55,432.01
31.7618,547.24,420.4
31.7816,538.99,412.12
31.8018,532.59,411.7
31.8216,525.67,413.56
31.8428,519.94,419.25
31.8629,515.75,428.6
31.8827,511.6,437.88
31.9029,507.88,448.5
31.9228,505.3,457.8
31.9426,503.84,467.44
31.9636,502.47,476.75
31.9836,501.58,484.8
32.004,500.86,492.04
32.0238,500.49,498.63
32.0438,500.19,504.11
32.0637,499.95,510.09
32.0838,499.76,515.67
32.1036,500.21,519.53
32.1236,500.57,523.23
32.1435,500.25,526.18
32.1636,499,529.55
32.1839,498.2,531.04
32.2035,497.96,533.23
32.2237,498.37,534.78
32.2437,499.7,535.63
32.2639,501.16,537.9
32.2836,500.53,540.52
32.3035,500.62,541.02
32.3239,500.9,546.21
32.3438,498.72,572.77
32.3635,494.57,619.62
32.3835,486.46,673.89
32.4035,478.37,719.11
32.4235,472.09,742.89
32.4437,469.27,744.11
32.4637,469.02,730.49
32.4838,469.42,711.59
32.5037,470.93,691.67
32.5248,473.35,670.14
32.5446,476.68,651.11
32.5648,478.54,632.69
32.5848,480.83,618.35
32.6048,482.87,607.48
32.6246,484.69,598.38
32.6448,485.75,590.91
32.6647,487.4,584.33
32.6846,488.52,578.06
32.7048,489.62,573.45
32.7251,490.49,569.56
32.7449,491.4,565.85
32.7649,493.92,563.28
32.7845,495.13,560.42
32.8047,495.91,559.14
32.8246,497.33,558.11
32.8448,497.66,556.49
32.8649,498.13,555.19
32.8845,498.3,553.75
32.9048,498.84,553.6
32.9249,498.07,553.48
32.9448,498.06,552.99
32.9647,496.25,552.59
32.9849,496.8,552.47
33.0048,495.84,550.98
33.0247,495.07,551.38
33.0448,494.86,551.3
33.0647,495.49,551.64
33.0845,495.19,551.92
33.1047,495.55,552.93
33.1246,495.24,553.15
33.1445,495.99,554.12
33.1648,496.19,553.29
33.1845,496.36,553.03
33.2047,497.08,553.23
33.2249,496.47,551.18
33.2448,496.77,552.35
33.2648,498.02,551.68
33.2847,498.62,550.34
33.3048,499.09,550.07
33.3247,499.67,549.46
33.3449,499.74,548.57
33.3649,499.19,548.65
33.3849,498.15,548.72
33.4047,497.92,549.78
33.4249,499.34,551.02
33.4445,500.27,552.22
33.4648,500.62,552.77
33.4848,501.29,554.42
33.5045,500.03,558.14
33.5246,501.23,562.91
33.5451,507.18,555.93
33.5645,517.35,536.74
33.5849,533.28,513.59
33.6048,548.02,487.47
33.6248,558.02,460.58
33.6446,562.61,435.86
33.6648,561.69,416.49
33.6847,558.75,402.39
33.7049,553.4,394.51
33.7248,548.12,392.21
33.7448,542.7,395.57
33.7647,537.96,401.86
33.7845,533.37,410.68
33.8047,529.29,420.15
33.8248,525.23,431.92
33.8445,521.39,444.93
33.8645,517.51,455.75
33.8849,513.81,466.4
33.9047,511.05,476.52
33.9248,509.04,485.81
33.9456,508.03,494.65
33.9661,505.22,502.52
33.9859,503.78,507.82
34.0055,503.22,513.05
34.0257,502.78,518.04
34.0461,502.02,523.43
34.0655,501.62,526.35
34.0858,501.29,528.68
34.1058,500.84,532.74
34.1258,501.27,535.19
34.1458,501.41,537.56
34.1658,500.13,547.24
34.1857,495.71,583.6
34.2057,486.36,639.48
34.2257,474.49,699.78
34.2458,465.59,747.42
34.2657,460.27,763.54
34.2855,458.22,755.23
34.3056,458.58,737.59
34.3258,460.66,714.07
34.346,463.33,691.65
34.3655,467.86,670.32
34.3857,471.29,650.46
34.406,473.83,633.17
34.4256,476.47,618.93
34.4456,478.97,606.15
34.4658,482.18,596.72
34.4855,484.54,587.77
34.5055,487.03,582.02
34.5258,489.23,576.42
34.5456,490.38,574.33
34.5658,488.51,572.47
34.5858,488.2,570.57
34.6059,488.36,567.06
34.6255,488.09,564.85
34.6455,487.67,565.28
34.6655,487.14,565.42
34.6858,487.51,564.14
34.7056,489.01,561.31
34.726,490.01,559.45
34.746,490.61,559.16
34.7656,492.28,559.73
34.7857,494.23,557.78
34.8056,495.78,558.63
34.8256,497.43,558.5
34.8456,497.54,557.6
34.8656,496.43,556.48
34.8855,496.75,556.58
34.9056,497.2,555.87
34.9255,497.36,554.89
34.9455,497.29,555.12
34.9659,498.03,555.09
34.9858,498.22,553.47
35.0055,497.98,551.98
35.0255,498.18,553.18
35.0458,497.35,552.55
35.0662,498.08,553.04
35.0858,498.26,553.43
35.1059,498.21,553.34
35.1258,498.77,553.28
35.1459,498.61,552.82
35.1656,498.69,553.26
35.1857,498.75,553.2
35.2057,498.8,554.36
35.2257,498.04,553.29
35.2455,497.83,553.43
35.2659,497.67,553.75
35.2859,498.53,553.2
35.3058,498.43,551.96
35.3258,499.14,552.37
35.3458,499.51,552.69
35.3657,498.41,553.95
35.3857,497.53,553.16
35.4056,498.62,552.93
35.4256,499.1,551.94
35.4456,499.68,551.36
35.4655,499.14,551.88
35.4855,499.71,552.51
35.5057,499.57,552.61
35.5258,500.66,552.88
35.546,500.73,552.71
35.5658,499.58,552.77
35.5859,498.66,551.41
35.6058,500.13,551.53
35.6258,500.51,552.42
35.6456,501,554.54
35.6658,501,554.63
35.6859,499.8,554.71
35.7055,499.24,554.76
35.7256,497.59,554.41
35.7455,497.67,554.33
35.7658,498.14,553.26
35.7855,498.51,552.61
35.8056,498.61,552.29
35.8256,499.09,551.63
35.8457,499.87,552.3
35.8658,500.1,552.04
35.8857,499.48,551.03
35.9055,498.38,552.23
35.9259,497.71,551.58
35.9457,498.36,552.07
35.9655,498.89,551.05
35.9858,499.71,551.84
36.0056,499.17,551.27
36.0256,497.94,551.42
36.0457,499.15,551.14
36.0659,499.12,550.71
36.0858,499.3,551.17
36.1057,498.44,550.93
36.1257,498.35,551.55
36.1458,497.28,550.84
36.1659,496.62,550.67
36.1858,496.1,550.74
36.2057,495.08,552.79
36.2258,495.46,553.23
36.2456,496.17,552.78
36.2658,496.94,553.23
36.2855,497.35,553.18
36.3056,497.68,554.15
36.3265,498.54,553.32
36.3468,499.23,554.05
36.3668,498.79,554.24
36.3866,498.83,555.79
36.4065,499.46,556.44
36.4266,499.97,556.55
36.4477,500.98,555.84
36.4676,499.78,555.27
36.4875,500.03,555.42
36.5075,501.22,555.13
36.5278,501.38,553.91
36.5478,501.1,551.53
36.5675,501.28,550.42
36.5875,501.42,549.74
36.6076,500.94,548.79
36.6276,500.95,549.23
36.6478,500.76,549.38
36.6675,500.41,549.71
36.6875,500.73,549.97
36.7075,500.98,550.97
36.7275,500.59,550.18
36.7476,500.27,549.94
36.7676,499.01,550.95
36.7876,498.01,550.56
36.8076,499.21,550.65
36.8276,500.37,550.52
36.8476,501.09,549.62
36.8676,502.08,550.49
36.8875,502.06,550.39
36.9076,502.25,550.92
36.9276,502.4,550.53
36.9477,502.72,550.63
36.9675,502.58,551.5
36.9875,502.66,551.2
37.0076,501.93,550.96
37.0276,501.14,551.97
37.0476,500.31,552.37
37.0676,500.85,552.9
37.0875,501.08,553.12
37.1075,501.86,552.7
37.1286,501.49,550.16
37.1485,501.19,550.73
37.1684,501.35,548.78
37.1885,500.88,549.02
37.2087,499.71,548.22
37.2285,499.37,546.78
37.2486,499.29,547.22
37.2686,499.43,545.98
37.2885,499.75,545.78
37.3086,501,547.22
37.3286,496.2,548.98
37.3485,491.96,551.98
37.3685,490.77,552.79
37.3886,490.41,553.03
37.4085,490.93,553.02
37.4286,491.54,552.82
37.4484,492.04,552.86
37.4686,492.23,553.48
37.4886,491.98,552.39
37.5086,492.19,550.31
37.5286,492.75,550.85
37.5485,494.2,550.48
37.5686,495.56,550.58
37.5886,496.85,549.87
37.6085,497.28,550.69
37.6285,496.42,550.55
37.6486,495.14,550.44
37.6686,496.51,550.35
37.6886,496.81,549.68
37.7086,498.25,548.95
37.7285,497.2,547.76
37.7486,497.56,548.01
37.7686,497.45,547.6
37.7886,499.36,548.28
37.8086,504.49,548.63
37.8285,517.79,545.3
37.8485,526.83,544.44
37.8686,533.26,543.75
37.8895,537.81,543.2
37.9096,538.25,543.96
37.9294,536.8,544.17
37.9494,534.64,545.14
37.9695,531.91,543.71
37.9895,528.73,543.17
38.0094,527.38,542.73
38.0297,523.91,540.99
38.0495,520.33,540.59
38.0695,517.66,540.87
38.0894,514.53,540.3
38.1095,510.42,539.04
38.1296,508.34,538.03
38.1496,506.47,538.22
38.1694,506.18,537.58
38.1896,505.54,536.66
38.2106,505.23,533.93
38.2304,505.39,532.54
38.2506,505.51,532.04
38.2705,502.81,530.63
38.2906,497.65,528.9
