Program Time [s],data 0,data 1
10.0072,500.77,544.16
10.0268,501.62,544.93
10.047,501.09,545.74
10.0669,503.87,546.59
10.0868,503.5,546.87
10.1068,502.8,547.7
10.1268,501.04,544.96
10.1468,501.03,543.77
10.1668,499.43,543.21
10.1867,498.14,541.57
10.207,497.91,539.46
10.2268,496.93,539.37
10.2468,496.14,541.29
10.2667,495.92,539.83
10.2867,495.53,541.67
10.3068,495.43,540.33
10.3269,495.34,542.07
10.3469,495.07,542.05
10.3667,496.26,542.04
10.3868,497.21,543.63
10.4067,499.77,545.71
10.4268,499.81,548.17
10.4468,501.25,548.73
10.4669,502.6,548.39
10.4868,501.88,550.11
10.5069,500.3,549.89
10.5268,498.44,551.11
10.5468,497.75,552.49
10.5668,497.8,553.39
10.5868,498.84,554.11
10.6068,498.87,554.69
10.6269,498.5,555.15
10.6469,499.2,554.12
10.6667,500.16,555.7
10.6868,502.13,556.16
10.707,501.3,555.93
10.7268,500.84,555.34
10.7468,501.27,555.07
10.7668,499.82,554.26
10.7868,499.45,554.01
10.8068,500.56,553.21
10.8269,501.05,554.76
10.8468,501.84,555.21
10.8667,502.47,554.37
10.8868,502.18,553.7
10.9068,501.54,555.16
10.9268,500.83,554.32
10.9468,499.47,554.26
10.9668,500.37,553.21
10.9868,500.3,552.77
11.0068,500.44,553.81
11.0268,501.35,553.65
11.0469,500.68,553.92
11.0668,500.54,552.74
11.0868,500.24,552.19
11.1068,499.99,552.55
11.1268,500.39,552.84
11.1469,501.71,553.87
11.1668,501.37,554.3
11.1868,501.5,555.84
11.2069,501.4,557.67
11.2268,500.72,556.54
11.2468,499.97,557.03
11.2668,499.58,558.02
11.2868,499.66,559.62
11.3068,499.53,562.7
11.3268,500.22,566.56
11.3468,505.58,562.64
11.3668,522.26,545.72
11.3868,542.41,519.57
11.4068,561.53,488.86
11.4268,574.42,460.09
11.4468,584.94,435.67
11.4669,591.35,419.54
11.4868,592.08,409.63
11.507,588.26,406.7
11.5268,583.61,410.56
11.5468,576.09,418.45
11.5668,569.47,426.16
11.5869,560.78,437.73
11.6068,554.42,448.98
11.6268,547.94,460.99
11.6468,541.95,472.39
11.6669,534.56,483.71
11.6868,529.85,493.17
11.7068,525.48,501.53
11.7268,520.98,508.23
11.7468,520.59,514.78
11.7668,517.67,520.43
11.7868,515.94,525.34
11.8068,513.75,529.27
11.8268,511,532.82
11.8468,510.2,535.65
11.8668,507.76,538.32
11.8867,504.41,540.06
11.9068,503.53,541.05
11.9268,503.22,542.24
11.9468,502.58,543.99
11.9669,502.66,545.39
11.9868,502.53,547.11
12.0068,501.02,552.09
12.0268,487.02,581.67
12.0468,462.21,632.94
12.0668,431.77,702.75
12.0868,403.62,766.8
12.1068,384.29,814.04
12.1268,376.04,829.03
12.1468,382.03,815.43
12.1668,398.22,784.94
12.1868,413.98,746.55
12.2068,429.98,707.24
12.2268,442.19,672.19
12.2468,452.55,641.35
12.2668,460.24,616.68
12.2867,468.59,594.75
12.3068,475.47,578
12.3268,481.58,565.8
12.3468,486.26,557.04
12.3668,490.21,550.83
12.3868,492.37,547.26
12.4068,493.89,544.41
12.4268,495.92,541.73
12.4468,496.93,540.38
12.4668,498.55,539.91
12.4868,497.84,539.13
12.5068,497.87,538.5
12.5268,497.1,537.8
12.5468,497.28,535.44
12.5668,496.42,535.95
12.5868,496.54,538.36
12.607,495.23,539.69
12.6268,495.18,540.15
12.6468,496.15,539.92
12.6668,495.12,539.74
12.6868,494.89,543.59
12.7069,494.32,544.87
12.7268,494.25,547.7
12.7469,495.6,550.76
12.7668,498.48,552.21
12.7868,498.79,554.97
12.8068,499.43,555.77
12.8269,498.54,557.82
12.8468,498.23,560.25
12.8668,497.19,559.2
12.8868,497.35,560.36
12.9068,498.08,560.89
12.9268,497.06,559.71
12.9468,497.05,558.97
12.9668,498.04,560.18
12.9868,498.63,561.34
13.0068,500.31,562.87
13.0268,501.04,561.9
13.0468,501.24,560.92
13.0668,502.79,561.33
13.0868,502.83,562.27
13.1068,502.66,560.01
13.1268,503.53,560.41
13.1468,503.83,560.13
13.1668,503.66,559.7
13.1868,502.73,560.36
13.207,502.18,560.89
13.2268,502.15,560.51
13.2468,501.72,560.01
13.2668,502.17,560.41
13.2868,501.94,561.93
13.3068,501.95,562.94
13.3268,502.76,564.35
13.3468,502.01,567.08
13.367,502.01,568.07
13.3869,501.01,569.25
13.4068,500.6,572.2
13.4268,498.28,575.16
13.4469,503.23,571.13
13.4668,516.38,560.5
13.4868,534.31,545.2
13.5068,554.84,527.36
13.5268,572.88,506.29
13.547,585.3,487.23
13.5668,590.24,468.99
13.5868,592.39,455.19
13.6068,590.31,445.95
13.6268,582.45,441.16
13.6468,572.56,440.33
13.6668,562.25,441.26
13.6868,554.4,443.41
13.7068,546.52,448.53
13.7268,539.42,455.62
13.7468,533.73,463.3
13.7668,528.39,472.24
13.7867,524.11,481.39
13.8072,521.49,490.51
13.8267,518.19,500.61
13.8468,515.15,510.09
13.8669,513.52,516.67
13.8868,512.42,523.14
13.9068,510.93,529.31
13.9268,510.15,534.25
13.9468,508.12,538.4
13.9668,507.49,540.72
13.9868,506.4,544.17
14.0069,503.72,546.74
14.0269,503.57,548.19
14.0468,504.86,549.35
14.0668,503.69,550.48
14.0868,503.95,556.39
14.1071,494.16,583.31
14.1273,474.53,633.45
14.1471,450.42,692.56
14.1668,431.54,747.45
14.1869,420.03,771.76
14.2068,419.62,769.81
14.2269,425.1,752.04
14.2469,430.28,727.64
14.2669,437.62,704.91
14.2868,445.3,681.73
14.3068,450.24,661.98
14.3268,457.39,642.99
14.3468,462.91,628.19
14.3668,467.73,617.15
14.3868,472.18,609.52
14.4068,476.15,602.42
14.4267,478.72,596.73
14.4468,476.77,591.59
14.4668,477.22,588.07
14.4868,477.58,583.46
14.5068,477.66,579.76
14.5268,478.73,577.21
14.5468,480.98,576.17
14.5668,482.99,572.94
14.5878,483.79,570.75
14.6077,485.63,567
14.6278,488.1,566.2
14.6477,490.08,564.76
14.6678,490.47,563.21
14.6878,491.37,561.57
14.7088,492.1,560.65
14.7291,493.28,559.52
14.749,495.02,559.02
14.7687,496.02,557.41
14.7888,496.61,556.53
14.8088,494.69,556.63
14.8288,494.75,557.5
14.8488,495.2,558.4
14.8688,496.16,558.92
14.8888,496.53,557.94
14.909,496.82,557.95
14.9288,495.46,558.16
14.9489,494.57,560.13
14.9688,494.25,559.7
14.9888,495.2,560.96
15.0088,495.76,562.77
15.0288,495.21,564.02
15.0488,496.57,563.61
15.0688,497.65,564.29
15.0888,498.52,565.23
15.1088,500.02,563.79
15.1288,500.62,564.23
15.1488,500.69,565.18
15.1688,500.95,566.15
15.1888,500.36,564.52
15.2088,498.89,564.41
15.2298,498.11,563.33
15.2498,498.89,562.26
15.27,500.91,562.01
15.2899,501.73,562.41
15.3098,501.38,563.33
15.3298,501.51,562.26
15.3499,502.41,561.61
15.3698,500.52,562.29
15.3897,501.42,563.03
15.4097,502.14,563.02
15.4298,501.51,563.42
15.4498,501.01,564.54
15.4707,501.61,565.83
15.4908,500.08,570.46
15.5108,504.87,572.77
15.5308,519.69,560.22
15.5507,540.16,535.77
15.5709,563.92,505.82
15.5909,581.14,477.05
15.611,592.51,452.24
15.6309,597.81,434.19
15.6508,597.85,420.56
15.6707,593.68,414.64
15.6907,581.94,412.72
15.7107,572.15,415.97
15.7308,562.72,422.78
15.7509,550.38,432.02
15.7717,541.5,441.42
15.7918,534.8,451.13
15.8118,529.24,461.31
15.8317,525.19,472.05
15.8518,521.35,481.04
15.8718,518.28,490.03
15.892,514.03,498.02
15.9117,511.42,505.62
15.9318,508.74,512.3
15.9518,506.79,517.44
15.9718,505.83,522.55
15.9918,504.87,527.04
16.0117,504.09,530.63
16.0318,503.87,533.51
16.0518,502.9,536.8
16.0718,501.72,539.44
16.0917,499.58,542.15
16.1117,498.46,544.72
16.1317,499.97,545.18
16.1518,500.97,547.74
16.1718,500.38,549.59
16.1917,500.9,550.88
16.2117,496.72,570.9
16.2321,483.18,612.32
16.2521,459.54,668.26
16.2721,438.43,719.21
16.2918,428.35,741.36
16.3118,425.48,741.89
16.3321,429.18,728.51
16.3519,434.95,707.21
16.3719,441.16,687.97
16.392,447.93,668.37
16.4119,454.14,650.5
16.4321,458.91,636.6
16.4524,464.13,623.08
16.4718,467.9,613.06
16.4918,471.32,604.25
16.5117,475.26,595
16.5317,479.01,587
16.5517,481.81,581
16.5719,484.44,575.8
16.5918,488.16,571.64
16.6118,490.32,567.11
16.6318,491.86,564.09
16.6519,493.29,561.27
16.6717,493.23,557.62
16.6918,495.78,554.69
16.7117,498.03,553.16
16.7317,498.22,552.72
16.7517,498.18,552.78
16.7717,499.14,552.42
16.7917,498.71,552.74
16.8117,497.97,553.59
16.8321,497.38,553.47
16.8518,497.5,554.58
16.8717,498.4,554.86
16.8917,498.32,555.09
16.9117,498.26,555.47
16.9317,497.61,555.78
16.9518,496.28,555.42
16.9717,496.83,555.14
16.9918,496.26,557.31
17.0117,496.01,556.45
17.0318,495.61,558.16
17.0518,495.09,558.13
17.0718,494.07,558.1
17.0917,494.26,557.88
17.1117,494.8,558.1
17.1318,495.64,558.88
17.1518,495.31,559.71
17.1717,496.05,560.37
17.1918,497.44,561.69
17.2117,496.75,561.15
17.2318,496.8,560.52
17.2518,499.24,559.82
17.2718,499.39,561.05
17.2918,499.31,560.24
17.3119,497.85,560.6
17.3318,498.68,560.08
17.3518,497.95,560.86
17.3717,498.36,561.09
17.3917,497.28,560.67
17.4118,498.23,560.74
17.4317,496.78,561.79
17.4519,497.63,561.23
17.472,500.1,561.39
17.4918,498.88,563.11
17.5118,498.9,562.69
17.5318,498.52,564.35
17.5517,498.22,564.08
17.5718,498.58,564.06
17.5918,499.06,564.45
17.6118,498.85,563.96
17.6318,498.68,562.97
17.652,499.34,562.97
17.6717,498.47,563.78
17.6917,499.38,563.42
17.7117,500.7,562.54
17.7317,501.96,562.43
17.7518,500.37,564.74
17.7717,503.9,563.2
17.7917,512.52,551.16
17.8117,525.01,534.33
17.8317,541.41,517.46
17.852,556.93,500.57
17.8718,566.94,486.45
17.8917,570.55,472.56
17.9118,569.04,461.05
17.9319,566.03,453.24
17.9519,560.43,448.79
17.9722,554.94,449.83
17.9918,549.75,453.27
18.0118,545,459.01
18.0317,539.6,467.41
18.0518,536.28,477.33
18.0717,530.43,486.06
18.0918,526.14,495.85
18.1117,522.31,503.28
18.1317,518.05,512.02
18.1517,515.24,518.62
18.1717,512.59,523.5
18.1917,509.87,528.8
18.2118,507.7,533.64
18.2317,505.56,538.51
18.2517,505.85,541.21
18.2718,505.28,543.77
18.2917,505.02,545.21
18.3119,504.42,546.77
18.3318,502.93,548.42
18.3518,503.55,551.93
18.3719,497.44,572.55
18.3918,479.95,611.24
18.4119,455.36,661.39
18.4321,434.09,706.91
18.4519,421.47,733.33
18.4717,418.78,736.86
18.4917,421.62,725.49
18.5117,425.1,709.59
18.5318,430.28,690.27
18.5517,436.62,673.62
18.5718,442.3,656.7
18.5918,447.84,642.36
18.6121,452.87,629.29
18.6321,458.5,617.63
18.6519,464.4,608.9
18.6719,469.32,601.92
18.6919,473.45,596.14
18.7119,475.36,590.91
18.7317,477.29,586.93
18.752,480.03,583.74
18.7719,482.23,581.39
18.7918,484.78,579.12
18.8117,486.42,577.69
18.8321,488.54,574.75
18.852,490.43,574.8
18.8719,491.95,572.84
18.8918,492.96,572.07
18.9117,493.57,571.46
18.9317,493.45,568.97
18.952,492.96,568.37
18.9718,494.57,567.9
18.9918,495.26,567.12
19.0118,496.6,566.1
19.0318,498.48,566.08
19.0518,498.59,566.26
19.0717,499.47,566.21
19.0919,499.98,566.97
19.1117,500.18,568.17
19.1317,499.94,569.94
19.1517,498.56,570.15
19.172,496.84,570.32
19.1918,497.28,570.26
19.2118,497.22,571.61
19.2318,497.18,571.48
19.2517,497.34,571.19
19.2718,495.67,571.35
19.2919,496.54,572.68
19.3119,497.63,571.74
19.3318,496.3,572
19.352,496.64,571.4
19.3718,495.91,570.92
19.3919,494.93,569.93
19.4119,495.55,569.55
19.4321,495.44,569.64
19.4519,495.95,568.91
19.4719,496.36,569.73
19.492,497.89,567.38
19.5118,497.71,567.31
19.5324,498.77,567.44
19.5524,498.61,568.56
19.5719,497.69,569.64
19.5917,497.55,570.32
19.6118,497.44,571.65
19.6317,496.95,572.72
19.6517,497.36,572.78
19.6718,496.09,572.42
19.6919,496.47,573.54
19.7117,495.98,572.63
19.7319,495.58,571.9
19.7518,496.87,570.52
19.7718,497.29,571.42
19.7918,496.63,571.93
19.8117,496.31,572.35
19.8321,497.45,571.68
19.8519,496.76,571.54
19.872,496.81,571.83
19.8919,496.24,571.27
19.9118,497,571.81
19.9317,496.6,573.05
19.952,496.48,574.44
19.9719,496.18,578.75
19.992,497.35,583.6
20.0117,501.48,580.08
20.0321,508.38,569.47
20.0519,515.9,556.17
20.0717,523.52,537.34
20.0917,532.02,517.27
20.1118,539.42,495.62
20.1319,546.93,475.49
20.152,551.95,461.79
20.1719,555.96,452.04
20.192,555.77,447.83
20.2119,555.01,446.46
20.2319,552.41,449.17
20.2519,550.13,453.94
20.2717,546.9,461.35
20.2919,543.32,469.88
20.3117,541.46,477.7
20.3317,539.17,487.16
20.3517,534.53,497.33
20.3717,529.63,506.26
20.3918,525.1,515.21
20.412,520.28,522.37
20.4317,516.22,529.7
20.4521,514.38,534.76
20.4719,511.9,540
20.4918,509.32,545.8
20.5118,508.66,550.24
20.532,507.53,553.39
20.5517,506.42,555.32
20.5721,505.34,556.05
20.5917,504.07,557.64
20.6118,502.06,559.31
20.6318,496.64,571.05
20.6519,480.72,608.64
20.672,458.57,665.11
20.6918,435.86,719.69
20.7119,419.89,753.15
20.7317,416.91,765.32
20.7518,418.13,755.86
20.7724,422.3,739.89
20.7921,428.44,717.91
20.8117,435.15,697.13
20.832,441.52,676.9
20.852,447.62,660.52
20.8719,453.29,646.42
20.8917,458.24,633.13
20.9118,462.79,623.51
20.9317,467.23,614.41
20.9517,471.58,606.72
20.9718,474.87,601.58
20.9917,478.89,597.06
21.0117,482.52,593.45
21.0318,484.81,588.96
21.0518,485.85,586.97
21.0719,486.88,585.17
21.0919,487.9,583.54
21.1117,489.92,581.63
21.1319,490.94,581.71
21.1519,491.15,582.56
21.1719,492.52,581.65
21.1919,493.42,578.72
21.2119,495.93,579.58
21.232,501.75,580.46
21.252,505,583.17
21.2718,507.2,582.14
21.2917,508.76,581.51
21.3117,508.81,580.61
21.3319,508.05,580.49
21.3525,507.04,579.99
21.3717,508.63,582.59
21.392,508.1,585.87
21.412,506.08,588.9
21.4318,504.27,591.52
21.452,503.81,593.61
21.4717,502.65,596.09
21.4918,502.32,596.87
21.512,502.26,595.3
21.532,502.2,593.64
21.5518,500.76,591.51
21.5719,501.21,587.41
21.592,500.77,585.33
21.6118,502.22,585.66
21.6317,501.57,582.53
21.6517,501.46,579.02
21.6717,501.57,576.62
21.6918,499.45,575.1
21.7119,498.96,574.48
21.7318,498.77,574.18
21.7518,497.62,574.14
21.7718,497.09,575.72
21.7921,497.07,573.77
21.8117,497.86,574.42
21.8318,498.69,576.93
21.8517,499.15,577.15
21.8717,499.52,577.12
21.8917,500.42,577.89
21.9118,500.13,579.32
21.932,498.11,579.65
21.9521,497.48,580.52
21.9719,497.79,580.62
21.9918,497.23,580.69
22.0117,497.58,577.96
22.0317,496.27,576.56
22.0518,496.01,575.65
22.0717,496.61,575.92
22.0916,497.09,577.34
22.1117,496.67,581.27
22.1317,501.14,576.02
22.1517,513.51,559.21
22.1718,529.61,536.57
22.1919,544.89,511.46
22.2124,556.11,487.36
22.232,561.29,465.09
22.252,562.43,447.67
22.2719,558.34,435.14
22.2917,553.47,428.51
22.3119,547.98,426.61
22.3321,543.78,429.49
22.3521,539.03,435.79
22.3719,535.82,445.23
22.3918,531.66,456.19
22.4116,527.13,467.55
22.4317,523.1,478.64
22.4517,519.68,489.31
22.4717,516.14,499.85
22.4917,514.12,508.48
22.5118,512.49,516.78
22.5317,510.99,523.23
22.5517,508.4,528.58
22.5718,507.72,532.26
22.5918,506.17,536.81
22.6118,504.34,543.05
22.632,503.27,548.64
22.6516,502.02,553.51
22.6717,501.01,557.41
22.6917,500.21,560.53
22.712,498.17,562.22
22.732,497.93,563.18
22.7519,497.15,563.54
22.7721,497.32,565.23
22.7917,498.05,569.59
22.8117,489.44,596.07
22.8318,470.75,644.06
22.8522,447.6,698.04
22.8717,432.88,736.64
22.8918,426.91,750.51
22.9119,425.13,748.41
22.9318,428.1,735.73
22.9521,431.68,719.58
22.9719,438.34,700.26
22.9918,445.08,681.21
23.0117,449.86,664.57
23.0317,453.69,649.66
23.0517,457.15,637.12
23.0719,461.12,624.7
23.0922,465.7,614.16
23.1118,470.36,606.13
23.1317,472.89,599.7
23.1517,476.31,593.16
23.1719,479.05,589.13
23.1919,481.04,585.5
23.2117,484.23,581.4
23.2321,484.78,577.52
23.2519,486.03,576.42
23.2719,487.02,575.13
23.2917,488.62,577.51
23.3117,491.69,581.01
23.3326,493.76,581.2
23.3527,495,582.16
23.3727,497.6,581.53
23.3927,498.48,580.62
23.4129,498.39,580.5
23.4327,499.51,579.4
23.4529,499.81,579.92
23.473,500.85,579.34
23.493,499.68,579.87
23.5127,499.14,579.3
23.5328,497.51,579.24
23.5526,497.61,579.19
23.5729,499.09,577.55
23.5928,498.27,577.04
23.6128,496.82,577.23
23.633,497.05,575.59
23.6531,497.24,575.07
23.6727,496.59,573.66
23.6928,496.68,574.52
23.7127,495.94,573.02
23.7326,496.55,573.02
23.753,496.24,573.01
23.7729,494.99,573.81
23.7929,494.99,572.65
23.8127,496.2,571.92
23.8329,496.96,571.13
23.8529,497.97,571.31
23.873,498.57,570.85
23.8927,497.86,569.48
23.9127,497.89,569.58
23.9327,497.11,569.47
23.9528,495.89,568.97
23.9729,495.71,569.18
23.9927,496.97,569.14
24.0128,495.77,569.11
24.0331,496.22,568.09
24.054,495.18,569.27
24.0744,494.94,568.82
24.0942,495.75,569.45
24.114,494.8,569.56
24.1338,494.84,570.65
24.1537,495.27,570.52
24.1747,495.62,570.62
24.1949,495.29,572.29
24.215,495.84,572.83
24.2348,496.47,573.07
24.2548,496.57,573.05
24.2749,496.06,573.84
24.2948,496.45,573.27
24.315,496.76,573.42
24.3347,497.01,574.54
24.3547,497.41,575.43
24.3748,497.92,574.14
24.3949,498.54,573.51
24.4149,497.83,573.21
24.4348,496.27,574.57
24.4548,496.21,574.06
24.475,495.97,573.84
24.4951,496.38,575.08
24.5148,498.1,576.06
24.5347,503.28,568.25
24.5547,514.42,549
24.5748,528.54,523.6
24.5948,541.03,497.08
24.6149,549.63,473.46
24.6347,552.7,450.57
24.6547,552.16,432.66
24.6747,550.93,423.13
24.6947,551.34,421.1
24.7147,548.67,424.48
24.7347,543.74,432.78
24.7547,539.59,442.03
24.7747,535.67,453.42
24.7947,531.14,465.74
24.8148,527.51,476.19
24.8347,523.21,487.15
24.8547,518.77,498.32
24.8747,515.81,507.26
24.8947,511.25,516.01
24.9147,508.8,523
24.9347,508.24,528.6
24.9547,506.99,532.08
24.9747,505.39,537.87
24.9948,504.12,540.69
25.0147,503.09,545.35
25.0347,502.87,549.68
25.0547,502.9,552.75
25.0747,502.72,556.2
25.0948,502.38,557.16
25.115,502.3,561.13
25.1347,503.04,562.3
25.1547,502.03,564.04
25.1747,502.63,564.23
25.1948,502.7,565.79
25.2147,501.56,566.83
25.2347,501.25,565.66
25.2547,502.4,564.73
25.2748,501.32,564.58
25.2949,501.06,564.67
25.3147,501.44,564.93
25.3347,499.96,565.95
25.3547,500.36,566.76
25.3748,500.89,570.01
25.3947,488.11,593.01
25.4148,463.09,639.6
25.4348,437.27,693.48
25.4547,425.42,732.79
25.4748,424.93,749.03
25.4948,427.55,745.22
25.5148,435.84,730.78
25.5347,442.67,710.82
25.5548,448.94,691.26
25.5748,454.95,671.01
25.5948,459.56,655.61
25.6152,464.65,641.08
25.6351,469.92,630.27
25.6548,473.33,621.41
25.6751,475.67,612.73
25.6947,478.53,607.38
25.7147,480.23,601.71
25.7347,481.98,596.97
25.7548,484.59,592.37
25.7748,487.07,587.7
25.7949,488.25,586.16
25.8151,490.6,581.73
25.835,491.48,579.98
25.8551,492.19,580.19
25.8748,493.35,579.55
25.8947,493.68,578.44
25.9147,493.74,579.15
25.9347,493.39,578.12
25.9548,492.32,577.3
25.975,492.05,577.44
25.995,492.44,576.75
26.0153,493.55,575.6
26.0349,493.84,574.68
26.0547,494.87,575.34
26.0749,496.5,574.88
26.095,496.6,574.3
26.115,498.08,573.44
26.1348,498.06,572.55
26.1548,497.45,571.04
26.1748,496.96,570.23
26.1949,495.77,570.39
26.2148,495.01,570.51
26.2347,493.61,571.41
26.2547,494.69,571.33
26.2747,496.15,571.66
26.2951,495.72,572.13
26.3147,496.18,572.3
26.3346,494.94,572.64
26.3549,493.75,572.31
26.3747,494.4,572.65
26.3948,494.92,570.52
26.4146,495.54,570.82
26.4346,495.23,571.05
26.4547,495.78,570.84
26.4748,495.63,569.47
26.4948,497.1,568.78
26.515,496.48,569.42
26.5347,496.19,568.54
26.555,495.55,568.03
26.5748,495.24,566.62
26.5947,494.99,567.5
26.6149,495.59,568
26.6347,496.87,566.8
26.6546,496.9,567.64
26.6746,496.92,568.31
26.6948,497.14,568.45
26.7148,496.51,567.76
26.7347,495.81,568.01
26.7546,495.45,570.01
26.7747,496.56,570.2
26.7948,495.85,573.96
26.8148,495.28,578.97
26.8349,502.22,572.38
26.8548,518.98,553.7
26.8747,541.58,528.36
26.8948,562.27,500.69
26.915,571.01,472.15
26.935,575.61,445.92
26.9547,574.29,425.94
26.9747,569.83,411.75
26.9949,562.46,407.2
27.0148,555.57,409.16
27.0347,550.26,415.53
27.0547,545.21,425.02
27.0747,539.36,436.22
27.0952,533.49,447.97
27.1151,529.59,460.38
27.1347,524.87,472.5
27.1548,521.7,483.2
27.175,517.96,494.16
27.1948,514.77,502.53
27.215,512.41,509.62
27.2346,510.93,516.3
27.255,509.75,523.64
27.275,506.6,529.71
27.2948,506.08,533.97
27.315,503.86,537.98
27.3349,504.09,540.38
27.3549,504.87,542.1
27.375,504.5,545.08
27.3952,503.8,547.27
27.4149,503.64,548.01
27.4347,504.91,550.41
27.4556,499.33,570.53
27.4758,487.06,613.42
27.4957,467.05,680.14
27.5159,446.44,748.71
27.5359,430.55,803.57
27.5558,416.64,847.45
27.5758,409.51,863.96
27.5958,413.01,851.57
27.6166,419.21,816.26
27.6367,433.37,771.81
27.6571,446.09,725.04
27.6766,457.27,680.24
27.6967,467.22,641.99
27.7166,472.58,610.79
27.7367,478.46,585.23
27.7567,480.97,565.99
27.7768,484.57,547.39
27.7967,486.46,536.91
27.8178,488.77,529.53
27.8377,491.21,528.22
27.8579,492.97,528.38
27.8778,493.18,529.7
27.8977,492.54,529.56
27.9177,489.63,538.25
27.9377,487.51,550.6
27.9577,488.01,559.08
27.9779,488.2,564.86
27.998,488.56,568.49
28.0179,489.45,572.79
28.0377,489.36,573.63
28.0578,489.69,572.91
28.0777,489.75,570.93
28.0976,489.8,571.34
28.1176,490.44,571.87
28.1377,491.35,570.7
28.1576,491.88,570.36
28.1777,493.31,570.09
28.1979,493.44,569.47
28.2177,493.36,571.18
28.2379,494.08,568.74
28.2577,495.67,565.79
28.2777,495.93,563.43
28.2977,495.35,563.35
28.3178,495.28,564.88
28.3377,495.42,567.5
28.3586,497.34,568.2
28.3787,498.87,568.36
28.3987,499.5,570.29
28.4187,499.8,570.63
28.4387,498.44,571.31
28.4587,498.35,571.24
28.4799,497.68,571.6
28.4997,497.74,571.88
28.5199,498.4,570.7
28.5396,498.52,570.56
28.5597,497.61,571.25
28.58,496.29,571
28.6,495.23,571.6
28.6199,493.99,571.48
28.6398,494.59,573.38
28.6596,494.07,574.11
28.6798,494.86,573.49
28.6996,495.49,572.79
28.7197,496.39,572.63
28.7397,495.51,573.5
28.7596,495.01,573
28.7797,494.21,574.6
28.7997,493.77,575.28
28.8199,495.41,573.03
28.8398,495.13,574.22
28.8597,495.5,573.78
28.8797,497.6,573.22
28.8996,496.88,573.58
28.9198,495.91,573.06
28.9397,494.52,573.85
28.9596,493.42,574.48
28.9796,493.54,575.98
28.9998,501.03,569.19
29.0198,516.62,549.15
29.0397,536.9,522.92
29.0597,555.32,499.14
29.0797,567.26,478.31
29.0999,570.8,460.85
29.1197,569.64,447.28
29.1398,563.91,437.62
29.1597,558.73,432.7
29.1798,555.39,432.16
29.1996,549.71,435.13
29.2196,542.57,442.9
29.2396,535.85,453.32
29.2596,530.28,465.26
29.2795,526.03,477.21
29.2997,521.02,487.16
29.3197,518.02,497.33
29.3397,514.61,507.07
29.3597,511.29,516.65
29.3797,509.23,523.32
29.3997,507.59,528.66
29.4197,505.87,533.93
29.4398,505.3,537.34
29.4596,504.84,543.07
29.4797,504.87,547.06
29.5006,503.7,550.25
29.5208,503.96,552.8
29.5406,502.96,555.44
29.5606,501.97,558.15
29.5807,501.18,559.92
29.6007,499.94,561.14
29.6206,498.95,562.11
29.6407,497.36,562.49
29.6608,497.49,562.99
29.6806,497.39,564.19
29.7006,496.71,564.35
29.7208,498.97,564.08
29.7416,498.58,564.27
29.7618,497.86,565.01
29.7817,496.29,565.21
29.8019,496.63,564.97
29.8217,496.11,565.77
29.842,496.28,565.82
29.8616,497.83,569.06
29.8818,487.26,590.84
29.9017,465.21,636.08
29.9219,445.37,689.06
29.9417,435.29,729.05
29.9618,432.64,741.04
29.9817,434.71,737.03
30.0017,437.57,724.62
30.0217,442.45,708.7
30.0416,446.56,689.56
30.0617,451.85,672.85
30.0816,457.28,657.88
30.1017,462.02,645.3
30.1217,466.02,633.24
30.1416,469.62,623.19
30.1618,472.89,616.35
30.1819,475.31,608.88
30.2018,478.05,603.71
30.222,481.04,598.77
30.2416,483.23,596.01
30.2617,486.39,592.21
30.2817,487.91,587.77
30.3017,488.13,586.41
30.3219,489.3,584.73
30.3416,490.64,582.59
30.3619,491.51,581.67
30.3816,491.21,580.73
30.4017,492.57,580.59
30.4217,493.05,579.87
30.4419,493.04,578.5
30.4619,493.43,577.6
30.4821,494.55,574.68
30.5018,493.64,575.14
30.5217,495.11,573.31
30.5417,496.09,572.85
30.5618,495.07,571.08
30.5817,495.46,570.06
30.6016,494.57,569.85
30.6218,494.25,568.48
30.6416,494.8,568.59
30.6618,494.84,568.07
30.6817,494.47,569.85
30.7016,495.58,569.08
30.7218,496.66,569.27
30.7416,496.93,569.01
30.7619,496.94,570.01
30.7816,496.56,568.61
30.8016,496.64,568.69
30.8216,495.92,568.15
30.8417,496.33,567.72
30.8617,496.67,567.98
30.8816,496.93,568.38
30.9016,495.75,569.3
30.9218,496.2,569.44
30.9416,497.16,570.35
30.9618,497.33,570.48
30.9817,496.66,571.99
31.0016,496.93,572.59
31.0216,496.54,572.27
31.0417,496.83,570.62
31.0617,497.67,569.49
31.0819,498.53,569
31.1019,498.43,568.8
31.1216,498.54,568.04
31.1416,497.03,566.23
31.1618,495.43,568.78
31.1815,495.14,569.03
31.2017,495.51,568.42
31.2215,495.41,569.34
31.2416,494.33,570.27
31.2616,493.46,570.22
31.2817,493.77,569.37
31.3016,494.42,568.1
31.3216,495.73,568.68
31.3417,497.39,569.14
31.3617,497.31,570.31
31.3816,496.05,572.65
31.4016,504.24,563.52
31.4216,521.99,544.82
31.4417,544.99,520.85
31.4617,563.39,496.88
31.4817,574.32,472.31
31.5017,576.25,450.85
31.5216,571.8,434.68
31.5417,566.84,427.94
31.5616,559.47,425.75
31.5816,551.18,428.4
31.6017,544.54,434.32
31.6217,538.83,443.26
31.6416,532.27,454.01
31.6618,527.21,465.2
31.6819,521.97,477.36
31.7017,518.18,486.49
31.7216,515.54,495.59
31.7417,512.63,504.27
31.7617,510.91,511.62
31.7816,509.33,517.9
31.8019,508.26,523.72
31.8218,506.41,529.17
31.8416,504.13,533.54
31.8617,502.1,538.23
31.8816,500.48,541.38
31.9016,500.58,544.51
31.9217,500.47,546.61
31.9416,500.57,548.28
31.9617,500.46,550.03
31.9818,500.17,552.22
32.0016,500.33,553.58
32.0217,499.27,555.46
32.0418,498.21,557.37
32.0618,497.17,558.3
32.0817,497.14,557.84
32.1016,495.11,563.47
32.1215,484.29,591.98
32.1417,463.43,644.38
32.1617,444.54,692.1
32.1816,435.24,720.48
32.2017,431.79,721.59
32.2217,431.63,711.47
32.2416,434.5,695.98
32.2616,439.4,680.18
32.2816,443.32,666.14
32.3026,449.26,651.72
32.3226,453.41,640.17
32.3427,458.53,630.34
32.3626,463.62,621.67
32.3826,467.5,613.94
32.4026,470.6,607.75
32.4225,473.08,602.6
32.4426,475.86,598.28
32.4629,477.09,594.42
32.4826,478.87,590.34
32.5029,480.5,586.47
32.5227,482.4,584.18
32.5425,484.72,581.74
32.5627,486.77,577.99
32.583,488.22,575.19
32.603,488.58,573.96
32.6227,489.86,572.56
32.6426,492.09,572.05
32.6629,492.47,571.24
32.6827,493.78,570.79
32.7026,495.22,570.43
32.7226,495.18,569.55
32.7426,496.34,569.84
32.7627,497.27,569.27
32.7826,496.42,569.02
32.8027,496.13,569.01
32.8235,494.51,567.81
32.8436,495.21,567.45
32.8637,495.57,566.96
32.8837,496.05,568.17
32.9039,494.84,568.53
32.9236,494.87,569.03
32.9436,494.1,569.02
32.9636,493.48,569.42
32.9836,495.58,569.13
33.0035,496.47,569.51
33.0236,496.57,569.41
33.0439,495.26,570.12
33.0637,494.61,570.3
33.0838,493.89,569.24
33.1037,494.11,568.79
33.1238,494.29,569.63
33.144,495.63,569.91
33.1638,496.7,567.33
33.1837,496.76,567.26
33.2037,496.21,566.81
33.2237,496.37,566.45
33.2436,495.29,566.96
33.2637,495.04,566.57
33.2836,495.43,567.25
33.3038,496.94,568.4
33.324,497.95,567.52
33.3438,499.56,566.42
33.3637,500.05,565.53
33.3838,499.44,566.03
33.4045,498.55,565.42
33.4246,497.04,567.34
33.4446,495.83,568.07
33.4646,494.87,569.46
33.4845,494.89,569.16
33.5048,494.11,571.33
33.5247,498.09,571.87
33.5446,508.67,560.49
33.5646,528.34,539.99
33.5846,550.87,516.4
33.6047,565.3,492.92
33.6248,570.44,470.53
33.6449,570.35,450.23
33.6645,566.88,435.38
33.6847,560.5,427.1
33.7046,554.2,423.28
33.7246,546.76,425.23
33.7448,541.01,431.38
33.7646,534.61,439.91
33.7847,530.49,449.72
33.8046,526.19,460.98
33.8249,521.55,472.58
33.8447,518.04,482.47
33.8647,514.63,492.77
33.8848,512.91,501.82
33.9048,510.13,509.86
33.9247,507.9,517.28
33.9446,506.32,522.23
33.9648,505.06,528.58
33.9846,504.84,533.27
34.0047,502.68,537.21
34.0245,501.94,540.77
34.0447,501.15,543.22
34.0648,499.92,545.37
34.0847,500.14,546.3
34.1046,499.91,547.84
34.1246,499.33,549.47
34.1456,500.06,550.78
34.1658,502.65,551.02
34.1861,502.92,552.42
34.2057,504.14,552.33
34.2258,503.11,553.27
34.2457,503.09,555.01
34.2658,502.47,556.61
34.2856,501.58,558.29
34.3056,502.86,559.03
34.3257,502.89,558.62
34.3458,502.71,558.1
34.3659,501.77,558.68
34.3856,500.41,559.34
34.4056,499.93,559.08
34.4256,499.75,559.06
34.4466,501.2,559.85
34.4669,497.96,570.68
34.4866,483.57,605.14
34.5066,461.65,655.91
34.5267,445.72,705.93
34.5467,440.18,735.55
34.5668,437.94,739.84
34.5867,439.35,731.47
34.6069,441.88,715.78
34.6269,447.51,696.22
34.6467,451.01,678.98
34.6666,455.2,662.38
34.6866,460.76,647.7
34.7066,465.81,633.96
34.7266,469.85,622.97
34.7466,473.68,612.58
34.7667,476.14,606.26
34.7867,479.11,598.81
34.8067,481.29,592.85
34.8266,483.03,588.48
34.8468,483.43,584.38
34.8665,484.54,582.51
34.8865,485.43,579.6
34.9066,487.35,576.88
34.9268,490.08,574.51
34.9466,492.26,574.61
34.9666,490.21,577.08
34.9866,488.57,578.87
35.0069,488.25,578.49
35.0268,488.6,576.2
35.0467,488.68,574.76
35.0669,489.15,575.8
35.0869,489.92,574.84
35.1066,490.73,573.08
35.1265,490.59,572.26
35.1467,489.87,572.81
35.1667,490.1,572.45
35.1866,490.88,570.96
35.2066,491.7,570.17
35.2265,491.76,569.53
35.2466,492.81,568.63
35.2668,492.45,569.9
35.2866,492.76,570.52
35.3066,493.61,571.22
35.3268,493.08,570.77
35.3467,494.07,569.42
35.3667,495.85,568.73
35.3868,496.48,567.99
35.4066,495.99,568.39
35.4267,495.79,568.51
35.4467,495.63,569.01
35.4667,495.11,569.61
35.4868,495.68,570.09
35.5067,495.95,569.27
35.5268,496.36,568.02
35.5466,494.89,568.61
35.5668,494.11,568.69
35.5867,494.09,568.15
35.6066,494.87,567.92
35.6267,496.1,566.94
35.6467,496.48,567.15
35.6667,496.58,567.72
35.6867,496.27,567.78
35.7068,496.41,568.02
35.7266,496.73,566.62
35.7465,496.38,566.49
35.7665,496.51,566.79
35.7866,495.41,566.04
35.8065,495.92,565.43
35.8266,495.74,565.74
35.8467,496.19,566.39
35.8666,496.75,566.32
35.8868,496.2,566.05
35.9065,497.56,567.64
35.9268,496.85,567.51
35.9477,496.28,567.81
35.9678,494.02,569.05
35.9875,503.82,569.04
36.0077,515.46,569.43
36.0279,522.16,570.14
36.0477,527.13,572.52
36.0679,529.91,574.01
36.0877,529.12,575.81
36.1077,528.7,576.45
36.1277,526.36,580.16
36.1475,522.49,588.33
36.1677,518.99,598.26
36.1875,521.39,598.81
36.2078,533.11,584.05
36.2278,550.89,554.84
36.2476,566.11,521.47
36.2677,575.09,487.98
36.2875,574.27,456.58
36.3077,566.42,433.66
36.3277,554.93,418.73
36.3476,542.75,410.59
36.3679,534.6,409.07
36.3878,527.28,412.65
36.4077,520.82,420.32
36.4275,515.46,431.66
36.4475,511.77,443.33
36.4677,509.01,454.86
36.4875,506.21,467.49
36.5077,504.57,479.39
36.5278,501.85,490.31
36.5475,502.28,499.05
36.5675,502.23,506.84
36.5876,501.98,514.07
36.6077,501.79,520.46
36.6277,502.03,526.37
36.6476,501.42,531.69
36.6676,500.14,535.35
36.6879,499.91,539.28
36.7077,500.13,541.43
36.7281,499.9,544.54
36.7478,499.32,547.23
36.7677,498.86,549.39
36.7879,499.09,550.11
36.8076,498.27,553.09
36.8277,498.62,553.87
36.8476,496.89,555.3
36.8676,496.31,556.04
36.8878,497.05,555.83
36.9076,494.84,565.66
36.9276,483.07,601.53
36.9476,466.66,654.42
36.9677,451.93,706.54
36.9878,445.54,742.63
37.0078,443.03,749.91
37.0277,446.03,738.92
37.0475,448.42,721.94
37.0676,453.34,701.15
37.0876,457.67,681.12
37.1076,461.14,663.7
37.1278,466.11,645.56
37.1476,470.29,632.45
37.1678,474.03,620.76
37.1877,477.82,610.61
37.2078,481.86,602.28
37.2278,484.09,595.23
37.2476,487.47,590.78
37.2675,488.38,586.03
37.2878,490.1,582.02
37.3078,492.08,578.22
37.3279,492.66,577.17
37.3479,493.73,575.54
37.3677,494.79,574.63
37.3879,496.63,571.3
37.4077,491.9,567.84
37.4281,489.92,564.87
37.4478,488.74,562.5
37.4677,488.39,561.6
37.4877,488.11,562.08
37.5079,489.29,561.26
37.5279,489.83,561.21
37.5478,489.47,560.57
37.5679,490.57,560.26
37.5879,491.26,560.6
37.6077,491.81,561.08
37.6277,491.65,562.67
37.6476,492.12,563.13
37.668,491.89,564.71
37.6878,491.71,565.17
37.7077,492.97,564.73
37.7281,493.18,564.39
37.748,492.74,563.31
37.7679,492.19,563.25
37.7877,493.15,564
37.8077,492.72,564.2
37.8275,493.18,565.16
37.8477,493.54,566.33
37.8675,494.43,566.46
37.8876,494.35,566.37
37.9079,494.88,565.5
37.9278,496.7,563.4
37.9476,497.16,563.32
37.9677,495.93,562.05
37.9875,495.34,562.64
38.0077,495.07,562.71
38.0279,495.46,562.77
38.0479,496.77,561.02
38.0677,497.81,560.61
38.0879,498.05,561.29
38.1079,496.44,562.43
38.1281,496.15,562.95
38.1478,496.52,563.56
38.1679,496.22,563.45
38.1875,496.37,563.36
38.2078,496.7,562.49
38.2281,496.16,563.79
38.248,496.33,563.43
38.2676,496.06,564.54
38.2877,495.05,567.04
38.3077,494.24,572.43
38.3277,500.19,573.34
38.3478,514.95,569.87
38.3676,534.56,562.1
38.388,555.85,549.48
38.4077,573.88,533.18
38.4277,582.9,512.35
38.4479,586.72,490.48
38.4677,583.98,470.18
38.4878,577.18,452.55
38.5077,566.95,440.04
38.5276,556.96,431.63
38.5477,546.57,428.3
38.5677,536.25,427.84
38.5877,528.4,432.07
38.608,520.92,438.26
38.6277,514.74,447.41
38.6475,511.99,455.93
38.6676,508.39,466.14
38.6877,505.71,476.51
38.7078,503.37,486.21
38.7279,503.1,494.17
38.7478,502.08,501.53
38.7679,502.06,506.63
38.7877,500.25,512.7
38.8077,498.8,518.36
38.8278,499.04,522.69
38.8477,499.43,525.95
38.8679,499.95,530.36
38.8878,500.16,533.29
38.9079,499.73,535.83
38.9277,499.58,538.06
38.9476,499.86,540.05
38.9677,500.29,542.04
38.9875,500.63,543.83
39.0076,500.91,545.27
39.0277,500.93,546.61
39.0475,500.14,547.29
39.0675,499.91,549.23
39.0877,502.13,553.19
39.1078,493.3,581.15
39.1275,475.04,636.92
39.1476,454.03,712.94
39.1677,435.63,774.95
39.1875,425.7,816.36
39.2077,423.56,815.89
39.2275,427.85,793.31
39.2476,435.68,756.65
39.2676,445.14,716.12
39.2875,451.71,680.49
39.3075,458.77,650.8
39.3275,464.82,626.04
39.3476,470.45,604.63
39.3676,474.36,589.9
39.3886,478.29,577.92
39.4085,482.63,568.94
39.4286,487.31,560.35
39.4496,490.04,556.28
39.4695,490.84,553.22
39.4895,491.47,551.58
39.5095,491.37,551.26
39.5295,490.9,550.21
39.5495,491.52,548.77
39.5696,492.62,547.61
39.5895,494.29,546.69
39.6095,494.03,545.75
39.6298,495.03,546.6
39.6505,496.02,546.68
39.6706,495.62,548.55
39.6915,500.29,551.84
39.7115,508.64,555.27
39.7316,515.11,558.22
39.7525,519.49,561.37
39.7726,522.99,563.3
39.7926,524.39,565.44
39.8126,523.11,566.35
39.8337,521.69,567.28
39.8536,520.15,567.62
39.8735,517.32,568.3
39.8935,515.06,569.24
39.9137,514.85,569.79
39.9336,511.68,570.43
39.9535,510.14,570.95
39.9736,506.91,571.76
39.9935,504.93,573.01
40.0135,503.54,575
40.0336,501.64,575.4
40.0535,501.11,575.32
40.0737,501.09,574.26
40.0935,501.07,573.41
40.1135,501.26,572.73
40.1335,500.8,572.38
40.1535,500.84,571.7
40.1735,499.27,571.16
40.1936,498.82,570.53
40.2135,497.86,569.02
40.2335,496.68,569.82
40.2535,496.75,568.46
40.2735,496.4,568.96
40.2935,496.92,567.57
40.3136,496.53,566.46
40.3336,497.43,564.57
40.3536,497.74,564.65
40.3735,497.59,565.12
40.3935,497.68,564.1
40.4135,496.94,562.68
40.4335,497.15,561.54
40.4536,497.32,561.03
40.4737,497.66,561.43
40.4938,497.73,563.14
40.5135,497.98,564.11
40.5335,492.58,565.49
40.5535,483.27,565.59
40.5735,479.01,565.47
40.5935,476.21,565.78
40.6135,475.57,564.22
40.6335,475.26,565.98
40.6536,476,566.58
40.6735,477.2,566.47
40.6936,478.56,566.97
40.7135,479.45,566.78
40.7335,481.36,566.62
40.7537,482.29,566.7
40.7735,483.63,566.96
40.7935,484.9,567.97
40.8135,486.52,567.57
40.8335,487.82,569.06
40.8536,488.26,570.05
40.8735,489.6,570.84
40.8935,489.08,571.67
40.9135,489.87,571.34
40.9335,491.69,570.87
40.9536,492.35,570.1
40.9735,493.28,569.88
40.9936,493.63,569.1
41.0135,495.5,567.08
41.0338,495.4,567.06
41.0536,499.52,566.65
41.0736,509.82,564.12
41.0935,518.85,562.1
41.1136,523.68,559.68
41.1335,527.35,557.74
41.1537,528.68,555.39
41.1735,528.34,552.71
41.1935,527.47,551.17
41.2135,525.18,550.54
41.2336,523.34,550.03
41.2537,521.47,550.62
41.2735,519.18,549.9
41.2934,516.54,550.92
41.3135,514.43,552.14
41.3335,512.15,552.71
41.3537,510.52,552.97
41.3735,508.61,556.17
41.3934,506.29,557.54
41.4136,504.63,559.03
41.4335,503.91,559.02
41.4535,503.73,558.22
41.4735,502.98,558.98
41.4935,501.38,559.38
41.5135,500.51,559.7
41.5335,501.01,559.96
41.5536,501,560.97
41.5736,499.6,562.18
41.5938,501.48,561.54
41.6136,502.39,561.63
41.6334,503.11,561.11
41.6535,501.89,563.49
41.6735,501.31,563.79
41.6935,499.45,564.23
41.7136,498.16,564.78
41.7345,498.73,564.63
41.7545,497.98,566.3
41.7745,497.99,564.44
41.7948,499.79,566.15
41.8145,486.43,571.92
41.8346,469.74,578.54
41.8545,459.2,579.83
41.8745,455.36,577.06
41.8945,453.69,574.25
41.9146,453.75,570.6
41.9356,456.6,567.28
41.9555,461.08,565.22
41.9755,465.06,563.58
41.9955,468.25,563.06
42.0157,471,563.65
42.0355,474.2,563.52
42.0555,477.56,563.22
42.0755,480.25,562.17
42.0955,483.2,562.94
42.1158,485.96,561.95
42.1355,488.37,565.16
42.1555,489.89,564.73
42.1755,492.71,563.18
42.1955,494.97,563.55
42.2156,495.78,562.44
42.2355,496.42,562.35
42.2555,498.34,560.48
42.2755,499.27,560.78
42.2955,500.02,561.23
42.3156,501.41,560.18
42.3355,503.13,559.15
42.3556,505.3,559.92
42.3757,505.44,561.73
42.3955,505.15,569.59
42.4157,503.12,588.87
42.4355,503.5,619.5
42.4555,506.4,665.8
42.4756,508.52,706.04
42.4955,510.22,719.83
42.5156,505.97,708.26
42.5355,501.98,680.41
42.5555,501.38,643.93
42.5755,502.31,605.74
42.5955,502.64,570.59
42.6155,504.12,540.08
42.6359,504.89,513.46
42.6557,506.91,495.97
42.6758,507.33,483.77
42.6955,507.67,477.02
42.7155,508.73,474.02
42.7356,507.79,476.81
42.7555,506.83,481.25
42.7756,505.86,486.4
42.7955,505.89,492.12
42.8156,505.51,498.1
42.8355,505.81,503.28
42.8555,505.25,509.02
42.8755,504.8,517.82
42.8956,500.84,533.85
42.9155,502.27,564.28
42.9355,519.82,638.03
42.9556,553.25,715.02
42.9756,601.2,776.62
42.9954,648.96,825.89
43.0156,689.17,865.31
43.0354,712.34,890.85
43.0555,715.67,885.08
43.0756,698.93,854.47
43.0955,669.15,800.97
43.1158,626.72,728.98
43.1355,574.37,641.98
43.1555,519.9,554.79
43.1755,475.32,481.43
43.1957,445.06,428.74
43.2157,427.24,394.59
43.2356,419,376.68
43.2555,414.8,370.54
43.2756,416.84,371.63
43.2955,420.67,376.91
43.3155,424.14,386.92
43.3355,430.11,401.74
43.3556,434.69,424.99
43.3756,438.55,466.19
43.3956,442.24,537.55
43.4156,439.59,620.64
43.4355,430.27,672.72
43.4555,419.42,687.57
43.4756,420.73,675.46
43.4955,430.79,646.37
43.5155,442.03,612.09
43.5355,451.22,576.67
43.5555,460.38,546.54
43.5756,467.9,522.43
43.5955,474.52,504.95
43.6156,478.62,491.36
43.6354,483.29,483.48
43.6554,486.64,481.99
43.6755,488.91,482.99
43.6956,490.93,486.59
43.7155,490.94,492.27
43.7355,494.75,496.62
43.7555,497.2,503.3
43.7755,500.56,508.64
43.7956,501.85,512.91
43.8156,502.08,517.13
43.8355,502.86,524.1
43.8558,503.89,527.48
43.8757,504.51,533.79
43.8956,505.61,540.23
43.9155,505.69,546.18
43.9355,507.35,550.15
43.9554,507.68,554.92
43.9754,507.54,559.53
43.9955,507.24,563.23
44.0156,506.59,565.58
44.0355,507.27,565.47
44.0555,503.82,564.17
44.0757,503.45,563.54
44.0954,502.36,560.83
44.1155,499.89,557.66
44.1354,497.11,555.73
44.1556,498.29,554.59
44.1756,495.03,552.07
44.1955,499.43,551.65
44.2156,521.74,560.32
44.2355,561.19,576.46
44.2557,604.55,594.37
44.2756,636.24,608.69
44.2956,657.79,617.35
44.3155,656.24,619.28
44.3356,647.79,616.03
44.3556,634.03,602.42
44.3755,608.62,588.34
44.3954,585.5,577.07
44.4156,560,567.66
44.4358,536.4,561.52
44.4555,527.12,562.82
44.4756,534.1,567.46
44.4955,535.68,573.76
44.5157,533.14,574.41
44.5355,523.71,573.73
44.5556,514.17,571.58
44.5756,501.14,567.67
44.5955,489.91,564.93
44.6155,486.33,560.55
44.6355,494.26,560.04
44.6556,500.01,562.83
44.6756,503.41,565.26
44.6954,504.73,567.01
44.7156,504.18,568.41
44.7356,501.54,570.93
44.756,500.04,571.54
44.7756,500.63,572.03
44.7955,503.9,574.23
44.8158,503.92,574.18
44.8355,504.34,575.35
44.8558,501.47,576.88
44.8757,475.58,569.9
44.8954,429.46,557.32
44.9155,379.97,543.86
44.9357,342.58,532.69
