Program Time [s],data 0,data 1
6.14228,510.54,478.29
6.16232,510.43,476.44
6.18282,509.95,476.75
6.2023,510.16,479.2
6.2222,509.32,482.96
6.24212,507.26,488.37
6.26244,507.01,493.69
6.28225,506.41,499.15
6.30223,505.93,504.72
6.32223,505.14,509.78
6.34203,503.51,514.82
6.36215,501.81,519.06
6.3831,501.45,522.45
6.40302,501.56,526.96
6.42307,501.65,528.97
6.44323,500.92,531.57
6.46322,501.73,535.86
6.48307,501.99,537.29
6.50314,500.39,540.83
6.52304,499.91,543.06
6.5431,500.73,545.25
6.56304,501.18,547
6.58314,500.95,548.6
6.60419,500.96,549.48
6.62411,500.17,549.58
6.64415,500.53,550.47
6.66503,500.63,551.97
6.6851,500.3,553.38
6.70514,501.04,554.3
6.72606,501.23,554.44
6.74614,501.19,555.15
6.76709,500.95,557.32
6.7871,500.56,558.06
6.80705,500.25,557.85
6.82711,499.6,556.48
6.84708,500.28,556.58
6.86705,499.62,556.67
6.8871,499.3,556.93
6.90705,498.24,556.55
6.92711,498.19,556.04
6.94707,497.55,555.83
6.96709,497.04,556.26
6.98712,498.03,556.61
7.00805,497.43,556.09
7.02817,497.54,555.67
7.04808,497.63,555.94
7.06822,497.51,557.15
7.08809,498.61,557.52
7.10824,498.48,557.42
7.12923,498.19,559.13
7.14904,498.55,558.91
7.16906,498.84,558.72
7.18911,499.27,559.58
7.20916,499.22,559.26
7.2301,497.57,561.81
7.25122,497.66,563.85
7.27208,497.53,565.68
7.29216,498.42,566.34
7.31214,499.54,566.47
7.33308,499.83,566.18
7.35309,500.06,566.94
7.37311,499.85,569.15
7.39307,500.28,569.72
7.41303,498.62,569.38
7.4331,497.9,569.7
7.45303,497.92,569.16
7.47323,497.14,568.93
7.49311,496.71,568.94
7.51302,497.57,569.76
7.53305,498.45,571.6
7.55302,498.36,574.48
7.57309,499.69,578.39
7.59324,503.35,582.31
7.61317,514.88,574.85
7.633,536.11,555.68
7.65333,561.68,530.14
7.67329,585.35,502.51
7.69317,603.28,476.61
7.7131,610.02,455.49
7.73302,608.42,439.79
7.75314,601.33,428.03
7.77412,588.67,425.23
7.79411,575.73,425.98
7.8141,561.79,430.18
7.8341,549.03,437.75
7.85399,539.42,447.4
7.87407,532.54,457.52
7.89408,527.03,469.41
7.91408,522.02,480.93
7.93411,517.22,490.75
7.9543,514.38,500
7.97405,510.3,509
7.99423,507.24,516.6
8.0141,504.79,522.68
8.03401,503.83,529.14
8.05405,503.87,534.91
8.07408,502.49,537.93
8.09404,500.6,541.94
8.11404,500.68,544.56
8.13404,499.74,546.24
8.15413,499.59,549.2
8.17405,500.27,552.36
8.1942,501.22,553.69
8.21404,500.78,553.95
8.23413,500.42,556.36
8.25505,500.74,557.69
8.27509,502.39,562.35
8.29512,496.31,587.88
8.3151,481.25,639.3
8.33504,461.6,709.24
8.35505,442.08,771.99
8.37504,428.06,822.2
8.39498,419.45,854.16
8.41506,419.76,853.33
8.43503,424.21,827.06
8.45504,431.57,789.85
8.47509,438.25,746.88
8.49513,445,704.9
8.51505,452.6,666.72
8.53504,458.28,634.78
8.55505,464.03,607.62
8.57504,469.82,586.5
8.59509,474.66,570.6
8.61505,478.13,559.48
8.63504,481.9,551.98
8.65504,481.92,547.59
8.67504,479.54,543.47
8.69523,479.03,540.78
8.71504,478.02,538.02
8.73503,479.02,537.22
8.75505,481.01,536.57
8.77505,483.41,536.26
8.79505,484.73,536.61
8.81505,486.58,537.49
8.83502,488.27,538.39
8.85504,489.61,540.91
8.87505,492.09,542.93
8.89505,493.67,544.74
8.91505,494.74,547.19
8.93514,495.19,550.96
8.95506,494.95,552.56
8.97505,494.96,557.45
8.99506,495.57,558.96
9.01517,496.06,558.17
9.03502,497.84,559.54
9.05509,497.28,561.23
9.07512,496.82,561.78
9.09507,496.46,562.63
9.11518,496.57,563.9
9.13513,497.05,564.12
9.15506,498.44,565.7
9.17527,498.35,567.36
9.19514,499.08,567.29
9.21525,499.47,567.83
9.23505,501.57,568.06
9.25505,501.86,569.25
9.27506,501.69,568.6
9.29508,503.15,569.48
9.31506,503.12,569.18
9.33513,502.7,568.75
9.35539,501.56,568.4
9.37505,499.85,567.92
9.39506,499.28,565.33
9.41504,499.02,567.27
9.43518,498.82,568.01
9.45505,500.05,567.41
9.47506,501.04,568.53
9.49504,500.63,568.62
9.51505,500.31,568.1
9.53506,499.85,568.28
9.5551,499.48,567.62
9.57506,498.98,566.9
9.5952,498.59,566.52
9.61512,498.47,567.02
9.6354,499.37,566.41
9.65505,499.1,564.93
9.67505,499.08,565.14
9.69523,499.06,565.71
9.71518,499.45,566.37
9.73518,499.16,566.9
9.75527,498.73,565.32
9.77505,499.58,563.25
9.79505,500.07,563.8
9.81504,500.45,562.84
9.83518,500.76,563.47
9.85504,500.21,562.58
9.87513,500.17,562.26
9.89506,499.13,562.21
9.91506,497.51,561.97
9.93539,496.81,561.77
9.95508,496.24,562.02
9.97507,496,562.02
9.99505,496.6,562.81
10.0152,497.68,563.25
10.0352,497.74,563.4
10.0551,499.79,563.72
10.0751,498.63,564.78
10.095,498.71,565.62
10.1151,498.37,565.7
10.135,498.29,565.56
10.155,498.43,565.05
10.1751,498.15,565.04
10.1951,499.12,565.63
10.2152,498.29,566.5
10.2352,498.84,569
10.2551,498.47,571.2
10.2754,498.17,574.76
10.2951,501.74,571.61
10.3151,512.79,555.89
10.335,527.83,531.71
10.3551,543.47,503.17
10.375,556.17,477.13
10.3951,566.14,453.11
10.4151,572.51,434.09
10.4352,575.81,421.27
10.4551,574.45,416.02
10.4761,570.16,416.41
10.4962,563.73,420.13
10.516,556.38,427.1
10.5361,549.7,435.88
10.5561,543.56,446.51
10.5761,536.85,457.21
10.597,532.08,469.56
10.617,526.26,480.25
10.637,522.61,489.6
10.657,518.89,499.88
10.6771,516.31,509.9
10.697,513.25,518.72
10.717,511.2,524.98
10.737,509.76,530.18
10.7572,508.81,534.75
10.7771,507.25,538
10.7971,506,540.8
10.8182,505,543.64
10.8381,503.6,545.51
10.8591,501.68,547.21
10.88,501.54,550.57
10.9,501.63,552.25
10.9202,502.51,553
10.94,501.41,554.4
10.96,500.92,555.72
10.98,500.14,557.58
11,500.71,558.66
11.02,499.37,564.33
11.04,492.7,591.26
11.06,478.56,642.01
11.0801,456.85,712.61
11.1013,436.28,774.69
11.1211,419.82,824.35
11.141,412.86,853.48
11.1611,412.69,848.98
11.1811,418.55,818.99
11.2012,427.24,778.19
11.221,435.39,736.35
11.241,444.71,696.88
11.261,453.17,662.11
11.2811,460.14,632.48
11.3021,466.71,606.99
11.3232,471.37,587.59
11.3442,476.89,572.87
11.3651,480.31,561.1
11.3861,484.45,549.28
11.4071,488.16,540.62
11.4272,491.73,535.3
11.4472,493.98,531.84
11.467,495.59,529.67
11.487,497.27,529.14
11.507,498.42,528.31
11.527,498.13,528.65
11.5471,499.11,530.52
11.567,498.28,532.81
11.5871,498.63,534.25
11.607,500.1,538
11.6271,499.88,541.6
11.6471,500.31,543.68
11.6671,500.04,546.14
11.6871,499.44,547.92
11.7072,499.75,548.73
11.7271,499.4,550.59
11.747,499.92,551.07
11.767,500.54,552.66
11.7871,499.83,552.12
11.8072,500.06,551.9
11.8271,500.25,552.12
11.847,500.4,552.5
11.8671,499.92,552.2
11.8871,498.54,551.96
11.9072,499.23,552.57
11.9271,499.58,553.05
11.947,499.67,552.64
11.967,499.93,552.71
11.9872,500.35,552.77
12.0074,500.48,553.02
12.0272,501.58,553.21
12.047,501.47,553.37
12.067,501.57,553.7
12.087,501.26,553.76
12.107,500.81,554.81
12.127,501.05,554.44
12.147,501.44,553.56
12.1671,501.75,554.24
12.187,502.4,554.4
12.2072,501.52,554.32
12.227,502.42,554.25
12.2471,501.33,554.8
12.267,500.87,554.64
12.287,501.09,554.71
12.3071,498.27,553.97
12.327,497.22,554.58
12.347,497.98,554.06
12.367,497.18,552.65
12.3872,497.94,552.12
12.4082,499.36,552.1
12.428,499.88,551.08
12.448,500.31,549.86
12.468,499.85,549.29
12.488,499.88,549.03
12.5081,499.3,549.82
12.5281,501.04,549.86
12.5481,500.23,549.89
12.5681,498.99,549.31
12.5881,499.99,551.85
12.608,500.39,552.48
12.628,500.91,553.58
12.6481,500.13,553.27
12.668,499.9,553.41
12.688,500.32,553.73
12.708,499.46,553.18
12.728,497.97,552.55
12.748,497.37,553.04
12.769,496.7,554.03
12.789,500.76,555.82
12.81,515.21,556.06
12.83,528.57,557.25
12.85,536.85,558.4
12.8701,540.08,559.92
12.89,540.67,562.53
12.91,539.53,563.83
12.93,537.43,565.86
12.9501,535.34,570.09
12.9711,531.87,579.07
12.991,528.1,589.46
13.011,528.28,594.97
13.031,536.22,593.37
13.0511,551.78,580.5
13.071,568.42,555.2
13.0911,582.54,521.96
13.111,591.43,485.77
13.131,595.14,454.41
13.151,590.92,428.93
13.171,582.13,409.34
13.1912,567.51,394.08
13.2111,550.4,385.26
13.2311,533.52,383.61
13.2511,520.22,387.09
13.271,508.78,394.87
13.291,500.82,405.3
13.311,495.66,416.84
13.331,492.92,430.47
13.3513,491.14,443.38
13.371,489.71,455.3
13.3911,490.17,466.84
13.411,490.34,476.87
13.431,489.67,485.3
13.4522,490.53,493.24
13.4731,490.43,501.99
13.493,490.54,508.59
13.5131,492.03,514.47
13.5331,492.43,519.38
13.553,492.54,522.9
13.573,493.03,526.72
13.593,491.83,542.38
13.613,485.86,584.7
13.6331,475.29,644.76
13.6532,464.83,699.41
13.673,459.66,726.93
13.6931,459.13,728.34
13.714,459.51,715.07
13.734,462.4,697.46
13.754,464.72,677.37
13.7739,467.98,657.49
13.7941,471.98,640.99
13.814,473.99,625.8
13.8341,476.79,612.44
13.8541,479.23,602.55
13.8743,479.99,595.84
13.8941,474.79,593.07
13.914,472.23,588.86
13.9343,472.38,585.29
13.954,472.51,582.03
13.9743,473.81,579.42
13.9941,475.44,575.34
14.014,477.36,572.07
14.034,479.68,569.06
14.054,482.15,566.65
14.0742,483.72,564.32
14.094,485.17,562.05
14.114,485.14,561.44
14.134,486.71,560.55
14.154,487.77,557.64
14.1741,489.22,555.71
14.194,491.17,554.97
14.214,492.54,553.98
14.234,495.23,554.18
14.254,495.98,551.95
14.2741,495.59,550.76
14.294,495.07,551.21
14.314,495.06,550.76
14.334,495.44,550.81
14.3541,490.56,550.85
14.374,486.44,551.08
14.3941,484.96,551.66
14.415,484.36,550.73
14.435,484.49,550.58
14.455,485.39,551.47
14.475,486.31,549.77
14.4951,487.25,548.82
14.5152,488,548.86
14.535,489.4,549.28
14.555,491.32,549.63
14.575,494.06,548.9
14.595,495.25,548.52
14.615,495.8,548.02
14.635,497.04,548.01
14.655,497.83,546.61
14.675,497.06,545.89
14.695,497.45,545.71
14.715,496.96,545.17
14.735,497.77,546.54
14.7549,497.81,545.83
14.775,497.65,544.46
14.7951,498.52,544.97
14.815,499.82,545.18
14.8351,500.85,544.74
14.855,501.08,544.19
14.8749,501.67,545.15
14.895,501.73,545.52
14.9151,502.39,544.82
14.935,502.91,546.45
14.9551,502.73,545.56
14.9751,502.58,545.05
14.9949,501.67,545.44
15.0151,501.93,545.95
15.035,501.35,545.96
15.056,500.28,546.97
15.076,499.02,546.78
15.096,499.02,548.42
15.116,499.41,549.34
15.136,499.53,551.07
15.156,499.22,550.26
15.176,499.58,549.6
15.196,499.26,548.88
15.216,499.81,549.71
15.236,500.45,550.57
15.256,500.16,550.25
15.276,500.13,550
15.2961,499.5,549.2
15.316,500.8,548.96
15.336,501.44,549.37
15.356,502.75,549.1
15.3762,502,550.48
15.396,502.4,549.58
15.416,502.72,550.06
15.436,503.78,550.25
15.456,504.22,548.8
15.4764,503.18,547.44
15.496,508.34,548.75
15.516,523.07,550.8
15.5361,534.66,553.04
15.5559,541.13,554.83
15.5761,542.5,555.27
15.596,541.4,557.21
15.616,540.32,558.97
15.636,537.46,561.58
15.656,533.97,564.06
15.676,530.77,569.45
15.696,528.02,577.36
15.716,527.61,587.29
15.736,529.89,594.03
15.7561,536.11,593.42
15.776,547.09,584.74
15.7961,560.87,565.39
15.8161,575.7,534.31
15.8369,588.96,499.85
15.857,597.77,469.48
15.8771,600.81,443.38
15.897,599.65,422.11
15.9172,592.92,406.49
15.9369,581.74,396.99
15.957,567.99,392.19
15.9772,551.59,391.75
15.997,536.27,396.4
16.017,524.42,403.92
16.037,515.13,414.54
16.0572,509.31,425.43
16.0771,505.85,437.34
16.0971,502.68,448.68
16.1171,500.54,460.14
16.137,499.03,469.91
16.157,497.43,479.73
16.1773,497.34,486.78
16.197,497.67,495.43
16.217,499.54,504.94
16.2369,489.83,530.95
16.257,474.06,574.36
16.277,458.85,626.09
16.2969,443.68,675.47
16.317,432.55,705.18
16.3371,426.84,710.74
16.3573,426.07,699.19
16.3769,428.26,680.55
16.397,431.8,660.44
16.4172,436.44,641.36
16.437,442.95,622.88
16.457,448.76,606.11
16.4772,453.41,593.09
16.4969,459.73,584.27
16.517,465.18,577.61
16.5369,469.55,573.09
16.5571,474.64,570.87
16.5771,477.91,568.9
16.5969,481.13,566.52
16.617,482.9,565.42
16.637,484.52,563.13
16.657,485.62,559.51
16.6769,487.49,557
16.697,488.8,555.6
16.717,491.44,554.28
16.7371,492.15,553.63
16.7569,493.32,554.7
16.7769,494.46,554.56
16.7969,496.96,554.25
16.817,497.77,554.6
16.837,500.02,554.28
16.8572,499.61,554.02
16.8771,499.09,553.42
16.8971,498.87,552.53
16.917,501.9,553.43
16.9371,496.12,552.34
16.957,490.49,550.27
16.977,486.4,548.02
16.997,484.72,548.42
17.0171,481.97,548.73
17.0372,482.78,548.39
17.057,482.82,548.91
17.0769,485.66,548.73
17.0969,485.73,548.98
17.1169,487.38,547.79
17.137,489.91,548.43
17.1571,491.72,548.74
17.1769,493.18,548.99
17.197,494.14,550
17.2171,496.51,549.8
17.2369,498.21,550.04
17.2572,499.77,550.83
17.2773,499.62,550.86
17.297,500.09,551.49
17.317,500.67,552.19
17.337,500.94,552.35
17.358,500.95,551.48
17.3779,500.16,552.19
17.3981,500.93,551.95
17.4181,500.34,553.16
17.438,499.27,552.33
17.4581,499.62,552.66
17.4783,500.3,552.13
17.4979,499.04,550.9
17.518,497.43,550.32
17.5381,497.54,549.46
17.558,497.63,548.77
17.5781,499.11,548.01
17.5982,499.09,548.01
17.618,498.67,547.01
17.638,499.14,547.81
17.658,498.31,548.05
17.6781,500.05,548.44
17.6981,499.84,548.55
17.718,498.87,550.44
17.738,498.9,549.35
17.7579,499.52,549.48
17.7782,498.81,549.18
17.798,499.45,549.15
17.8179,498.96,549.12
17.8382,498.17,548.69
17.8581,499.33,547.96
17.8792,499.87,547.36
17.8992,500.89,547.89
17.9189,500.72,548.31
17.9389,500.77,547.85
17.9591,501.02,547.48
17.9791,501.01,546.38
18.0001,501.81,539.11
18.0203,501.05,539.69
18.0401,501.24,542.55
18.0601,501.19,544.64
18.0799,500.95,545.91
18.0999,501.56,547.33
18.12,500.65,547.26
18.1401,500.12,547.61
18.1601,499.5,548.89
18.18,499,548.51
18.2,497.8,548.61
18.22,507.44,550.69
18.2401,522.15,553.15
18.2601,531.32,554.32
18.2799,536.26,555.06
18.2999,538.2,556.64
18.3202,538.16,558.32
18.3401,537.93,560.65
18.3599,534.74,568.12
18.3801,532.2,579.5
18.4,534.16,580.6
18.42,539.73,569.48
18.4401,548.58,545.78
18.4599,559.26,516.23
18.4801,569.21,482.98
18.5,574.37,452.78
18.5199,575.3,428.43
18.5401,570.64,408.94
18.5599,560.71,394.95
18.5802,548.17,387.76
18.6,536.33,388.21
18.6202,526.47,391.97
18.64,517.57,399.37
18.6599,511.46,411.1
18.6799,507.17,424.28
18.7002,503.73,437.42
18.72,502.39,449.54
18.74,501.51,460.83
18.76,500.81,470.87
18.7801,500.65,480.29
18.7999,499.92,488.63
18.8201,498.73,497.71
18.841,498.39,504.77
18.8613,499.11,510.41
18.8811,500.29,515.13
18.901,499.63,518.9
18.9211,498.7,522.52
18.9411,499.56,527.22
18.9611,500.45,530.97
18.9811,500.56,533.78
19.001,500.25,536.02
19.021,501.2,537.82
19.041,502.56,540.06
19.0611,499.25,559.24
19.0811,486.2,595
19.1011,470.96,640.6
19.1209,458.17,680.48
19.1409,457.33,703.98
19.161,460.87,709.79
19.1811,465.69,701.83
19.201,469.55,688.46
19.2211,472.04,671.37
19.2411,477.43,651.7
19.2612,480.95,632.56
19.2811,484.36,617.05
19.3011,487.49,604.44
19.3212,489.19,594.55
19.3411,489.75,586.64
19.3609,490,582.11
19.381,491.8,575.49
19.401,491.64,572.59
19.4209,492.71,568.47
19.4409,494.37,567.18
19.461,494.9,564.54
19.4809,496.12,563.43
19.5009,497.09,562.15
19.5211,498.67,560.72
19.541,492.34,561.57
19.5611,484.07,561.86
19.581,480.26,563.29
19.6009,478.61,562.03
19.6211,478.68,560.42
19.6411,478.75,559.34
19.6611,480.8,557.67
19.6811,481.64,555.54
19.701,483.11,554.23
19.7211,484.49,553.78
19.741,485.79,554.03
19.7609,488.23,553.42
19.7809,489.99,553.34
19.8011,491.99,552.07
19.8211,492.59,551.86
19.841,494.27,550.88
19.861,495.42,549.11
19.8809,496.13,549.49
19.9009,496.31,548.19
19.921,496.85,548.35
19.9409,497.28,548.48
19.9611,498.82,548.78
19.9811,499.26,547.63
20.001,499.21,547.1
20.0209,500.36,547.48
20.041,501.89,548.59
20.0611,504.11,547.27
20.081,504.69,547.41
20.101,506.75,548.93
20.1209,508.2,549.75
20.141,507.76,550.4
20.1611,507.21,549.52
20.1809,506.37,549.01
20.2009,505.69,548.41
20.2209,504.76,548.93
20.2412,504.4,547.94
20.261,503.92,549.35
20.281,502.94,550.48
20.3009,502.95,550.59
20.3211,502.96,549.87
20.3409,502.37,549.3
20.3609,501.69,549.84
20.3811,501.76,549.47
20.4011,501.6,546.38
20.4211,501.08,547.3
20.441,499.87,546.84
20.4609,500.29,547.27
20.4811,500.03,547.22
20.5011,501.03,547.17
20.521,501.22,546.94
20.5413,501.38,546.55
20.5611,502.1,546.64
20.5809,501.68,546.51
20.6009,501.55,547.21
20.621,501.44,547.77
20.6409,502.35,548.41
20.661,502.08,548.53
20.6811,501.86,548.03
20.7011,501.09,548.22
20.7209,501.67,547.78
20.741,501.94,548.22
20.7611,501.35,547.58
20.781,501.08,548.26
20.801,500.66,546.81
20.8209,502.53,547.25
20.8411,502.83,548
20.8609,502.86,549.8
20.881,504.29,546.24
20.9011,510.23,532.19
20.9209,520.58,513.75
20.941,531.27,496.2
20.9611,542.41,478.36
20.9812,550.13,462.49
21.0009,553.5,447.19
21.0211,553.6,434.95
21.0412,552.48,426.16
21.0611,550.39,421.93
21.0811,546.51,420.94
21.1011,541.41,424.16
21.121,537.33,431.12
21.141,531.66,440.5
21.1609,527.33,450.4
21.1809,525.26,459.72
21.2009,524.01,468.98
21.2212,521.81,478.38
21.2409,520.25,487.1
21.261,519.2,495.08
21.2811,517.56,501.87
21.3009,515.25,507.69
21.3209,514.4,513.95
21.3411,512.32,518.16
21.361,511.85,521.93
21.3811,511.48,526.94
21.4009,510.19,529.76
21.4209,507.95,532.2
21.441,507.56,535.76
21.4611,505.65,537.21
21.4809,505.12,539.77
21.501,504.89,541.22
21.5209,505.12,544.57
21.5409,503.49,565.06
21.5609,494.59,607.05
21.581,483.28,656.24
21.6009,475.02,695.59
21.621,473.62,711.87
21.641,474.29,708.1
21.661,475.83,695.68
21.6811,477.87,680.34
21.7011,479.49,663.67
21.7209,481.6,646.94
21.741,485.28,631.95
21.7609,486.22,619.36
21.7811,488.58,607.29
21.8009,489.86,598.63
21.8209,492.29,590.5
21.8409,493.63,584
21.861,496.31,579.8
21.8808,489.04,578.64
21.9009,483.64,578.31
21.9211,480.71,577.45
21.9409,479.97,575.76
21.9608,479.57,573.81
21.9812,481.26,571.85
22.0011,483.81,570.08
22.0211,484.05,568.86
22.041,486.64,566.69
22.0609,488.31,564.95
22.0809,488.65,564.16
22.1008,489.12,563.13
22.121,489.89,562.3
22.1409,491.52,561.44
22.1609,492.61,561.15
22.1811,494.29,560.52
22.201,494.23,559.82
22.2212,494.39,558.65
22.2408,495.51,557.52
22.261,495.01,558.22
22.2811,494.81,557.38
22.3009,494.84,557.3
22.3209,496.08,556.84
22.3408,497.26,555.27
22.3609,498.61,555.22
22.3808,498.29,554.77
22.4008,498.03,555.22
22.4211,497.42,554.58
22.4409,498.74,553.66
22.461,498.59,552.73
22.4809,498.27,552.38
22.5013,498.42,552.11
22.521,497.73,551.68
22.5411,498.79,552.35
22.5608,498.63,552.08
22.5808,499.3,552.86
22.6012,499.04,552.89
22.6209,499.63,552.51
22.6409,500.11,553.41
22.6609,500.29,552.53
22.6809,501.43,552.82
22.7009,500.94,551.46
22.7211,500.55,551.77
22.741,501.04,551.81
22.7609,500.23,552.05
22.7808,500.99,552.04
22.8008,500.39,551.83
22.821,500.71,553.07
22.8411,500.17,552.65
22.8609,498.94,553.52
22.881,499.15,554.42
22.901,498.72,553.73
22.9209,498.58,553.79
22.9409,498.46,553.23
22.9611,499.57,552.58
22.9811,500.25,552.07
23.0012,500.8,552.45
23.021,500.84,552.76
23.0411,500.27,551.41
23.061,499.82,552.53
23.081,500.46,554.62
23.1009,500.56,555.9
23.121,500.05,555.72
23.141,499.64,557.17
23.161,500.31,556.74
23.1808,500.65,556.39
23.201,501.72,555.91
23.221,502.38,556.13
23.2411,502.5,556.7
23.2612,502.2,557.56
23.2809,503.16,557.45
23.301,502.13,558.36
23.3211,500.7,559.69
23.3409,500.16,557.95
23.3612,500.53,557.76
23.3809,500.62,559.01
23.401,502.5,561.21
23.421,503.8,563.57
23.4412,513.64,552.65
23.4611,526.71,534.52
23.481,543.37,516.02
23.5009,559.1,497.21
23.521,571.48,477.57
23.5416,576.98,459.66
23.561,578.18,445.73
23.5809,575.75,436.98
23.601,569.6,431.58
23.6209,562.48,431.27
23.642,555.78,433.41
23.6618,551.03,440.33
23.682,545.82,449.26
23.7029,541.66,459.61
23.7228,539.93,468.89
23.7429,537.74,478.91
23.763,533.59,487.33
23.784,531.27,494.66
23.8039,528.22,501.13
23.824,525.98,507.1
23.8451,522.98,512.48
23.8649,519.78,517.79
23.8848,517.83,522.03
23.9048,515.46,524.42
23.925,514.37,528.54
23.945,512.9,532.83
23.9649,509.92,536.06
23.9849,511.13,538.05
24.0049,510.51,540.04
24.0249,509.81,541.63
24.0449,509.64,542.71
24.0649,508.92,543.97
24.0849,508.93,543.17
24.105,507.75,543.54
24.1249,507.8,544.03
24.1449,506.64,543.82
24.165,506.31,544.86
24.1851,502.05,557.29
24.2052,484.04,591.23
24.2249,458.83,639.78
24.2449,439.26,686.83
24.265,432.01,713.06
24.285,430.81,716.05
24.3048,432.85,706.24
24.3249,438.08,689.19
24.345,443.46,671.75
24.365,449.77,653
24.385,455.62,635.8
24.4049,460.89,621.64
24.4249,465.91,610.51
24.445,469.53,601.61
24.465,473.63,593.09
24.4851,476.9,585.27
24.5049,480.32,579.02
24.5249,483.86,574.81
24.5449,485.28,571.25
24.5649,487.23,567
24.5851,489.58,564.4
24.6052,491.67,562.32
24.6249,492.33,561.66
24.6449,493.67,559.53
24.6649,495.13,559.22
24.6849,495.71,558.18
24.705,496.57,557.14
24.7251,496.85,556.71
24.7453,498.08,555.57
24.765,494.87,554.86
24.7851,493.09,555.28
24.805,492.67,555.03
24.8249,492.34,555.02
24.8449,491.47,555.62
24.8652,492.18,553.89
24.8851,492.34,553.32
24.9052,492.67,550.85
24.9251,493.74,548.88
24.9449,493.79,549.31
24.9652,494.63,549.04
24.985,494.31,546.84
25.0049,495.84,547.27
25.025,496.48,546.21
25.0451,496.18,546.17
25.0651,495.94,546.74
25.085,496.56,545.59
25.1053,496.64,544.07
25.1251,497.32,542.66
25.1453,498.25,542.33
25.1651,498.8,541.66
25.1849,498.84,542.53
25.2049,498.67,542.62
25.2251,497.94,543.1
25.2451,497.95,544.08
25.2651,499.16,543.66
25.285,500.33,542.53
25.305,501.66,543.82
25.325,501.93,544.66
25.3452,501.54,546.73
25.3652,502.24,547.58
25.3849,500.79,547.67
25.4048,498.63,549.73
25.4251,498.7,549.19
25.4451,498.56,549.35
25.4649,499.45,549.28
25.485,499.16,548.82
25.5055,500.93,549.86
25.5249,500.94,550.09
25.5452,500.75,551.47
25.5651,500,553.98
25.5851,500.4,555.38
25.6051,500.72,555.7
25.6249,501.38,556.76
25.6449,501.1,556.01
25.665,500.48,557.01
25.6849,500.19,558.21
25.7051,499.75,557.37
25.725,500.4,556.49
25.745,501.32,555.39
25.765,502.26,555.52
25.7851,501.6,555.81
25.8049,500.88,555.25
25.8248,500.71,556
25.8448,501.57,556.2
25.865,501.45,556.16
25.8848,501.56,555.93
25.9048,502.05,555.74
25.9248,500.44,555.39
25.9449,501.15,555.92
25.9651,500.32,556.13
25.9852,500.06,556.51
26.005,500.45,556.2
26.0251,500.56,555.96
26.0452,500.85,555.77
26.065,500.88,554.82
26.0849,500.7,553.85
26.1056,500.56,553.08
26.1251,500.05,553.87
26.145,499.44,554.89
26.1651,498.95,556.11
26.1851,501.96,554.29
26.205,510.17,542.83
26.2249,523.13,525.87
26.2451,541.31,508.89
26.265,558.25,492.91
26.285,569.4,475.73
26.3048,576.32,460.39
26.3252,578.65,445.91
26.3449,576.12,436.93
26.365,571.1,431.14
26.385,563.48,429.71
26.4058,555.18,431.97
26.4261,546.75,436.98
26.4458,539.4,443.98
26.466,534.32,454.58
26.4861,529.25,463.07
26.506,525.6,472.25
26.526,521.08,481
26.5461,517.27,490
26.566,514.01,497.4
26.5862,512.01,504.32
26.606,509.61,511.06
26.6261,508.69,516.45
26.6459,507.35,521.76
26.6661,507.28,525.61
26.6862,506.62,529.48
26.706,505.5,533.59
26.7268,504.8,536.67
26.7468,504.04,539.14
26.7668,502.63,541.11
26.7869,503.51,542.09
26.8072,503.2,543.47
26.8273,502.76,544.38
26.847,502.61,543.9
26.8669,502.29,556.12
26.8869,497.63,589.3
26.9069,489.1,633.84
26.9272,478.88,673.27
26.9468,470.31,697.22
26.967,465.25,701.37
26.9871,463,691.9
27.0072,463,677.12
27.0272,464.8,661.29
27.047,468.24,647.04
27.067,470.19,634.03
27.0879,473.15,621.02
27.108,474.92,610.82
27.128,478.74,602.25
27.1482,481.79,595.4
27.168,484.83,590.52
27.188,484.87,587.42
27.2079,476.29,587.53
27.2279,469.63,587.63
27.2478,466.71,586.3
27.2679,465.77,584.44
27.288,466.81,580.95
27.3079,468.85,578.16
27.328,470.68,575.13
27.348,472.94,572.3
27.3679,475.16,568.84
27.3879,477.32,566.87
27.408,481.26,564.3
27.4282,483.21,562.24
27.448,485.57,560.59
27.4681,488.65,559.27
27.4881,490.32,557.62
27.5078,491.26,557.1
27.528,491.21,557.68
27.548,491.96,556.94
27.5681,493.17,556.35
27.5879,495.94,555.88
27.6078,496.95,554.31
27.6278,497.16,553.44
27.648,497.53,551.76
27.668,499.02,551.6
27.6879,499.42,551.48
27.708,499.33,551.79
27.7279,500.07,552.43
27.7483,500.25,551.74
27.768,500.4,552.39
27.788,500.12,552.32
27.8078,499.7,552.85
27.8279,499.56,553.28
27.8479,500.05,553.03
27.8678,500.64,552.22
27.8879,500.31,552.38
27.9078,501.45,551.9
27.9283,501.16,552.72
27.9486,500.53,553.78
27.9683,499.82,554.22
27.9884,498.86,554.38
28.0082,499.49,554.9
28.0282,499.39,554.52
28.0481,499.31,555.02
28.0683,498.85,554.01
28.0879,498.88,554.61
28.108,498.5,555.09
28.1283,499.4,555.47
28.1481,499.72,554.98
28.1682,500.18,555.38
28.1879,500.74,554.51
28.2078,500.19,555
28.2281,500.75,554.8
28.2479,500.2,555.24
28.2679,499.76,554.39
28.288,499.61,555.32
28.3079,500.49,555.05
28.3278,500.19,555.24
28.3481,499.55,557.19
28.368,499.64,556.75
28.388,498.71,555.8
28.408,497.57,557.04
28.428,497.06,556.83
28.4482,495.45,558.27
28.468,494.96,559.41
28.488,495.37,559.73
28.5079,496.89,559.39
28.5278,498.11,559.91
28.5481,499.49,560.93
28.5681,499.59,560.94
28.5882,499.87,561.35
28.6078,500.3,560.68
28.628,500.44,560.75
28.6479,499.35,562
28.6681,498.48,563.2
28.6879,502.39,554.76
28.7079,511.91,536.81
28.728,525.13,520.05
28.7482,539.9,504.64
28.7682,549.92,490.91
28.7878,558.54,476.13
28.8078,562.83,460.7
28.8279,563.26,446.76
28.8482,559.21,436.81
28.8681,555.17,431.65
28.8881,550.93,430.92
28.9078,545.35,433.33
28.9281,539.48,438.67
28.9478,533.18,446.33
28.968,528.35,454.67
28.988,524.48,465.53
29.0078,521.58,474.43
29.0284,518.07,483.74
29.0484,515.05,492.19
29.0681,512.64,501.15
29.088,510.91,509.12
29.108,508.73,516.5
29.128,508.18,522.4
29.148,507.55,526.92
29.168,505.84,532.34
29.1878,504.07,536.27
29.2079,503.46,538.81
29.2279,501.37,542.45
29.2478,500.69,544.16
29.2678,500.75,545.93
29.2879,500.6,547.34
29.3078,501.08,549.27
29.3283,501.87,551.02
29.3482,501.09,554.22
29.368,501.47,555.17
29.3881,502.58,555.54
29.4081,503.06,556.83
29.428,503.65,557.26
29.4481,502.32,557.41
29.4682,502.46,556.93
29.4882,502.37,556.34
29.5079,502.29,555.67
29.5278,502.23,557.14
29.5479,500.19,563.91
29.5681,493.35,594.53
29.588,484.08,640.02
29.608,474.46,688.42
29.6283,467.37,723.34
29.6482,464.5,734.87
29.668,465.6,728.89
29.688,465.68,715.32
29.7082,467.94,698.25
29.7282,469.95,682.4
29.7479,471.16,668.32
29.7682,474.33,654.46
29.7878,476.66,640.97
29.8079,479.33,630.97
29.829,481.47,621.98
29.849,484.77,614.98
29.869,478.82,606.19
29.8891,475.25,599.15
29.9089,473.2,593.12
29.9289,473.56,586.3
29.95,474.45,581.04
29.97,476.56,576.03
29.9899,479.25,571.82
30.01,480.6,568.66
30.03,482.68,566.53
30.0498,486.34,564.62
30.0699,488.47,562.5
30.0903,489.38,561.4
30.11,489.3,561.72
30.13,490.04,560.37
30.1498,491.83,559.3
30.1698,492.47,559.24
30.1901,493.57,557.59
30.2102,493.46,557.87
30.23,494.37,558.1
30.2498,494.69,557.68
30.2699,495.36,558.74
30.2899,495.88,558.59
30.3098,496.71,559.28
30.3301,497.57,558.22
30.35,498.05,557.58
30.37,497.84,557.66
30.3898,497.87,559.33
30.41,498.1,558.86
30.4298,498.68,558.69
30.4499,498.54,558.75
30.47,499.23,560
30.4899,498.39,561
30.51,497.71,562.6
30.5299,497.57,563.48
30.5498,499.45,563.78
30.5699,499.56,563.63
30.5899,499.05,563.7
30.6098,498.64,563.56
30.6302,496.71,565.05
30.6498,495.37,566.64
30.6699,496.5,566.51
30.6899,496.6,565.61
30.7099,497.28,564.89
30.73,496.42,565.11
30.7499,495.34,566.09
30.7699,494.67,566.47
30.7901,495.54,565.58
30.8098,495.03,565.66
30.8299,495.42,565.53
30.8498,496.34,565.02
30.87,495.47,565.42
30.89,496.78,565.13
30.9101,497.42,564.51
30.9299,497.54,563.41
30.95,497.43,563.12
30.9699,497.74,563.7
30.99,498.19,564.36
31.0099,498.16,564.69
31.03,497.32,564.75
31.05,498.26,564.8
31.0701,498.01,565.64
31.0898,496.61,565.71
31.1099,496.09,564.97
31.1301,495.07,564.38
31.1501,496.05,566.1
31.1699,496.44,568.48
31.19,498.55,569.58
31.2099,503.44,559.47
31.2299,512.96,543.97
31.2498,523.56,526.38
31.2699,535.05,512.5
31.2898,545.64,500
31.3098,555.91,488.8
31.3299,560.73,478.04
31.35,562.38,468.43
31.3699,563.11,458.75
31.3901,555.89,452.2
31.4098,552.71,448.56
31.4298,547.37,446.65
31.4498,541.09,448.32
31.4698,536.27,452.85
31.4899,530.42,458.08
31.5098,526.14,466.87
31.5298,521.91,476.29
31.5499,517.93,487.43
31.5699,514.74,495.95
31.5899,512.59,504.36
31.6099,509.87,512.69
31.6298,507.1,520.35
31.6498,504.48,527.68
31.6698,502.98,532.34
31.6899,501.99,537.67
31.7098,502.19,541.94
31.7298,501.95,544.35
31.7498,502.16,546.48
31.77,501.73,548.99
31.7898,500.78,551.59
31.8098,499.43,554.47
31.8298,498.34,554.58
31.8499,498.47,556.66
31.8699,498.78,558.53
31.8899,497.62,560.62
31.9098,496.7,561.9
31.9299,497.76,562.92
31.95,497.81,564.14
31.9699,498.25,565.31
31.9898,498.6,564.65
32.0098,499.88,565.52
32.0298,500.5,566.41
32.0499,501.4,566.73
32.0698,501.72,566.58
32.0898,500.78,565.67
32.1098,500.42,564.73
32.1298,499.14,569.19
32.1498,486.71,595.15
32.1699,466.97,640.52
32.1898,448.57,694.22
32.2098,438.46,731.57
32.2298,437.97,745.46
32.2499,440.77,740.77
32.2699,443.42,728.21
32.2899,448.14,709.57
32.3099,453.11,692.66
32.3298,458.69,674.53
32.3498,462.75,659.02
32.3699,466.8,645.42
32.3899,471.04,633.73
32.4098,474.43,623.99
32.4298,477.75,615.39
32.4498,481.2,607.91
32.4699,483.16,603.13
32.4899,482.73,602.9
32.5099,482.78,601.92
32.5299,483.22,598.54
32.5502,483.98,595.43
32.5697,485.58,593.14
32.5899,486.27,590.92
32.6107,488.81,587.33
32.6309,488.45,585.87
32.6517,487.96,583.49
32.6718,488.97,580.79
32.6928,489.77,577.64
32.7128,490.62,576.11
32.7328,491.5,575.09
32.7528,494,573.87
32.7729,495.2,571.5
32.7927,494.76,570.2
32.8129,494.01,568.76
32.8329,493.21,568.01
32.8538,494.56,565.8
32.8749,495.25,563.64
32.8959,496.2,561.91
32.9159,496.96,560.13
32.9369,497.17,558.71
32.957,498.33,557.36
32.9769,497.47,557.29
32.9968,496.97,557.43
33.0168,497.18,557.55
33.0369,498.14,558.44
33.057,498.71,558.15
33.0768,498.57,558.32
33.0968,498.46,558.46
33.1168,498.17,557.36
33.1368,498.73,556.09
33.1568,497.99,555.27
33.1768,498.99,554.62
33.1968,499.99,553.89
33.2169,500.59,553.72
33.2368,500.67,552.57
33.2579,500.74,552.06
33.2779,500.99,549.85
33.2978,500.59,548.28
33.3178,499.07,548.82
33.3378,498.86,547.66
33.3577,499.69,548.13
33.3778,500.35,547.9
33.3977,500.08,547.92
33.4178,500.66,546.74
33.4377,501.13,546.79
33.4577,500.91,547.63
33.478,501.72,548.11
33.4978,501.58,548.48
33.5179,502.26,547.39
33.5377,502.41,547.11
33.5578,502.33,547.29
33.5779,502.46,548.23
33.5978,502.17,547.78
33.6179,501.54,547.63
33.6377,501.63,548.1
33.6577,503.1,545.88
33.6778,508.48,539.91
33.6979,515.99,531.92
33.7179,526.99,521.34
33.7378,538.19,509.27
33.7579,547.75,494.42
33.778,554.8,477.93
33.7978,561.04,459.55
33.8178,565.43,441.04
33.8378,566.55,428.43
33.8579,563.84,419.34
33.8778,557.87,416.08
33.8977,550.9,415.06
33.9178,544.32,418.65
33.9378,538.65,423.52
33.9578,532.92,430.21
33.9777,527.34,438.37
33.9977,523.07,449.1
34.0177,519.86,458.88
34.0378,517.09,468.9
34.058,514.47,477.12
34.0787,511.17,485.9
34.0988,508.94,493.32
34.1189,508.35,499.05
34.1389,507.88,505.64
34.1588,506.51,511.91
34.1789,505.8,516.13
34.1997,505.44,520.31
34.2198,504.55,523.84
34.2397,503.24,527.68
34.2598,502.79,531.14
34.2807,503.44,533.31
34.3007,502.35,535.85
34.3208,502.88,537.08
34.341,502.9,537.26
34.3608,502.32,543.61
34.3808,492.66,570.69
34.4009,476.33,614.35
34.4207,458.06,662.48
34.4408,445.85,694.38
34.4607,443.68,710.51
34.4807,444.34,712.01
34.5008,447.87,702.4
34.5209,452.1,688.12
34.5408,457.08,671.9
34.5607,461.26,654.32
34.5807,465.81,638.26
34.6008,469.65,624
34.6208,473.92,612.2
34.6408,478.14,603.16
34.6608,481.91,597.53
34.6811,481.73,594.22
34.7007,483.38,589.58
34.7207,483.71,585.26
34.7409,485.76,580.41
34.7609,487.61,576.13
34.7807,488.89,572.5
34.8009,490.51,569.4
34.8207,490.61,567.72
34.841,491.09,565.78
34.861,493.07,562.42
34.8807,495.06,559.14
34.9008,497.04,556.51
34.9209,498.24,555.41
34.9407,499.79,553.73
34.9608,501.23,552.78
34.9811,500.78,553.02
35.0008,499.63,553.22
35.0207,500.9,552.78
35.0407,500.92,552.42
35.0608,501.74,552.74
35.0808,500.99,552.79
35.1007,501.19,552.83
35.1208,500.55,553.27
35.141,500.84,552.61
35.1613,501.67,553.49
35.1809,500.74,554.39
35.2008,500.39,555.91
35.2212,499.71,557.13
35.2409,500.17,557.5
35.261,500.74,555.6
35.2807,500.59,554.48
35.301,501.47,551.39
35.3212,502.58,550.31
35.3407,503.26,548.45
35.3607,501.61,548.76
35.3807,501.29,549.61
35.4008,500.63,549.09
35.4209,500.9,548.47
35.441,501.92,546.77
35.4609,501.54,548.42
35.4817,501.83,547.34
35.5018,502.46,547.07
35.5229,502.37,549.25
35.544,501.9,549.6
35.5638,501.12,549.88
35.5837,500.89,548.31
35.6038,501.72,547.25
35.6242,501.17,547.8
35.6438,501.14,548.44
35.6638,500.31,548.35
35.6837,501.05,547.28
35.7039,500.64,547.42
35.7237,501.31,546.34
35.7437,501.25,546.47
35.7638,502.2,544.78
35.7838,501.36,544.82
35.8048,500.09,546.06
35.8257,500.07,547.45
35.8458,500.66,546.56
35.8659,499.92,547.25
35.887,500.14,546.8
35.9067,499.91,548.44
35.9268,503.53,549.75
35.9467,518.22,542.6
35.9668,541.78,524.88
35.9868,565.02,499.3
36.0068,583.02,473.84
36.0267,595.21,450.07
36.0468,599.57,429.66
36.0669,597.66,415.33
36.0868,592.93,409.46
36.1068,583.94,407.17
36.1269,573.55,410.14
36.1477,562.64,417.51
36.1677,553.91,425.81
36.1879,545.93,435.85
36.2078,538.34,448.08
36.2278,530.08,459.86
36.2478,524.26,470.69
36.2688,518.41,482.55
36.2898,514.13,493.04
36.3107,510.3,502.63
36.3307,508.64,511.11
36.3507,505.91,518.68
36.3709,504.33,525.15
36.3918,503.06,531.12
36.4118,501.45,536.49
36.4317,495.96,549
36.4517,483.37,585.2
36.4718,461.3,640.56
36.4918,441.24,697.05
36.5117,430.79,737.24
36.532,426.83,747.99
36.5517,427.46,739.99
36.5719,430.57,726.19
36.5917,435.26,707.55
36.6119,439.81,689.64
36.6317,444.44,672.71
36.6517,450.36,658.37
36.6718,455.68,644.1
36.6917,460.35,633.88
36.712,460.88,621.7
36.732,462.9,609.96
36.7518,465.12,599.97
36.7718,467.7,592.38
36.7917,470.96,585.3
36.812,473.17,580.64
36.8317,475.73,576.11
36.8517,477.99,572.69
36.8717,480.59,571.55
36.8917,481.87,569.64
36.9118,484.1,568.31
36.9318,485.48,566.45
36.9517,487.98,565.96
36.9717,489.79,565.97
36.9918,491.63,565.57
37.0119,492.9,566.46
37.0317,493.12,565.57
37.0518,492.7,567.25
37.0718,492.16,567.8
37.0919,492.53,566.84
37.1117,492.42,565.27
37.1318,492.14,565.82
37.1517,493.31,565.86
37.1718,494.05,564.88
37.1917,495.04,563.31
37.212,494.23,564.25
37.2318,494.18,563.8
37.2518,494.95,563.24
37.2717,495.36,563.39
37.2918,495.89,563.71
37.3118,496.71,562.57
37.3317,497.17,562.46
37.3518,497.13,561.36
37.3718,496.71,561.29
37.3918,496.17,561.43
37.4119,495.93,562.15
37.4318,494.95,561.52
37.4518,495.56,561.01
37.4728,496.05,561.01
37.4928,495.64,561.81
37.5127,496.51,562.25
37.5328,497.61,562.2
37.5527,498.29,561.36
37.5728,498.43,561.29
37.5927,498.54,561.43
37.6128,498.63,562.34
37.6329,499.31,561.07
37.6527,499.45,560.46
37.6729,497.76,560.17
37.6929,496.41,561.13
37.7127,497.12,560.71
37.7329,498.1,559.17
37.7538,497.88,559.93
37.7737,498.5,561.35
37.7938,498.8,560.68
37.8139,498.64,561.14
37.8338,498.31,560.71
37.8538,498.85,560.37
37.8737,498.48,559.9
37.8938,498.38,560.72
37.9137,497.91,561.37
37.9337,497.93,560.7
37.9538,497.74,561.56
37.9737,498.19,560.65
37.9938,497.15,561.12
38.0137,497.32,560.49
38.0337,496.46,560.6
38.0538,496.77,560.28
38.0737,497.21,560.62
38.0937,496.77,560.3
38.1138,496.82,560.84
38.1338,497.05,560.07
38.154,496.64,561.06
38.1739,496.71,562.04
38.1939,496.17,562.04
38.2138,496.54,562.83
38.2337,496.63,562.86
38.2538,496.9,562.09
38.274,497.92,561.47
38.2937,498.74,560.78
38.3138,498.99,561.82
38.3337,498.79,561.26
38.3537,498.63,560.41
38.3739,498.51,560.72
38.3941,500.61,559.78
38.4144,500.88,560.22
38.4338,500.31,559.58
38.4539,499.65,560.06
38.4737,498.52,559.25
38.4937,497.61,560.6
38.5137,497.49,561.28
38.5339,497.79,560.02
38.5538,497.83,560.22
38.5739,498.67,559.78
38.5938,498.73,560.02
38.6137,498.99,559.42
38.6339,497.99,559.93
38.6537,498.79,560.55
38.6739,498.63,559.84
38.6938,497.91,560.07
38.7138,497.33,560.66
38.7337,497.66,560.12
38.7537,497.53,560.9
38.7737,498.62,559.72
38.7937,499.1,560.18
38.8138,499.48,561.34
38.8337,499.78,562.07
38.8537,500.23,561.46
38.8737,499.78,560.97
38.8938,498.82,560.17
38.9138,499.26,558.94
38.9337,498.41,559.35
38.9537,498.33,559.08
38.9738,499.26,558.06
38.9937,499.61,557.45
39.0138,499.09,557.56
39.0338,499.47,557.85
39.0537,499.58,556.88
39.0738,499.26,556.3
39.0938,498.81,556.64
39.1137,497.85,556.11
39.1338,497.88,554.89
39.1539,497.3,554.11
39.1737,496.64,553.29
39.1937,496.91,553.63
39.2137,498.13,552.91
39.2337,499.1,552.92
39.2538,499.08,553.14
39.2747,499.47,553.51
39.2957,499.17,555.81
39.3167,498.74,557.65
39.3368,498.99,557.92
39.3568,498.59,559.13
39.3767,498.27,559.91
39.3967,497.62,561.33
39.4167,497.5,561.86
39.4368,496.6,562.29
39.4567,497.48,562.43
39.4769,497.98,561.74
39.4978,498.19,562
39.5188,497.95,562
39.5397,498.56,563.6
39.5598,498.25,568.68
39.5797,498.2,570.34
39.6007,498.16,570.47
39.6207,498.53,569.58
39.641,499.02,568.86
39.6607,498.82,568.69
39.6809,498.25,568.15
39.7007,497.4,569.32
39.7207,497.32,569.26
39.7408,498.46,568.81
39.7607,498.37,568.84
39.7808,498.89,568.48
39.8007,498.91,568.98
39.8207,498.93,567.78
39.8407,498.75,567.63
39.8608,498,567.3
39.8807,498.4,566.84
39.9007,497.72,565.87
39.9208,498.17,564.5
39.9417,497.94,564.8
39.9628,498.75,564.64
39.9828,497.8,564.71
40.0027,498.64,564.97
40.0227,498.51,563.78
40.0427,499.41,562.02
40.0627,498.33,561.22
40.0828,497.66,561.37
