Program Time [s],data 0,data 1
5.22981,545.90,600.93
5.25121,547.60,601.89
5.26978,544.08,602.98
5.28987,546.12,601.73
5.31004,549.18,602.89
5.33090,548.03,604.63
5.35181,546.81,605.16
5.37038,546.93,606.63
5.39129,544.76,605.76
5.41171,545.45,603.72
5.43001,543.37,604.14
5.45075,543.15,607.79
5.47122,541.60,607.74
5.49269,545.22,607.82
5.51171,543.26,608.18
5.53276,539.46,608.02
5.55225,537.92,606.07
5.57149,539.59,605.97
5.59270,535.58,604.12
5.61192,536.94,605.02
5.63262,535.72,601.58
5.65325,536.75,602.27
5.67247,537.65,600.65
5.69279,536.93,600.89
5.71193,536.59,600.17
5.73287,534.26,599.37
5.75342,534.45,596.68
5.77314,536.69,596.36
5.79269,535.39,600.53
5.81374,534.84,598.69
5.83200,537.76,597.13
5.85201,537.74,594.52
5.87345,536.45,593.00
5.89290,536.31,593.23
5.91362,539.41,592.38
5.93341,537.72,592.71
5.95386,537.59,595.25
5.97213,534.31,590.17
5.99232,535.96,591.08
6.01269,532.97,592.83
6.03375,534.37,591.80
6.05353,534.86,588.25
6.07382,535.21,595.32
6.09233,532.79,618.24
6.11304,535.72,643.59
6.13263,537.04,674.77
6.15240,536.85,697.32
6.17236,538.65,707.94
6.19258,537.35,718.60
6.21365,537.63,717.72
6.23242,538.21,712.46
6.25307,537.70,697.58
6.27384,537.24,689.38
6.29276,539.72,684.16
6.31250,537.90,673.39
6.33240,538.41,668.06
6.35307,536.79,658.71
6.37359,538.55,651.16
6.39323,540.04,647.15
6.41325,539.25,640.83
6.43201,540.07,635.22
6.45202,537.00,631.08
6.47275,537.39,628.70
6.49199,539.60,625.70
6.51284,538.73,623.09
6.53248,538.09,618.11
6.55243,540.00,620.34
6.57252,540.00,618.17
6.59258,539.72,613.27
6.61216,537.14,612.77
6.63193,541.25,613.62
6.65249,538.07,610.00
6.67315,541.28,609.75
6.69338,539.57,609.34
6.71338,540.10,611.83
6.73343,540.83,609.95
6.75233,538.84,610.02
6.77308,538.95,615.19
6.79321,541.54,613.42
6.81267,541.98,603.73
6.83322,538.22,608.16
6.85256,537.94,610.66
6.87316,538.30,607.00
6.89281,538.34,605.56
6.91283,537.24,603.69
6.93247,537.01,608.10
6.95339,537.04,607.92
6.97310,538.99,609.44
6.99282,539.42,604.17
7.01365,537.16,607.29
7.03257,538.36,602.81
7.05327,539.04,605.09
7.07305,536.38,605.57
7.09185,537.77,606.15
7.11319,539.62,597.12
7.13205,537.99,584.70
7.15222,534.92,571.02
7.17273,537.68,548.18
7.19266,534.59,522.77
7.21280,535.12,501.38
7.23277,537.93,489.84
7.25194,535.05,487.21
7.27324,537.38,487.31
7.29316,535.88,491.18
7.31258,538.72,492.62
7.33279,534.63,499.55
7.35266,532.96,509.73
7.37246,537.13,515.77
7.39296,535.09,523.21
7.41231,535.46,532.01
7.43203,535.60,540.21
7.45345,535.92,544.98
7.47278,538.71,552.40
7.49494,540.19,553.44
7.51527,542.19,560.43
7.53606,543.40,565.97
7.55724,546.97,574.74
7.57844,548.48,578.09
7.59794,552.07,583.27
7.62063,553.55,584.96
7.63895,556.42,586.25
7.66045,554.64,587.68
7.68037,557.67,589.03
7.70035,557.28,594.25
7.71925,556.64,592.42
7.74070,559.09,593.24
7.76006,557.77,594.23
7.77933,558.29,592.19
7.79925,560.72,592.45
7.81996,557.00,593.63
7.84047,559.32,595.19
7.85939,559.60,593.04
7.88097,556.09,597.87
7.89992,557.90,597.68
7.91949,560.91,599.24
7.94063,562.61,601.18
7.95998,559.43,600.98
7.98015,562.11,604.28
8.00052,563.73,604.11
8.02015,561.28,607.66
8.04179,561.58,605.56
8.06176,561.68,610.11
8.08038,560.40,608.74
8.10071,560.80,609.70
8.12114,561.85,605.82
8.14153,562.33,610.66
8.16148,563.15,608.48
8.18182,563.36,608.05
8.20217,561.88,610.07
8.22176,561.61,612.73
8.24287,563.58,611.08
8.26116,562.44,607.49
8.28115,561.76,608.71
8.30147,558.56,606.27
8.32259,564.54,607.91
8.34197,562.97,608.82
8.36193,562.89,606.78
8.38090,561.52,609.38
8.40131,563.52,607.47
8.42104,563.58,604.54
8.44303,563.59,605.03
8.46248,562.68,607.84
8.48231,562.59,606.95
8.50324,561.07,605.58
8.52204,560.13,609.00
8.54357,559.29,606.46
8.56361,557.21,605.65
8.58314,557.15,604.66
8.60440,560.11,604.70
8.62343,561.09,608.77
8.64354,561.07,607.27
8.66694,557.98,606.95
8.68307,557.32,607.32
8.70342,560.41,605.02
8.72370,559.79,606.39
8.74405,558.01,603.92
8.76451,556.59,605.68
8.78304,557.87,602.22
8.80392,559.34,604.45
8.82403,559.25,604.72
8.84443,555.62,603.91
8.86372,554.51,604.85
8.88378,555.92,603.85
8.90474,556.89,603.35
8.92332,553.24,603.12
8.94318,556.42,601.42
8.96308,555.59,603.50
8.98322,557.00,602.19
9.00312,554.20,602.17
9.02319,554.50,605.75
9.04376,554.17,604.99
9.06351,556.73,600.44
9.08372,558.06,602.40
9.10395,555.21,602.12
9.12392,554.86,602.25
9.14367,554.88,600.73
9.16311,555.34,598.50
9.18372,554.76,599.67
9.20393,555.42,601.58
9.22341,551.79,600.06
9.24340,554.61,599.69
9.26428,553.72,599.86
9.28319,554.58,600.89
9.30411,552.92,601.66
9.32481,552.72,602.32
9.34352,554.42,603.51
9.36508,552.77,603.95
9.38571,550.04,603.31
9.40462,554.50,604.19
9.42541,551.05,602.11
9.44561,552.72,600.42
9.46472,551.65,603.54
9.48470,551.89,602.64
9.50544,551.21,602.37
9.52477,551.54,602.20
9.54506,551.24,602.53
9.56388,549.72,602.93
9.58385,551.80,603.00
9.60528,552.79,600.10
9.62466,553.71,604.08
9.64571,553.07,606.60
9.66447,550.70,604.41
9.68458,551.28,606.76
9.70411,551.40,604.08
9.72409,551.04,604.83
9.74508,554.39,602.64
9.76385,553.37,603.50
9.78418,552.91,604.40
9.80416,554.12,607.05
9.82539,550.12,603.24
9.84501,550.82,603.49
9.86533,551.67,605.72
9.88383,548.41,605.99
9.90399,548.63,603.17
9.92410,548.71,603.70
9.94509,547.69,602.63
9.96454,548.69,602.04
9.98511,545.16,604.19
10.00531,544.38,603.47
10.02400,548.15,598.60
10.04503,547.86,599.14
10.06456,548.81,601.19
10.08549,548.16,609.33
10.10461,547.96,627.71
10.12362,547.19,652.82
10.14548,548.95,685.41
10.16461,548.34,712.52
10.18519,546.72,734.21
10.20481,549.43,748.51
10.22400,547.20,755.73
10.24501,549.20,751.85
10.26545,548.25,743.98
10.28453,550.38,732.06
10.30481,549.21,718.50
10.32475,547.69,702.83
10.34467,549.75,688.32
10.36374,545.64,676.21
10.38512,546.77,667.71
10.40409,548.18,652.72
10.42523,550.54,645.45
10.44621,547.52,641.01
10.46631,548.16,633.00
10.48584,550.96,629.26
10.50750,547.50,623.38
10.52751,549.90,618.30
10.54645,549.04,616.65
10.56662,549.73,616.32
10.58631,543.09,614.48
10.60663,541.34,606.74
10.62570,542.26,609.67
10.64754,539.46,605.02
10.66617,538.06,605.44
10.68711,538.22,602.83
10.70570,539.59,605.93
10.72738,538.19,606.60
10.74788,539.65,606.97
10.76821,539.63,604.14
10.78879,539.96,605.03
10.80794,539.20,604.95
10.82704,540.11,605.27
10.84814,540.32,604.95
10.86708,537.48,605.42
10.88718,536.03,606.02
10.90775,535.85,599.27
10.92773,538.48,602.92
10.94803,538.29,600.56
10.96717,539.73,599.74
10.98716,538.55,598.11
11.00802,539.38,602.66
11.02715,539.04,600.95
11.04822,541.65,598.41
11.06696,540.34,595.22
11.08843,543.21,587.58
11.10942,540.75,564.69
11.12882,540.61,536.95
11.14880,539.34,507.02
11.16916,537.33,486.95
11.18974,534.13,476.25
11.20930,533.16,470.46
11.22961,533.85,473.86
11.24866,535.11,476.14
11.26793,532.62,484.99
11.28871,531.93,491.77
11.30977,533.66,502.00
11.32899,532.30,513.28
11.34965,533.14,516.38
11.36888,533.69,523.88
11.38951,535.38,531.19
11.40843,535.41,538.10
11.42929,537.70,545.26
11.44794,535.25,550.09
11.46907,537.64,553.34
11.48900,538.42,557.59
11.50830,537.12,561.86
11.52816,538.03,569.38
11.54923,537.13,570.05
11.56879,540.64,573.59
11.58878,539.88,574.60
11.60961,539.35,580.50
11.62933,538.12,581.40
11.64784,536.41,585.05
11.66964,538.03,585.69
11.68819,541.49,589.18
11.70953,541.68,592.26
11.72789,540.41,591.51
11.74918,537.77,593.14
11.76816,540.27,594.69
11.78876,541.30,595.85
11.80902,538.12,594.78
11.82923,541.06,594.91
11.84946,537.95,595.67
11.86882,538.42,597.43
11.88954,539.78,594.48
11.90928,538.63,596.48
11.92825,541.01,592.62
11.94896,538.08,592.60
11.96786,540.20,592.45
11.98787,541.14,595.92
12.00814,540.37,595.08
12.02875,540.22,595.78
12.04971,537.52,595.63
12.06905,538.23,595.08
12.08821,541.93,597.09
12.10972,543.03,597.15
12.12923,539.32,598.49
12.14905,541.06,599.03
12.16915,543.23,600.50
12.18936,542.25,601.45
12.20906,539.83,598.74
12.22924,540.73,597.89
12.24892,540.43,594.72
12.26807,540.45,597.22
12.28920,542.89,597.12
12.30787,541.23,594.44
12.32965,542.01,595.44
12.34890,542.56,594.23
12.36819,543.41,597.75
12.38943,543.51,592.59
12.40852,541.07,595.68
12.42857,539.63,597.52
12.44869,539.73,598.53
12.46778,539.82,596.65
12.48815,538.99,596.63
12.50820,541.85,597.84
12.52893,540.95,600.89
12.54808,541.00,595.56
12.56828,540.38,595.63
12.58933,542.45,598.60
12.60956,541.34,599.03
12.62839,539.46,597.99
12.64844,540.76,596.86
12.66873,539.98,596.28
12.68900,541.53,595.21
12.70906,541.27,594.08
12.72923,539.33,596.44
12.74826,541.55,596.78
12.76808,541.97,596.19
12.78845,543.29,595.45
12.80854,539.77,598.14
12.82923,540.59,597.36
12.84863,541.40,599.38
12.86823,539.71,600.30
12.88954,541.75,597.71
12.90902,541.13,598.50
12.92815,541.81,595.29
12.94917,541.51,597.35
12.96917,541.76,598.95
12.98789,540.83,595.98
13.00900,543.62,599.48
13.02834,543.00,595.93
13.04797,544.35,596.01
13.06873,544.74,598.36
13.08970,545.63,597.75
13.10815,543.71,596.01
13.12872,546.59,600.68
13.14793,544.89,599.82
13.16828,543.17,599.33
13.18833,546.45,600.73
13.20969,545.29,600.04
13.22960,542.46,600.88
13.24924,543.51,598.28
13.26936,540.65,595.72
13.28866,541.23,596.01
13.30852,542.13,596.09
13.32897,540.67,596.79
13.34918,543.70,593.59
13.36921,541.91,594.87
13.38789,542.45,594.88
13.40870,544.06,597.23
13.42942,544.26,597.12
13.44966,545.43,595.80
13.46894,542.47,597.80
13.48976,544.36,597.69
13.50948,542.31,596.98
13.52876,541.26,598.34
13.54851,544.13,599.26
13.56835,542.97,600.70
13.58908,543.88,597.13
13.60972,542.25,600.89
13.62864,542.60,600.11
13.64781,543.20,597.68
13.66825,545.35,598.26
13.68881,545.12,596.96
13.70942,541.64,600.46
13.72849,541.59,599.14
13.74772,542.49,598.17
13.76800,544.13,597.45
13.78868,544.75,595.99
13.80795,544.32,597.85
13.82792,543.62,597.16
13.84795,544.03,594.81
13.86826,544.73,594.02
13.88842,546.85,594.37
13.90871,544.44,594.59
13.92946,546.32,596.18
13.94941,548.83,597.21
13.96874,546.43,597.07
13.98808,547.18,596.29
14.00813,549.31,595.96
14.02942,547.10,595.37
14.04922,546.30,595.45
14.06796,547.39,598.67
14.08926,545.90,597.83
14.10902,546.91,600.69
14.12859,543.81,600.51
14.14914,543.67,599.80
14.16959,542.01,600.62
14.18893,543.36,602.85
14.20890,546.30,603.53
14.22940,546.19,612.40
14.24801,547.23,632.28
14.26817,549.86,657.01
14.28905,551.87,677.23
14.30948,550.86,688.17
14.32794,551.88,694.73
14.34907,551.41,690.87
14.36873,550.06,687.65
14.38949,547.00,674.21
14.40789,546.56,660.53
14.42945,545.72,651.86
14.44951,547.80,650.17
14.46800,546.78,657.32
14.48970,548.48,666.77
14.50844,553.73,673.71
14.52863,553.21,686.03
14.54872,554.99,691.54
14.56842,556.38,690.10
14.58902,553.10,683.57
14.60912,555.94,674.96
14.62953,555.15,668.89
14.64843,555.62,660.78
14.66916,554.00,651.08
14.68831,554.30,643.07
14.70964,554.42,639.21
14.72845,552.46,634.83
14.74945,550.69,628.78
14.76865,553.00,626.55
14.78893,551.21,625.97
14.80809,550.48,620.05
14.82898,551.11,616.73
14.84793,550.88,614.21
14.86834,548.87,612.72
14.88842,548.18,613.52
14.90808,550.74,613.44
14.92818,551.54,611.44
14.94875,551.28,607.96
14.96920,552.31,609.98
14.98967,552.60,607.19
15.00941,551.81,601.55
15.02774,551.69,604.26
15.04885,551.18,601.28
15.06944,551.04,602.86
15.08782,553.89,603.53
15.10842,549.52,599.02
15.12890,550.38,599.95
15.14773,550.64,602.29
15.16808,553.29,601.58
15.18791,553.61,604.80
15.20773,549.88,603.52
15.22799,550.66,590.79
15.24888,546.74,568.60
15.26922,543.52,536.25
15.28877,539.85,505.23
15.30844,541.04,479.71
15.32850,538.04,463.44
15.34843,539.37,457.66
15.36776,541.65,458.17
15.38825,542.49,460.95
15.40876,542.42,468.79
15.42968,545.81,478.17
15.44921,545.27,487.83
15.46938,544.39,498.57
15.48826,545.99,505.40
15.50843,546.37,516.38
15.52806,548.67,526.10
15.54910,547.17,534.70
15.56916,549.32,542.08
15.58917,551.48,549.97
15.60888,551.98,557.14
15.62820,552.08,565.04
15.64958,554.46,571.24
15.66806,554.08,573.65
15.68886,554.31,577.99
15.70803,552.23,584.88
15.72964,552.49,588.70
15.74966,553.76,588.62
15.76932,553.46,589.98
15.78846,552.62,593.95
15.80799,553.77,592.10
15.82877,555.02,593.45
15.84913,554.37,596.47
15.86865,553.28,597.43
15.88910,553.09,598.89
15.90826,552.88,597.24
15.92828,551.95,596.46
15.94841,554.76,601.06
15.96937,557.35,600.09
15.98802,556.64,599.72
16.00933,557.03,601.10
16.02962,552.74,601.49
16.04915,555.19,599.03
16.06944,557.21,601.63
16.08944,555.37,599.38
16.10918,554.54,602.42
16.12893,553.18,599.31
16.14788,556.63,598.52
16.16856,556.19,598.07
16.18803,553.17,598.88
16.20861,556.23,598.32
16.22953,554.33,599.36
16.24877,555.47,598.53
16.26853,556.46,597.33
16.28830,556.89,597.19
16.30824,557.91,596.17
16.32901,559.13,597.58
16.34876,557.80,597.61
16.36818,558.92,600.78
16.38787,557.81,599.83
16.40819,556.46,597.59
16.42939,555.26,598.44
16.44937,559.02,597.45
16.46870,558.33,597.45
16.48969,558.67,600.41
16.50830,558.72,599.68
16.52798,555.14,599.54
16.54798,555.68,597.81
16.56780,556.25,599.01
16.58850,554.77,599.99
16.60955,556.10,602.42
16.62905,553.34,601.36
16.64800,553.91,597.68
16.66822,554.25,597.95
16.68847,554.84,597.63
16.70935,554.23,597.56
16.72902,557.09,598.61
16.74803,556.81,601.58
16.76969,554.48,600.15
16.78791,555.35,603.03
16.80850,557.52,601.22
16.82843,558.58,603.78
16.84795,559.75,601.80
16.86974,558.03,603.88
16.88772,558.94,602.94
16.90884,560.14,603.61
16.92932,557.98,603.49
16.94804,561.23,603.24
16.96874,560.28,604.03
16.98798,560.95,604.05
17.00755,560.53,600.23
17.02833,562.17,600.72
17.04942,560.74,601.14
17.06919,562.59,600.89
17.08773,561.59,604.45
17.10750,560.09,601.67
17.12956,561.62,604.00
17.14933,557.57,601.55
17.16935,561.68,601.99
17.18816,561.07,602.71
17.20829,560.22,601.44
17.22884,558.86,600.65
17.24966,558.93,598.39
17.26805,561.47,595.92
17.28862,559.76,597.53
17.30818,559.50,593.50
17.32964,559.27,595.54
17.34816,560.14,594.36
17.36970,560.68,595.33
17.38958,560.21,595.05
17.40887,560.46,595.07
17.42899,559.69,597.75
17.44777,562.04,595.92
17.46781,563.99,598.90
17.48786,560.47,598.25
17.50817,560.67,597.60
17.52948,562.23,598.06
17.54872,561.95,599.88
17.56926,561.78,597.29
17.58791,564.18,598.86
17.60959,561.87,599.97
17.62954,562.82,600.54
17.64919,560.72,601.59
17.66920,559.78,602.49
17.68924,564.73,599.10
17.70801,563.89,600.80
17.72912,561.42,599.53
17.74967,564.39,600.16
17.76942,562.79,600.94
17.78908,561.10,600.43
17.80775,565.70,600.54
17.82907,563.85,599.94
17.84936,564.03,597.57
17.86899,564.57,598.34
17.88935,562.62,601.18
17.90844,560.43,602.65
17.92815,560.35,603.64
17.94884,561.06,604.70
17.96923,561.26,604.39
17.98775,559.77,604.92
18.00806,562.90,605.59
18.02788,566.33,600.37
18.04833,564.45,602.57
18.06831,561.17,600.36
18.08922,562.68,600.12
18.10952,564.67,601.95
18.12768,564.41,602.27
18.14910,564.01,599.21
18.16865,562.70,599.39
18.18930,562.23,612.47
18.20914,561.34,631.79
18.22799,558.76,650.89
18.24956,559.62,670.92
18.26886,558.94,685.40
18.28926,560.68,702.09
18.30963,559.35,706.08
18.32869,561.35,709.81
18.34899,565.18,705.96
18.36953,563.90,703.19
18.38920,562.75,694.76
18.40876,565.82,681.58
18.42931,562.79,671.76
18.44773,564.20,663.02
18.46894,560.47,653.25
18.53247,558.83,645.25
18.53161,559.20,638.60
18.53276,560.17,635.93
18.54877,559.00,630.12
18.56935,559.15,626.58
18.58858,559.93,623.98
18.60811,560.01,623.20
18.62784,558.83,620.42
18.64806,559.78,615.86
18.66879,564.02,616.10
18.68838,562.66,615.27
18.70870,563.70,609.91
18.72788,565.12,610.20
18.74847,564.75,609.69
18.76839,562.24,607.70
18.78786,561.51,609.13
18.80976,562.44,607.67
18.82778,559.82,608.80
18.84864,559.24,609.75
18.86879,559.85,607.64
18.88874,559.46,608.17
18.90826,558.26,609.36
18.92770,561.94,606.56
18.94878,559.59,608.04
18.96771,558.91,605.29
18.98771,558.62,606.12
19.00936,561.42,606.94
19.02786,561.29,605.63
19.04865,560.60,606.44
19.06900,562.90,603.67
19.08786,561.61,603.87
19.10855,560.79,605.92
19.12851,561.68,605.63
19.14895,562.19,607.76
19.16946,559.96,606.16
19.18779,560.10,603.22
19.20783,559.00,602.10
19.22906,559.51,601.25
19.24805,558.57,604.07
19.26785,560.06,600.29
19.28917,559.69,603.72
19.30888,558.62,602.06
19.32784,561.36,600.89
19.34907,557.65,602.09
19.37042,558.85,601.92
19.38864,559.66,603.11
19.40902,557.87,605.84
19.42958,558.61,605.08
19.44941,557.51,606.70
19.46848,560.52,605.25
19.49011,558.90,604.94
19.51089,560.48,611.37
19.53065,557.82,604.01
19.54966,558.20,581.86
19.56993,553.20,548.30
19.59095,554.74,524.36
19.61149,552.73,505.45
19.63101,552.82,496.55
19.65071,553.19,495.35
19.67120,552.16,500.07
19.69080,551.27,504.00
19.70992,554.10,508.87
19.73084,552.31,517.54
19.75025,551.80,523.46
19.77073,553.32,536.12
19.79046,555.35,542.66
19.81011,556.39,549.41
19.83030,556.82,554.16
19.85156,554.66,560.14
19.87045,553.34,566.38
19.89003,554.07,573.37
19.90960,556.94,578.87
19.92998,557.08,583.64
19.95082,558.19,587.99
19.96962,559.01,587.85
19.99026,556.09,589.97
20.01130,558.82,592.27
20.03046,558.39,595.14
20.05135,558.79,599.00
20.07145,558.17,597.16
20.08987,559.54,596.21
20.11141,557.48,597.71
20.13027,557.49,597.66
20.15040,558.27,601.74
20.17084,559.29,600.16
20.18974,557.12,600.62
20.21027,559.28,602.29
20.22968,560.76,602.29
20.25144,559.72,603.27
20.26963,558.21,602.72
20.29110,557.71,603.31
20.31063,557.67,600.79
20.33131,556.41,601.97
20.35019,558.86,602.64
20.36979,559.39,602.07
20.39104,559.52,601.12
20.41110,556.79,603.23
20.43022,557.21,600.89
20.45003,557.18,602.99
20.47154,560.06,603.14
20.49001,560.55,605.10
20.51061,558.59,603.28
20.53154,556.46,604.35
20.55038,557.24,602.42
20.57126,556.23,606.15
20.59035,556.18,604.81
20.61005,555.58,606.02
20.63150,554.34,601.63
20.65036,550.66,601.70
20.67083,552.41,602.83
20.69085,550.11,603.49
20.71139,550.93,603.79
20.72978,550.13,601.30
20.75058,554.08,601.62
20.77166,553.69,604.85
20.79156,553.67,603.15
20.81057,552.74,602.47
20.83148,553.30,602.08
20.85005,553.23,600.37
20.87096,552.28,602.77
20.88996,554.96,603.61
20.90984,555.66,602.57
20.93091,554.00,604.97
20.95003,554.52,604.29
20.97009,555.61,604.51
20.99025,555.19,604.26
21.01131,552.71,603.24
21.03145,552.83,605.38
21.05044,554.35,603.05
21.07095,556.36,604.14
21.09004,552.83,604.06
21.11009,555.57,598.70
21.13110,556.66,599.23
21.14958,554.45,598.78
21.17159,554.75,601.21
21.19035,554.21,602.34
21.21078,552.05,599.67
21.23092,549.92,598.16
21.25137,551.70,602.03
21.27067,550.25,601.55
21.29023,553.23,601.19
21.31151,552.96,601.92
21.33037,553.25,602.59
21.35035,554.05,602.48
21.37008,552.64,602.08
21.38998,551.85,601.32
21.41105,552.01,601.28
21.43088,551.67,603.28
21.45034,552.08,601.53
21.46986,553.18,601.96
21.48953,553.62,602.12
21.50997,552.07,602.95
21.53046,548.68,600.21
21.55065,549.61,601.55
21.57002,551.71,603.58
21.59033,548.86,604.64
21.61109,550.18,603.57
21.62963,552.22,604.57
21.64942,553.68,603.21
21.67036,553.45,606.98
21.68935,550.15,604.09
21.70994,552.16,605.56
21.73018,552.06,601.79
21.74967,552.42,604.99
21.77073,554.64,603.49
21.79109,555.33,604.51
21.80966,554.44,605.68
21.83064,551.23,602.26
21.84975,549.84,603.60
21.87066,549.77,600.38
21.89085,552.81,600.06
21.91139,551.44,600.03
21.92957,550.65,603.04
21.95086,550.98,600.03
21.97016,551.50,599.95
21.99003,549.29,602.33
22.01083,550.19,604.16
22.03149,549.14,601.25
22.05048,549.72,604.83
22.07126,547.38,601.53
22.08980,549.55,601.97
22.11023,546.63,602.32
22.13049,548.10,601.13
22.15044,545.40,600.14
22.16982,546.06,603.76
22.19109,547.04,600.87
22.21094,547.08,602.95
22.23107,550.48,603.72
22.24990,550.02,604.63
22.26942,549.33,605.28
22.29029,548.88,600.94
22.30967,546.55,601.50
22.33057,547.68,601.55
22.35077,547.16,599.41
22.37066,549.46,610.05
22.39056,549.98,631.57
22.41010,548.03,654.09
22.43032,547.38,677.12
22.45044,544.06,692.07
22.47076,546.94,703.98
22.48937,544.59,707.75
22.51000,542.44,704.43
22.53148,545.43,699.07
22.55041,544.84,689.91
22.57070,542.19,681.22
22.59056,542.87,674.29
22.61149,546.28,665.49
22.62980,550.82,653.69
22.65074,549.43,648.67
22.66998,549.77,644.30
22.69090,551.20,638.21
22.71143,550.70,634.38
22.73012,549.25,630.01
22.74969,549.82,625.38
22.77144,548.12,625.57
22.79093,545.11,620.25
22.81068,546.78,618.88
22.82959,544.02,616.93
22.85009,542.52,619.17
22.86952,541.11,618.44
22.89018,541.63,616.03
22.90976,540.50,611.77
22.92997,541.63,610.42
22.94932,543.47,612.17
22.97007,542.86,612.92
22.99107,545.99,611.41
23.01080,546.64,610.15
23.03071,544.81,609.01
23.05098,546.97,605.58
23.07073,546.39,605.25
23.09000,546.05,608.38
23.11079,546.11,608.04
23.13021,545.18,609.76
23.14972,544.13,610.40
23.17018,541.62,608.26
23.18976,543.27,611.23
23.21065,542.08,609.50
23.23031,541.55,611.74
23.24970,540.80,611.34
23.27082,544.12,610.28
23.29122,544.68,609.81
23.31101,545.55,606.71
23.32933,543.32,605.59
23.34957,542.57,608.08
23.37035,542.98,604.00
23.38987,545.22,607.87
23.41015,546.27,609.29
23.42970,546.17,607.72
23.45069,545.77,607.69
23.47008,542.91,606.93
23.49042,545.72,606.16
23.51016,542.97,604.44
23.52984,546.90,603.78
23.54959,542.67,603.83
23.56949,545.31,608.42
23.59105,543.38,609.99
23.61033,539.74,604.25
23.63066,540.93,587.90
23.65057,539.96,561.10
23.67136,539.72,533.16
23.68978,536.70,511.34
23.71105,538.18,496.00
23.73102,535.48,487.56
23.74965,535.55,483.75
23.76987,537.31,486.62
23.79019,535.39,494.64
23.81093,538.06,501.46
23.82996,534.89,508.75
23.84975,539.06,516.90
23.87054,538.90,523.66
23.89112,537.92,532.60
23.91009,538.04,542.82
23.92964,539.53,546.34
23.94956,539.23,555.13
23.96944,540.23,561.98
24.08003,537.95,567.99
24.08096,540.19,575.68
24.08014,540.95,577.48
24.07985,540.83,580.51
24.07960,542.50,586.67
24.10135,544.97,587.38
24.12029,547.52,590.38
24.14112,548.36,592.78
24.16126,553.67,591.76
24.17997,555.91,592.07
24.19952,558.33,593.93
24.22060,559.13,596.68
24.24052,559.92,600.32
24.26022,556.87,599.85
24.27982,560.03,600.00
24.30053,557.54,599.13
24.31974,558.62,599.85
24.33960,558.22,600.00
24.36069,559.60,599.02
24.38051,560.23,598.47
24.39982,560.78,598.53
24.42110,560.28,599.13
24.44120,562.27,601.00
24.45959,561.39,600.41
24.48050,560.78,600.56
24.49978,559.23,600.36
24.52087,559.59,598.72
24.54043,561.18,601.86
24.56024,558.66,599.87
24.58056,560.53,601.29
24.60110,563.32,602.31
24.62065,562.66,600.08
24.64000,562.18,602.13
24.66127,563.52,602.02
24.68118,564.06,603.74
24.69990,563.27,602.24
24.71930,564.26,605.10
24.74063,563.04,605.27
24.76079,565.73,601.89
24.78025,565.82,603.79
24.80068,564.51,601.62
24.82085,563.03,603.83
24.84003,562.92,603.91
24.86068,561.68,604.99
24.88083,562.05,606.81
24.90015,563.20,606.47
24.91998,561.71,608.52
24.94010,562.86,604.91
24.95951,560.99,605.90
24.98063,564.66,604.65
24.99988,562.70,606.31
25.02116,561.32,607.18
25.03934,561.75,605.82
25.06147,561.93,604.90
25.08127,561.29,606.09
25.10104,561.99,604.86
25.11991,559.94,605.49
25.14094,564.21,605.66
25.16063,562.34,603.58
25.17949,564.04,603.73
25.20034,563.05,602.69
25.22007,563.41,602.66
25.24031,562.66,601.54
25.26126,564.89,601.54
25.28042,566.33,604.48
25.30206,565.43,604.68
25.32225,563.19,605.02
25.34060,563.87,601.88
25.36225,560.29,603.14
25.38262,561.77,603.31
25.40299,561.40,600.82
25.42399,561.66,602.14
25.44350,559.82,603.87
25.46345,557.53,602.73
25.48563,559.52,603.85
25.50490,556.61,601.74
25.52553,557.65,605.10
25.54463,555.54,605.49
25.56518,555.15,604.41
25.58488,555.26,604.89
25.60497,553.77,605.42
25.62637,554.85,604.21
25.64641,552.84,604.55
25.66582,551.79,606.97
25.68444,551.20,606.36
25.70561,552.63,605.89
25.72587,551.53,604.33
25.74591,550.30,605.22
25.76467,553.87,603.11
25.78608,552.87,603.93
25.80560,551.07,608.12
25.82490,550.37,607.74
25.84565,548.62,606.28
25.86508,551.76,604.19
25.88557,548.78,607.32
25.90446,551.42,606.73
25.92560,550.99,605.33
25.94688,549.24,605.80
25.96684,549.02,602.01
25.98577,548.56,601.19
26.00583,548.61,601.60
26.02609,547.62,602.19
26.04729,546.17,601.07
26.06646,544.48,603.26
26.08666,545.93,602.05
26.10687,543.23,602.87
26.12756,546.78,601.63
26.14715,546.75,602.99
26.16664,546.54,599.81
26.18729,546.94,601.38
26.20803,544.88,601.72
26.22683,542.75,601.00
26.24781,543.94,603.58
26.26781,543.00,601.24
26.28810,543.64,602.02
26.30756,543.02,599.83
26.32660,540.96,602.71
26.34644,539.95,602.93
26.36716,541.67,601.35
26.38691,539.84,598.59
26.40773,540.93,598.99
26.42783,536.63,600.63
26.44651,536.15,598.64
26.46644,536.46,598.70
26.48742,536.16,600.91
26.50651,538.14,596.68
26.52780,536.61,601.06
26.54837,535.29,601.83
26.56674,538.35,598.85
26.58826,539.21,599.15
26.60682,540.83,599.18
26.62686,540.48,601.62
26.64707,538.53,598.69
26.66797,541.12,597.91
26.68694,538.79,597.63
26.70640,538.06,594.06
26.72674,539.97,598.80
26.74793,538.08,615.70
26.76731,538.59,643.07
26.78834,537.83,669.94
26.80733,535.94,685.89
26.82743,537.25,697.97
26.84661,536.82,700.67
26.86801,538.68,699.76
26.88815,539.61,695.62
26.90806,541.82,688.15
26.92664,541.80,680.71
26.94801,539.87,671.73
26.96762,540.41,661.56
26.98629,541.84,652.19
27.00801,540.87,646.89
27.02757,539.98,639.32
27.04783,539.37,635.02
27.06753,539.57,633.95
27.08685,541.51,624.33
27.10660,541.82,625.44
27.12694,541.43,622.35
27.14781,539.30,615.01
27.16672,537.17,613.56
27.18774,538.91,614.78
27.20758,538.82,613.36
27.22775,538.00,611.21
27.24709,537.49,612.77
27.26773,539.27,606.75
27.28805,540.28,607.28
27.30680,539.41,609.01
27.32816,537.43,608.79
27.34673,536.34,607.75
27.36676,538.81,608.42
27.38659,537.75,603.00
27.40827,540.69,600.85
27.42798,537.92,605.63
27.44707,538.93,601.46
27.46758,538.85,605.19
27.48668,542.84,605.14
27.50754,541.91,601.64
27.52729,539.34,602.22
27.54756,542.54,600.72
27.56680,538.42,600.61
27.58796,538.01,598.69
27.60752,538.78,598.59
27.62678,538.46,598.28
27.64796,540.04,599.45
27.66824,539.69,600.88
27.68803,540.40,599.56
27.70795,538.55,600.27
27.72725,541.19,598.69
27.74679,539.17,599.65
27.76684,540.22,601.68
27.78677,540.65,594.92
27.80804,539.47,577.78
27.82820,538.25,553.18
27.84797,534.97,526.17
27.86688,533.72,505.52
27.88665,533.40,492.03
27.90707,531.78,490.56
27.92804,529.31,487.44
27.94653,530.13,493.88
27.96698,531.71,499.46
27.98653,531.99,503.13
28.00763,533.67,511.29
28.02815,534.02,518.21
28.04733,532.17,525.10
28.06826,534.77,533.58
28.08703,535.32,543.18
28.10653,536.34,545.18
28.12706,540.40,553.75
28.14685,541.20,561.31
28.16745,541.63,564.87
28.18675,541.77,568.94
28.20702,540.81,575.89
28.22674,541.29,577.54
28.24738,541.63,582.60
28.26762,541.16,584.55
28.28840,542.26,584.82
28.30741,539.37,588.89
28.32680,541.82,589.11
28.34753,539.09,590.36
28.36808,541.02,593.41
28.38702,542.25,592.77
28.40651,541.88,595.60
28.42699,542.91,594.47
28.44642,542.37,591.53
28.46770,541.79,593.69
28.48792,540.52,595.29
28.50774,540.33,593.95
28.52758,539.13,598.42
28.54755,537.50,597.63
28.56719,537.15,600.67
28.58745,536.79,601.44
28.60651,538.04,599.25
28.62727,537.48,601.16
28.64735,537.31,601.95
28.66695,536.98,601.68
28.68706,541.06,602.44
28.70751,539.24,599.32
28.73024,541.36,598.79
28.74915,542.42,600.01
28.76853,541.71,602.09
28.78940,542.59,600.78
28.81126,541.14,597.97
28.82977,542.32,599.17
28.85010,541.93,599.41
28.87101,544.14,599.73
28.89023,542.37,598.94
28.91026,544.28,602.40
28.93123,544.05,599.11
28.94985,542.17,600.83
28.96938,543.49,600.63
28.99049,541.20,597.17
29.01055,542.33,597.90
29.03011,541.21,600.05
29.05030,542.82,598.43
29.06948,544.22,602.30
29.09054,544.54,600.14
29.11102,545.36,600.69
29.13040,546.41,600.10
29.15015,546.09,598.31
29.17101,545.18,598.58
29.19120,545.62,600.12
29.21114,546.90,599.18
29.23109,546.03,599.10
29.25008,545.95,601.04
29.26944,546.37,598.22
29.29027,548.15,600.54
29.31118,547.29,599.41
29.33062,548.30,598.35
29.35071,548.67,599.65
29.37129,549.67,601.06
29.39202,551.66,604.28
29.41348,552.35,604.49
29.43218,556.51,601.94
29.45280,555.95,602.36
29.47268,556.42,602.25
29.49328,555.94,602.85
29.51372,559.15,602.71
29.53377,557.63,602.63
29.55268,558.81,601.28
29.57437,559.08,602.58
29.59349,557.76,600.17
29.61489,561.93,603.57
29.63328,560.73,600.68
29.65502,562.01,602.79
29.67345,561.69,601.31
29.69503,562.97,600.94
29.71448,562.41,604.30
29.73400,562.69,603.59
29.75499,565.46,605.59
29.77522,567.17,603.78
29.79567,565.49,606.04
29.81693,565.22,605.83
29.83879,562.13,604.00
29.85796,560.46,604.33
29.87906,559.43,608.14
29.89897,557.71,605.84
29.92102,556.59,607.16
29.94109,554.85,605.17
29.96120,557.41,605.76
29.98006,553.51,603.74
30.00026,554.08,603.60
30.02066,554.46,602.13
30.04014,551.03,602.18
30.06041,552.03,604.79
30.08021,552.03,606.10
30.10045,552.10,606.12
30.11977,551.69,607.32
30.13985,549.67,608.17
30.15992,552.15,606.86
30.17977,553.49,605.78
30.19938,550.42,604.60
30.22083,553.49,604.68
30.24033,553.53,601.88
30.26098,552.69,602.57
30.28037,549.36,604.03
30.30168,549.28,602.55
30.32063,547.31,602.19
30.34288,548.88,604.21
30.36144,545.56,606.10
30.38180,546.16,605.01
30.40243,545.08,602.67
30.42413,542.72,606.26
30.44478,540.85,603.17
30.46550,544.01,604.32
30.48633,542.03,599.58
30.50620,544.70,601.73
30.52525,544.57,597.88
30.54545,540.34,599.06
30.56629,538.98,598.11
30.58584,540.97,597.75
30.60666,536.83,593.57
30.62647,539.55,591.03
30.64682,537.88,591.30
30.66725,539.50,594.29
30.68638,538.75,591.19
30.70548,537.61,592.78
30.72709,540.53,587.93
30.74571,537.61,588.18
30.76552,536.77,593.69
30.78610,538.26,614.85
30.80681,539.30,648.38
30.82632,544.66,691.12
30.84580,547.53,727.90
30.86600,549.37,755.36
30.88619,552.18,763.53
30.90703,556.17,762.87
30.92709,555.86,752.36
30.94663,554.49,738.58
30.96655,553.25,720.74
30.98703,549.21,701.08
31.00678,547.33,685.12
31.02534,547.53,664.30
31.04522,543.25,650.96
31.06514,540.86,637.51
31.08717,539.09,629.56
31.10511,536.92,619.77
31.12554,537.41,618.60
31.14727,538.20,610.46
31.16576,537.17,610.45
31.18560,538.20,606.66
31.20546,539.34,603.44
31.22642,538.38,602.38
31.24628,541.65,601.32
31.26594,539.20,603.42
31.28720,539.59,602.82
31.30640,538.32,601.47
31.32583,538.33,604.35
31.34696,537.62,602.78
31.36553,538.01,606.53
31.38685,539.41,601.36
31.40590,538.93,602.78
31.42635,539.91,602.59
31.44653,537.49,601.93
31.46537,541.61,602.53
31.48675,539.05,601.68
31.50636,541.02,602.83
31.52549,542.45,603.40
31.54664,542.03,604.17
31.56598,540.66,599.32
31.58590,542.46,594.23
31.60615,545.08,586.46
31.62674,540.98,568.70
31.64657,538.14,547.55
31.66710,539.79,520.89
31.68700,538.33,495.99
31.70552,535.97,480.58
31.72673,534.35,473.81
31.74577,534.87,473.71
31.76710,536.29,476.97
31.78715,536.05,480.77
31.80610,536.99,490.30
31.82664,537.27,498.94
31.84577,537.99,506.15
31.86673,539.08,517.08
31.88591,537.63,526.65
31.90603,537.09,531.61
31.92610,537.13,541.33
31.94534,539.84,545.52
31.96699,539.15,554.61
31.98604,542.52,556.12
32.00674,543.09,560.94
32.02578,544.36,567.99
32.04710,541.74,573.59
32.06555,540.80,574.17
32.08659,542.30,580.70
32.10562,542.89,582.40
32.12571,541.25,585.20
32.14679,543.07,584.59
32.16680,541.67,587.97
32.18694,542.63,591.39
32.20610,542.82,592.92
32.22670,546.54,590.11
32.24698,545.04,591.65
32.26674,544.82,593.93
32.28521,544.70,593.32
32.30514,546.33,591.59
32.32515,543.64,591.03
32.34650,546.01,592.10
32.36560,544.78,590.94
32.38543,546.43,592.16
32.40763,548.63,595.15
32.42784,545.18,595.15
32.44671,546.63,597.73
32.46790,546.92,600.19
32.48761,547.56,601.04
32.50826,548.64,601.37
32.52769,547.38,598.02
32.54747,547.67,599.84
32.56725,549.17,598.91
32.58661,550.50,599.05
32.60702,549.81,601.80
32.62763,550.99,602.64
32.64810,552.03,600.67
32.66694,553.32,602.43
32.68669,551.68,602.00
32.70762,550.62,602.06
32.72682,549.25,602.21
32.74707,549.00,598.95
32.76629,551.77,600.02
32.78624,549.42,599.40
32.80674,551.31,599.16
32.82773,549.36,600.18
32.84720,549.99,595.49
32.86725,552.27,600.46
32.88664,551.00,598.36
32.90637,551.30,600.74
32.92745,553.30,601.81
32.94664,553.12,599.26
32.96660,553.35,601.34
32.98676,551.96,601.72
33.00741,554.24,601.68
33.02743,555.19,599.12
33.04725,555.72,601.74
33.06678,556.88,599.62
33.08792,554.71,597.50
33.10607,552.87,598.66
33.12660,552.23,598.69
33.14634,550.17,598.36
33.16708,551.71,598.24
33.18659,552.77,600.16
33.20744,551.17,598.25
33.22685,550.95,601.25
33.24657,551.31,598.98
33.26663,550.50,601.19
33.28611,550.51,598.64
33.30678,551.97,600.86
33.32676,554.16,599.31
33.34612,552.78,602.32
33.36701,552.98,600.70
33.38717,549.94,601.26
33.40788,550.59,599.62
33.42686,551.03,599.58
33.44705,551.49,600.03
33.46718,551.07,600.65
33.48683,552.30,600.63
33.50769,553.24,601.97
33.52805,553.53,598.56
33.54692,553.42,603.29
33.56633,550.70,602.10
33.58777,552.83,603.44
33.60637,555.56,603.71
33.62780,553.11,601.58
33.64757,552.14,600.64
33.66798,555.68,601.49
33.68739,554.37,601.10
33.70778,557.08,600.03
33.72782,554.90,603.27
33.74702,554.15,603.65
33.76725,555.19,602.16
33.78713,555.66,600.67
33.80785,552.79,601.61
33.82641,553.33,599.41
33.84798,554.06,602.43
33.86782,556.08,600.65
33.88786,554.59,601.82
33.90610,554.71,604.14
33.92730,551.86,599.23
33.94657,554.40,601.89
33.96769,552.78,599.44
33.98770,551.07,598.34
34.00719,552.00,599.32
34.02651,554.00,598.39
34.04673,552.96,600.49
34.06777,552.37,600.51
34.08710,551.27,598.84
34.10738,552.63,598.54
34.12812,553.00,600.03
34.14654,554.69,597.80
34.16693,553.04,597.98
34.18646,552.20,600.36
34.20862,554.30,598.38
34.22849,554.82,599.46
34.24863,554.72,598.34
34.26882,557.15,599.26
34.28808,557.86,601.09
34.30900,557.31,599.72
34.32775,560.38,601.86
34.34840,558.24,601.83
34.36789,561.12,601.13
34.38865,562.68,599.80
34.40862,560.20,600.70
34.42800,560.15,601.07
34.44853,564.77,601.34
34.46911,564.49,602.15
34.48808,561.96,600.59
34.50760,558.55,598.91
34.52783,557.83,599.50
34.54750,557.28,598.87
34.56916,559.08,599.91
34.58787,562.24,600.09
34.60884,562.18,597.54
34.62904,564.01,595.81
34.64812,565.62,595.99
34.66757,563.87,595.36
34.68756,559.88,599.37
34.70733,560.63,597.38
34.72745,561.14,597.94
34.74749,563.81,596.05
34.76864,565.39,598.09
34.78886,565.13,599.37
34.81099,562.73,602.22
34.83034,563.75,598.94
34.84974,564.21,598.40
34.86981,561.17,600.10
34.89059,563.86,600.60
34.91042,564.00,613.33
34.93024,564.44,638.54
34.95039,564.06,662.82
34.96910,566.89,690.68
34.99075,565.53,708.49
35.01076,563.83,721.75
35.03040,564.47,725.64
35.05128,566.18,722.71
35.07033,563.63,716.81
35.09099,566.99,706.59
35.11027,563.14,694.27
35.13219,562.72,682.59
35.15072,564.60,674.53
35.17057,561.06,664.98
35.19101,562.30,653.61
35.21183,559.93,649.11
35.23038,559.06,644.05
35.25049,560.64,636.39
35.27168,558.96,632.58
35.29191,560.85,629.90
35.31134,558.51,624.60
35.33011,558.16,624.67
35.35135,558.41,621.18
35.37071,559.21,621.08
35.39011,557.32,618.74
35.41073,557.58,614.21
35.43031,556.87,613.19
35.45120,556.05,614.42
35.47155,556.56,611.88
35.49024,555.79,609.43
35.51011,556.79,611.54
35.53167,557.99,607.61
35.55113,556.32,608.06
35.57041,558.92,610.83
35.59185,559.78,608.46
35.61173,557.61,609.06
35.63138,559.11,609.46
35.65101,561.43,607.81
35.67037,558.51,608.36
35.69136,556.51,607.53
35.71135,556.81,610.73
35.73039,559.31,607.85
35.75047,559.52,608.49
35.77145,558.93,605.12
35.79202,559.91,606.73
35.81021,559.43,606.63
35.83091,557.70,605.92
35.85178,556.88,606.21
35.87062,557.76,606.41
35.89091,556.27,603.62
35.91132,555.17,604.32
35.93219,555.46,604.05
35.95176,554.25,604.34
35.97194,555.54,604.15
35.99204,558.63,604.97
36.01087,555.71,609.96
36.03070,557.85,611.21
36.05095,556.22,609.11
36.07124,558.81,586.94
36.09037,559.90,561.39
36.11127,558.37,532.71
36.13067,556.16,507.99
36.15082,555.12,494.44
36.17104,556.46,489.56
36.19088,557.79,489.49
36.21050,553.92,490.96
36.23143,554.74,497.21
36.25219,553.32,501.98
36.27157,554.95,509.55
36.29075,553.07,518.89
36.31207,551.09,525.86
36.33047,553.90,536.56
36.35199,554.05,543.41
36.37153,553.98,554.21
36.39071,553.11,560.59
36.41121,552.51,568.12
36.43030,552.93,575.63
36.45088,555.31,577.27
36.47072,553.12,583.05
36.49134,551.72,583.56
36.51032,553.39,587.66
36.53002,555.22,590.12
36.55149,553.91,593.46
36.57139,553.25,593.86
36.59097,552.52,596.09
36.61093,554.44,598.18
36.63013,553.28,600.52
36.65033,554.51,602.17
36.67054,552.25,603.93
36.69184,551.52,600.73
36.71084,554.97,601.30
36.73102,554.39,604.65
36.75085,555.23,605.35
36.77098,555.67,607.17
36.79165,555.94,607.10
36.81193,553.22,609.57
36.83160,553.63,609.87
36.85081,553.67,604.52
36.87216,553.86,607.50
36.89094,550.77,603.26
36.91093,551.55,604.25
36.93136,551.49,607.21
36.95049,551.87,606.39
36.97010,549.62,604.85
36.99143,549.61,604.62
37.01074,551.88,601.68
37.03082,550.35,604.74
37.05067,549.76,604.58
37.07038,553.22,600.83
37.09087,553.68,600.39
37.11093,552.21,601.63
37.13030,552.76,601.18
37.15165,549.67,599.28
37.17171,549.79,601.90
37.19121,551.96,603.25
37.21066,548.71,603.58
37.23118,549.73,603.99
37.25106,549.33,608.25
37.27180,552.13,605.53
37.29017,550.78,606.29
37.31040,549.95,603.59
37.33025,549.43,604.23
37.35023,552.50,603.20
37.37014,549.75,603.03
37.39119,550.59,602.09
37.41055,550.98,602.99
37.43116,551.82,604.24
37.45210,551.48,602.04
37.47072,550.60,604.87
37.49148,549.35,603.00
37.51256,549.88,601.69
37.53111,548.70,603.86
37.55185,546.11,602.12
37.57147,545.64,606.19
37.59285,545.70,605.96
37.61132,544.67,606.71
37.63179,544.76,607.85
37.65274,546.97,605.34
37.67157,545.83,606.27
37.69113,545.63,604.43
37.71170,545.51,602.42
37.73124,544.89,603.06
37.75270,547.06,602.76
37.77182,545.76,604.60
37.79221,546.92,606.16
37.81269,546.73,604.57
37.83282,545.39,603.72
37.85257,543.07,604.93
37.87117,542.02,603.75
37.89112,544.33,601.98
37.91212,542.69,603.15
37.93144,542.87,601.14
37.95290,540.63,603.60
37.97297,544.03,601.40
37.99194,543.15,603.40
38.01116,546.05,603.45
38.03252,544.21,599.39
38.05257,542.26,601.25
38.07154,542.17,599.33
38.09281,542.28,600.21
38.11222,542.00,602.55
38.13255,541.80,602.09
38.15133,543.23,600.98
38.17108,541.57,599.58
38.19184,543.81,599.39
38.21158,542.82,603.08
38.23162,545.43,603.65
38.25214,541.57,602.19
38.27221,540.15,601.44
38.29265,541.32,601.70
38.31161,538.62,602.30
38.33130,536.41,600.52
38.35280,536.82,601.73
38.37181,536.94,603.33
38.39252,540.03,606.57
38.41121,538.53,602.99
38.43294,539.41,603.91
38.45111,536.86,601.93
38.47294,538.63,603.55
38.49311,538.60,602.41
38.51115,537.09,604.97
38.53125,540.00,603.32
38.55271,536.53,602.13
38.57150,538.39,604.50
38.59300,541.35,602.66
38.61150,541.79,604.85
38.63131,539.57,602.01
38.65139,539.01,599.72
38.67152,539.19,601.52
38.69207,541.57,603.59
38.71304,542.98,604.42
38.73271,543.07,599.54
38.75190,541.71,598.90
38.77138,540.78,598.06
38.79239,540.73,600.62
38.81248,540.63,597.21
38.83193,538.57,596.54
38.85283,539.29,599.80
38.87197,536.38,599.08
38.89238,540.13,600.06
38.91112,540.37,601.55
38.93195,540.40,599.65
38.95177,542.82,600.64
38.97216,540.78,602.21
38.99337,542.94,597.66
39.01349,539.04,600.73
39.03372,537.32,599.43
39.05392,538.62,601.18
39.07252,536.56,599.56
39.09381,536.43,598.14
39.11336,533.75,598.14
39.13342,536.32,595.28
39.15368,534.13,595.68
39.17362,533.47,597.76
39.19422,537.84,595.37
39.21386,536.52,595.80
39.23350,538.58,595.18
39.25327,539.18,596.15
39.27340,536.42,592.78
39.29442,537.44,591.81
39.31337,537.66,592.26
39.33437,538.09,594.61
39.35322,537.34,593.77
39.37358,535.61,594.76
39.39415,538.20,592.50
39.41395,536.68,594.13
39.43339,538.08,591.68
39.45497,537.76,594.74
39.47356,539.26,608.91
39.49430,541.15,629.30
39.51359,542.06,658.07
39.53477,542.07,684.58
39.55506,545.89,703.95
39.57424,544.95,712.89
39.59421,542.39,714.19
39.61444,542.58,711.07
39.63452,544.40,704.52
39.65454,542.53,694.21
39.67354,543.57,681.74
39.69388,542.38,669.57
39.71353,540.80,657.28
39.73513,543.18,646.91
39.75505,543.64,641.98
39.77353,541.14,633.39
39.79479,540.95,626.91
39.81413,538.31,626.22
39.83486,538.55,622.11
39.85515,534.92,619.28
39.87487,534.61,615.63
39.89341,536.79,610.95
39.91466,534.50,612.19
39.93393,534.65,607.25
39.95305,533.10,606.16
39.97391,533.64,606.75
39.99341,534.38,604.87
40.01460,535.54,602.35
40.03479,535.56,602.56
40.05345,537.37,601.55
40.07484,536.83,602.37
40.09420,538.02,602.88
40.11473,541.71,600.62
40.13471,544.38,603.44
40.15471,543.91,599.71
40.17409,542.31,600.53
40.19378,541.82,601.90
40.21436,541.38,599.28
40.23350,540.94,600.09
40.25425,541.87,600.69
40.27418,541.67,603.76
40.29432,540.14,601.52
40.31401,540.46,599.98
40.33507,540.82,600.56
40.35398,539.06,597.74
40.37339,539.07,599.00
40.39337,540.95,597.75
40.41330,540.99,598.09
40.43324,542.64,597.22
40.45484,542.12,594.48
40.47385,539.65,596.53
40.49461,539.92,597.25
40.51440,540.98,595.11
40.53403,537.90,596.27
40.55424,539.62,598.41
40.57465,541.28,599.69
40.59328,541.24,600.12
40.61317,540.03,599.88
40.63360,540.68,598.63
40.65405,538.69,602.84
40.67397,540.72,600.12
40.69395,539.24,602.64
40.71403,543.54,597.77
40.73373,540.60,595.41
40.75467,544.81,581.99
40.77431,544.72,557.82
40.79419,543.67,532.62
40.81431,541.33,511.67
40.83392,541.21,496.21
40.85501,538.53,485.62
40.87416,538.28,483.24
40.89494,538.23,485.18
40.91372,538.25,488.87
40.93387,536.74,497.94
40.95394,539.87,502.86
40.97431,540.09,514.52
40.99384,538.95,522.61
41.01345,542.30,528.27
41.03305,544.23,533.11
41.05369,544.95,542.13
41.07463,544.22,545.35
41.09420,542.80,550.71
41.11424,546.31,556.31
41.13530,545.67,561.74
41.15468,543.99,568.34
41.17473,544.54,572.66
41.19569,548.50,577.66
41.21615,546.72,582.24
41.23745,551.89,585.24
41.25629,550.85,588.22
41.27784,552.52,590.04
41.29699,555.73,589.62
41.31667,556.65,592.77
41.33696,555.30,592.60
41.35670,555.31,596.11
41.37801,558.21,594.99
41.39660,555.77,596.89
41.41753,557.92,598.49
41.43653,557.29,596.83
41.45596,557.54,594.93
41.47662,558.21,596.09
41.49767,553.63,595.17
41.51720,554.57,596.03
41.53891,557.73,599.13
41.55849,557.62,598.27
41.57826,555.67,598.65
41.59907,558.11,601.64
41.61966,556.71,601.16
41.63818,557.94,602.79
41.65814,555.51,601.61
41.67818,557.22,602.27
41.69943,557.65,602.60
41.71929,556.80,602.19
41.73912,558.44,603.60
41.75973,559.13,604.11
41.77940,556.90,601.22
41.79831,559.13,598.36
41.81914,556.41,599.75
41.83966,559.12,601.79
41.85945,556.76,602.46
41.87947,558.30,604.36
41.89993,560.20,601.92
41.91961,558.07,602.98
41.93917,561.06,600.92
41.95925,560.36,603.09
41.97832,560.91,602.76
41.99967,561.35,604.55
42.01928,559.29,600.64
42.04072,560.98,604.91
42.06055,561.24,601.20
42.08059,563.92,602.29
42.10047,563.41,602.56
42.12091,560.48,602.57
42.14053,560.39,603.46
42.16036,558.82,604.23
42.17984,562.93,602.97
42.20040,561.89,602.52
42.22026,561.71,603.12
42.23994,563.78,607.81
42.26039,562.72,607.56
42.28080,558.35,606.76
42.30017,560.10,602.95
42.32071,557.85,604.77
42.34039,558.86,603.61
42.36159,560.23,604.52
42.38048,557.56,604.83
42.40023,560.21,602.22
42.42176,558.83,604.98
42.44017,560.91,603.28
42.46086,560.79,604.84
42.48118,560.20,603.54
42.50164,558.05,601.89
42.52090,557.73,601.46
42.54112,559.94,605.74
42.56200,557.32,607.67
42.58054,562.91,614.74
42.60046,562.74,624.83
42.62044,570.55,641.80
42.64033,571.76,659.81
42.66135,577.75,680.30
42.68155,581.34,701.85
42.70112,583.30,714.82
42.72042,580.27,728.32
42.74087,581.83,730.63
42.76196,582.46,729.36
42.78080,583.93,717.15
42.80057,582.18,698.94
42.82073,581.71,675.42
42.84190,578.75,648.13
42.86221,578.64,621.90
42.88246,573.42,596.14
42.90169,567.82,571.72
42.92272,563.00,550.19
42.94272,554.23,524.30
42.96125,550.73,504.88
42.98241,544.77,497.58
43.00248,542.30,492.38
43.02280,543.54,499.79
43.04301,545.49,524.77
43.06293,547.05,559.95
43.08299,553.45,604.10
43.10358,560.72,648.78
43.12248,566.26,681.22
43.14244,571.17,703.73
43.16384,572.54,721.69
43.18219,576.45,731.01
43.20290,579.44,740.47
43.22285,579.46,744.08
43.24301,581.20,742.60
43.26293,584.18,743.13
