Program Time [s],data 0,data 1
5.45919,552.65,654.90
5.48033,550.30,634.20
5.49906,546.66,614.84
5.52036,543.14,590.76
5.53910,541.92,571.96
5.56064,541.54,556.97
5.57983,540.75,546.75
5.59910,542.03,536.14
5.62040,542.59,533.36
5.64051,541.32,530.51
5.66139,541.85,531.06
5.68143,541.63,533.84
5.70055,539.53,535.77
5.72091,542.32,536.02
5.74109,540.98,540.50
5.76115,543.42,543.85
5.78254,543.04,548.52
5.80128,542.52,551.25
5.82148,544.43,556.10
5.84201,546.20,555.00
5.86115,545.51,558.55
5.88221,546.01,562.20
5.90156,546.80,564.45
5.92208,548.23,569.70
5.94113,545.44,570.91
5.96315,546.63,574.83
5.98357,548.38,579.67
6.00236,546.77,583.22
6.02200,547.40,584.82
6.04336,547.16,583.78
6.06313,550.47,583.76
6.08228,550.53,583.80
6.10258,550.99,582.91
6.12305,548.56,582.33
6.14377,552.13,582.40
6.16223,549.94,581.32
6.18209,553.26,583.35
6.20318,551.26,580.65
6.22216,550.67,582.94
6.24311,550.53,578.60
6.26248,550.14,578.91
6.28283,549.58,586.47
6.30334,552.67,599.81
6.32255,556.02,629.38
6.34337,555.98,651.71
6.36289,558.73,678.20
6.38260,557.11,689.14
6.40341,555.46,698.96
6.42209,556.40,698.80
6.44401,558.28,692.33
6.46270,556.41,698.55
6.48339,554.52,693.62
6.50258,556.12,690.44
6.52251,555.12,673.43
6.54190,557.76,669.69
6.56264,559.80,661.95
6.58378,558.57,655.44
6.60231,558.99,641.40
6.62376,559.52,630.61
6.64331,557.37,629.87
6.66203,558.67,620.69
6.68252,555.42,617.99
6.70260,553.41,610.58
6.72267,554.20,605.20
6.74374,551.40,597.68
6.76392,551.04,594.10
6.78274,551.40,588.64
6.80254,550.43,590.77
6.82241,554.04,587.52
6.84252,552.40,586.32
6.86194,552.50,589.79
6.88333,554.89,589.84
6.90217,554.60,589.32
6.92306,553.00,588.12
6.94360,553.65,589.03
6.96259,550.18,589.48
6.98314,551.63,585.50
7.00358,551.87,586.09
7.02266,550.34,588.42
7.04332,550.07,582.11
7.06472,552.44,583.96
7.08426,550.62,579.90
7.10459,553.42,578.02
7.12303,552.85,577.60
7.14445,551.09,576.59
7.16398,549.58,577.82
7.18390,550.14,577.72
7.20399,549.39,578.09
7.22488,549.92,574.75
7.24514,549.79,576.45
7.26522,550.45,577.53
7.28424,552.69,578.81
7.30421,551.18,579.91
7.32426,548.68,577.57
7.34541,551.01,576.23
7.36484,549.28,577.10
7.38564,549.16,578.66
7.40385,550.75,577.89
7.42439,550.61,579.88
7.44579,552.64,578.18
7.46496,548.94,579.78
7.48576,549.72,562.80
7.50525,547.69,537.95
7.52529,551.07,508.92
7.54549,549.69,485.16
7.56379,545.56,468.84
7.58410,546.12,462.79
7.60579,545.23,465.48
7.62545,547.19,467.43
7.64472,547.26,472.60
7.66506,544.09,478.45
7.68545,544.21,489.56
7.70394,546.88,495.86
7.72440,548.91,503.79
7.74471,549.05,510.30
7.76533,547.18,519.92
7.78487,550.13,528.17
7.80480,548.69,532.65
7.82472,547.14,537.49
7.84574,546.00,545.08
7.86433,547.37,548.44
7.88424,548.61,551.58
7.90497,545.95,557.31
7.92700,549.45,560.73
7.94732,549.10,562.57
7.96680,544.17,563.12
7.98776,545.66,563.41
8.00670,543.12,566.60
8.02732,546.00,568.21
8.04642,542.86,571.98
8.06655,544.10,571.41
8.08694,541.57,571.99
8.10758,545.52,573.32
8.12686,543.39,574.22
8.14795,544.87,574.44
8.16682,543.35,576.46
8.18733,543.52,577.44
8.20715,544.02,578.69
8.22714,545.21,579.22
8.24711,545.71,577.86
8.26736,544.95,577.91
8.28675,544.82,579.56
8.30683,545.92,581.18
8.32660,543.72,580.83
8.34717,544.38,581.29
8.36572,545.17,583.79
8.38680,546.90,579.18
8.40681,543.96,578.22
8.42734,545.29,577.93
8.44781,543.82,580.72
8.46785,545.14,578.11
8.48695,548.15,579.99
8.50698,546.57,578.28
8.52651,548.10,576.82
8.54790,543.67,577.60
8.56608,547.69,578.67
8.58744,547.09,578.39
8.60749,545.65,580.23
8.62643,544.50,581.51
8.64645,545.74,579.43
8.66644,545.32,579.80
8.68722,547.61,581.13
8.70626,542.05,582.67
8.72677,543.71,579.97
8.74709,545.41,583.04
8.76740,544.81,581.40
8.78600,544.35,577.54
8.80632,545.63,578.04
8.82667,545.74,579.53
8.84627,546.68,578.08
8.86657,547.45,579.14
8.88715,543.70,580.77
8.90723,546.46,582.74
8.92612,546.74,582.89
8.94703,546.22,579.72
8.96748,547.50,581.54
8.98676,546.92,581.19
9.00783,546.86,577.68
9.02600,544.53,580.38
9.04630,543.58,581.59
9.06697,544.98,581.67
9.08691,545.05,580.13
9.10747,543.81,579.26
9.12714,544.68,576.90
9.14602,540.70,577.79
9.16660,540.61,579.27
9.18678,543.72,579.62
9.20695,541.03,579.19
9.22631,542.85,578.51
9.24632,544.36,579.99
9.26692,544.48,580.47
9.28761,542.64,580.07
9.30672,541.01,579.34
9.32656,541.14,580.91
9.34747,545.19,578.29
9.36642,543.70,582.70
9.38608,544.80,579.79
9.40704,542.31,582.72
9.42623,542.58,580.63
9.44726,543.70,579.38
9.46716,543.81,582.84
9.48770,545.10,580.72
9.50691,546.82,580.09
9.52746,543.05,578.87
9.54585,542.91,577.16
9.56622,542.65,577.96
9.58632,544.52,575.77
9.60740,545.78,578.25
9.62594,544.83,577.51
9.64715,546.02,579.33
9.66694,546.09,575.23
9.68706,542.98,577.15
9.70699,544.78,576.15
9.72710,542.71,574.37
9.74765,545.76,574.69
9.76777,542.70,578.26
9.78578,543.98,578.35
9.80596,543.95,577.41
9.82783,541.63,579.77
9.84634,541.73,579.36
9.86781,541.89,583.49
9.88731,543.57,580.83
9.90754,542.80,583.59
9.92641,543.14,581.72
9.94704,543.87,580.77
9.96703,544.64,583.49
9.98630,544.46,581.68
10.00637,542.81,581.20
10.02769,545.01,583.29
10.04671,542.43,579.66
10.06782,543.75,580.08
10.08777,544.36,583.76
10.10777,545.13,583.48
10.12627,546.19,583.06
10.14669,543.80,583.84
10.16729,545.52,579.91
10.18726,544.05,581.90
10.20748,542.34,581.83
10.22583,541.45,580.99
10.24672,542.49,583.14
10.26742,541.17,582.25
10.28617,540.60,579.96
10.30751,542.18,582.43
10.32755,541.22,583.85
10.34716,542.75,582.53
10.36774,540.49,579.36
10.38762,540.59,580.49
10.40689,538.87,578.66
10.42755,539.17,578.42
10.44778,537.72,578.45
10.46689,536.84,578.46
10.48860,537.78,576.91
10.50844,535.62,574.85
10.52912,532.36,571.48
10.54950,534.51,570.78
10.56949,532.52,573.20
10.58941,532.88,571.85
10.60982,534.89,572.25
10.62802,534.47,579.28
10.64876,533.23,591.01
10.66790,535.12,607.02
10.68955,533.90,622.18
10.70871,536.34,640.55
10.72773,535.89,662.48
10.74911,536.83,674.69
10.76904,537.79,693.80
10.78901,542.11,702.41
10.80936,540.22,703.71
10.82902,541.46,700.71
10.84797,541.63,692.93
10.86961,540.51,683.93
10.88899,540.69,673.57
10.90953,542.10,658.48
10.92801,540.20,646.08
10.94955,541.28,636.16
10.96842,537.93,624.48
10.99035,536.65,620.13
11.00934,537.31,615.46
11.03007,536.06,611.10
11.05048,534.37,605.65
11.06917,534.71,603.34
11.08995,534.85,599.82
11.11157,533.34,592.32
11.13156,535.46,593.01
11.15034,533.67,591.69
11.17170,533.85,590.52
11.19157,531.50,587.40
11.21146,533.99,587.64
11.23123,533.90,588.49
11.25224,531.96,588.28
11.27288,532.08,582.53
11.29244,534.15,583.66
11.31158,533.82,580.99
11.33119,533.06,584.45
11.35150,531.85,583.39
11.37246,533.76,580.59
11.39259,532.71,581.01
11.41223,530.88,581.33
11.43254,532.00,577.63
11.45262,534.36,579.08
11.47184,532.69,575.98
11.49259,532.44,578.54
11.51245,531.14,577.29
11.53137,532.37,575.30
11.55140,530.74,573.22
11.57248,530.39,576.18
11.59077,532.51,574.71
11.61124,534.59,577.47
11.63238,537.01,581.03
11.65347,537.35,586.13
11.67301,536.10,586.38
11.69237,539.76,578.64
11.71206,540.72,551.77
11.73314,537.44,520.21
11.75296,533.83,490.92
11.77209,529.92,469.38
11.79188,528.70,451.63
11.81269,525.35,444.83
11.83341,525.31,447.76
11.85244,524.40,447.88
11.87249,525.70,458.98
11.89261,527.13,465.03
11.91257,525.00,475.44
11.93380,526.04,485.83
11.95259,528.55,496.29
11.97279,529.75,503.15
11.99314,529.66,514.33
12.01280,528.68,521.03
12.03273,531.54,525.60
12.05253,533.44,530.99
12.07302,536.40,536.58
12.09379,534.63,540.99
12.11292,538.05,545.89
12.13290,538.43,549.63
12.15397,536.39,553.43
12.17418,537.76,555.99
12.19400,540.90,557.59
12.21336,539.25,556.19
12.23443,540.71,557.75
12.25344,540.58,559.01
12.27346,539.43,562.75
12.29320,541.32,564.86
12.31391,537.43,564.43
12.33303,537.69,563.85
12.35278,537.69,566.64
12.37414,541.70,566.10
12.39361,540.67,569.03
12.41356,541.51,569.41
12.43276,537.07,566.93
12.45353,539.70,570.82
12.47293,539.01,567.90
12.49466,541.24,567.64
12.51302,540.70,566.95
12.53430,538.73,566.97
12.55443,538.90,568.80
12.57475,541.61,570.53
12.59337,540.35,570.27
12.61469,538.27,568.20
12.63336,542.10,571.27
12.65338,541.80,571.98
12.67313,540.89,570.66
12.69304,539.97,570.36
12.71350,540.75,574.21
12.73348,541.88,571.68
12.75332,539.39,573.15
12.77347,541.51,571.36
12.79431,541.31,570.69
12.81373,544.06,572.51
12.83430,544.51,571.42
12.85338,544.66,572.46
12.87399,541.99,573.20
12.89416,542.89,573.75
12.91283,543.06,575.90
12.93464,543.65,572.83
12.95345,542.28,573.18
12.97356,543.84,573.91
12.99347,542.15,574.02
13.01263,542.92,576.32
13.03423,541.78,575.48
13.05424,540.10,575.02
13.07465,541.25,577.00
13.09431,545.92,575.02
13.11354,543.88,575.09
13.13347,544.56,577.88
13.15357,541.45,575.63
13.17390,542.91,575.24
13.19316,543.24,577.46
13.21321,541.69,574.40
13.23458,542.58,576.17
13.25280,543.01,574.49
13.27470,541.99,575.41
13.29311,542.00,575.86
13.31341,544.82,574.71
13.33289,545.82,572.32
13.35470,544.88,571.87
13.37391,544.71,573.46
13.39469,543.01,572.15
13.41352,544.33,575.51
13.43435,543.27,577.68
13.45442,541.45,577.88
13.47465,540.67,577.91
13.49361,543.63,576.44
13.51282,542.18,574.91
13.53277,541.73,575.59
13.55337,544.88,576.76
13.57335,546.78,577.53
13.59300,544.77,577.98
13.61333,547.15,578.46
13.63320,545.56,578.61
13.65356,545.02,578.91
13.67452,545.97,576.87
13.69340,542.48,577.35
13.71312,541.49,579.04
13.73302,541.80,575.68
13.75446,544.14,576.27
13.77405,543.63,577.78
13.79335,544.32,578.77
13.81299,544.00,578.41
13.83329,542.92,578.94
13.85455,544.18,576.62
13.87469,545.67,574.81
13.89301,542.05,574.07
13.91455,544.94,575.22
13.93313,544.25,574.60
13.95298,543.71,574.73
13.97464,542.68,575.50
13.99301,543.73,574.03
14.01312,544.71,576.06
14.03428,542.78,576.74
14.05346,545.93,577.15
14.07419,545.59,575.74
14.09289,543.74,574.81
14.11276,546.67,574.74
14.13431,547.15,575.68
14.15327,546.04,572.06
14.17299,545.09,575.22
14.19344,543.85,573.92
14.21258,544.72,571.96
14.23426,545.49,570.62
14.25317,543.78,571.27
14.27403,545.90,574.22
14.29268,546.50,578.63
14.31373,544.26,579.32
14.33465,547.74,579.28
14.35452,548.19,581.84
14.37340,545.95,579.76
14.39469,545.50,581.14
14.41323,545.05,580.81
14.43353,544.45,583.01
14.45299,546.89,579.46
14.47348,547.02,580.60
14.49382,546.37,579.87
14.51384,545.16,581.86
14.53381,545.93,580.49
14.55403,548.53,578.77
14.57329,548.14,578.10
14.59357,549.90,580.06
14.61418,550.21,578.41
14.63310,548.62,580.50
14.65425,548.56,578.41
14.67407,546.06,577.29
14.69363,548.11,579.12
14.71424,548.05,579.40
14.73313,547.25,576.58
14.75449,550.17,578.26
14.77355,551.32,580.16
14.79302,549.03,580.81
14.81287,546.34,578.43
14.83380,544.12,577.01
14.85369,546.39,578.33
14.87459,545.40,577.99
14.89423,547.93,574.89
14.91398,545.31,576.88
14.93339,546.46,577.11
14.95342,546.52,574.47
14.97465,547.38,574.42
14.99371,545.53,578.18
15.01421,548.97,572.27
15.03363,546.95,573.11
15.05357,547.34,574.67
15.07402,548.79,572.37
15.09404,550.63,574.66
15.11334,550.01,574.56
15.13291,550.58,573.90
15.15443,548.78,575.57
15.17302,548.93,575.76
15.19409,547.97,578.54
15.21438,551.43,577.95
15.23372,549.03,577.30
15.25287,550.41,577.07
15.27440,549.59,577.92
15.29414,549.27,576.99
15.31367,551.85,581.10
15.33492,550.07,579.71
15.35339,547.45,578.29
15.37456,546.29,578.08
15.39307,549.83,576.78
15.41412,548.53,589.30
15.43356,550.36,614.58
15.45447,553.22,652.63
15.47313,557.68,680.60
15.49356,558.13,702.23
15.51285,558.82,709.46
15.53430,559.57,712.58
15.55423,558.37,703.85
15.57295,557.50,690.51
15.59467,555.26,678.84
15.61379,554.01,663.42
15.63319,553.00,648.25
15.65403,551.56,634.10
15.67466,555.52,627.47
15.69372,553.61,616.91
15.71437,550.24,611.70
15.73378,552.87,608.16
15.75271,553.73,599.71
15.77458,549.39,597.69
15.79419,550.83,594.97
15.81345,548.96,592.71
15.83346,548.69,589.14
15.85327,548.97,590.63
15.87421,550.69,587.72
15.89437,550.84,587.91
15.91452,549.41,587.11
15.93395,549.62,587.68
15.95435,550.85,586.17
15.97439,551.82,584.89
15.99371,549.98,587.21
16.01436,548.52,583.81
16.03443,549.05,583.99
16.05316,548.83,583.82
16.07305,549.25,584.01
16.09361,547.05,582.15
16.11336,548.04,581.62
16.13374,547.51,582.78
16.15266,547.45,583.37
16.17433,547.35,582.74
16.19367,549.25,581.31
16.21292,547.74,584.16
16.23364,547.89,583.77
16.25326,549.41,581.64
16.27458,548.96,581.54
16.29273,547.99,581.00
16.31419,548.31,582.38
16.33382,545.99,578.76
16.35343,549.11,571.46
16.37328,548.34,555.32
16.39262,548.75,530.44
16.41408,548.46,508.53
16.43636,544.25,490.76
16.45504,546.45,480.89
16.47617,541.12,480.47
16.49616,540.74,479.27
16.51482,541.55,484.88
16.53502,540.17,488.00
16.55474,543.22,492.71
16.57466,544.54,504.53
16.59480,544.58,509.34
16.61521,546.43,517.01
16.63625,544.79,523.82
16.65658,545.66,528.56
16.67636,545.65,532.43
16.69532,547.13,537.88
16.71532,550.01,540.94
16.73619,548.35,545.10
16.75601,547.00,548.58
16.77634,550.57,553.03
16.79536,547.49,554.66
16.81511,549.67,555.04
16.83542,552.77,559.82
16.85580,555.22,562.60
16.87512,555.31,562.06
16.89491,554.62,566.34
16.91565,553.83,567.05
16.93581,553.23,567.67
16.95543,554.82,568.92
16.97552,551.45,572.25
16.99505,554.25,572.41
17.01508,553.74,572.66
17.03468,554.55,573.73
17.05597,553.05,577.77
17.07474,551.92,580.13
17.09487,553.76,577.82
17.11551,553.88,579.25
17.13471,553.77,577.25
17.15553,551.84,581.66
17.17574,552.24,582.62
17.19601,552.25,581.97
17.21590,552.93,580.56
17.23543,554.35,580.00
17.25615,555.36,580.74
17.27635,553.54,583.22
17.29626,554.80,579.02
17.31575,553.09,581.91
17.33538,551.12,579.81
17.35537,553.17,580.89
17.37509,550.67,580.36
17.39573,551.30,581.21
17.41554,553.07,581.90
17.43581,555.69,578.13
17.45594,553.75,577.09
17.47523,552.55,580.65
17.49549,553.87,580.72
17.51464,551.20,580.07
17.53580,553.66,578.60
17.55553,554.86,579.63
17.57537,552.88,577.23
17.59593,553.73,579.18
17.61626,554.04,577.31
17.63573,552.64,579.30
17.65643,551.82,582.33
17.67630,553.88,579.35
17.69602,554.97,580.06
17.71607,552.44,581.78
17.73571,553.65,577.51
17.75624,554.05,579.26
17.77585,554.03,580.97
17.79595,551.76,579.83
17.81469,551.23,577.69
17.83528,552.31,579.18
17.85565,549.76,582.61
17.87649,551.17,584.01
17.89662,552.52,579.51
17.91556,555.82,579.74
17.93499,555.09,579.49
17.95616,555.80,580.37
17.97597,553.86,578.78
17.99525,552.33,581.52
18.01519,553.11,583.54
18.03573,554.34,584.39
18.05573,554.10,582.65
18.07521,552.64,584.27
18.09559,553.72,583.83
18.11581,556.35,583.67
18.13556,555.90,583.89
18.15569,557.40,582.94
18.17533,556.54,583.53
18.19529,558.71,583.51
18.21592,557.26,583.77
18.23554,557.94,582.57
18.25662,556.72,584.03
18.27639,554.02,582.65
18.29582,552.86,584.13
18.31658,552.94,583.83
18.33533,553.07,584.21
18.35563,553.01,582.58
18.37645,552.11,583.82
18.39613,551.09,583.33
18.41519,550.39,586.97
18.43489,551.07,585.21
18.45558,552.77,585.92
18.47637,553.69,585.77
18.49604,553.83,586.05
18.51606,554.54,584.44
18.53470,552.78,582.07
18.55564,550.09,582.64
18.57584,551.17,582.14
18.59506,551.66,583.59
18.61477,549.59,584.29
18.63602,548.24,585.12
18.65510,550.40,583.82
18.67580,551.54,583.96
18.69583,548.58,585.73
18.71629,551.90,584.94
18.73590,548.57,586.12
18.75504,551.14,589.36
18.77527,552.02,588.85
18.79505,549.17,587.93
18.81536,551.23,587.36
18.83659,552.60,588.34
18.85551,550.73,588.94
18.87499,550.95,585.83
18.89647,552.15,586.33
18.91497,554.70,587.56
18.93631,554.40,586.28
18.95574,552.69,586.87
18.97597,555.47,583.71
18.99543,552.29,585.55
19.01659,553.27,583.66
19.03597,553.86,585.84
19.05542,555.10,584.19
19.07579,555.06,585.47
19.09644,555.63,585.06
19.11580,553.90,583.86
19.13529,553.10,585.61
19.15495,553.76,585.53
19.17493,550.99,584.66
19.19587,551.44,587.90
19.21610,551.64,587.46
19.23577,550.32,586.33
19.25474,549.29,588.93
19.27559,548.68,587.93
19.29490,547.74,585.38
19.31519,549.95,586.67
19.33638,549.09,583.86
19.35579,549.55,582.88
19.37588,549.41,583.61
19.39610,549.16,581.83
19.41644,552.43,585.77
19.43732,551.34,583.37
19.45520,549.19,582.70
19.47531,550.67,585.78
19.49669,550.77,585.42
19.51509,550.62,585.45
19.53623,552.18,585.47
19.55568,549.40,584.35
19.57570,550.10,584.99
19.59468,552.57,599.20
19.61517,552.61,621.68
19.63540,553.64,639.70
19.65678,550.76,658.65
19.67501,555.16,673.45
19.69534,551.74,684.39
19.71647,553.34,689.96
19.73516,555.71,686.30
19.75540,553.67,680.59
19.77551,558.89,675.53
19.79616,556.38,666.81
19.81565,559.48,659.28
19.83516,558.17,651.13
19.85581,559.73,646.49
19.87545,558.03,637.52
19.89482,561.40,631.61
19.91530,557.85,627.60
19.93529,556.51,621.04
19.95492,554.60,618.68
19.97658,553.88,616.71
19.99667,554.18,611.68
20.01512,555.53,604.85
20.03569,554.78,607.29
20.05511,551.56,603.15
20.07535,549.54,600.16
20.09558,549.01,603.46
20.11490,551.86,599.29
20.13612,549.79,600.35
20.15650,550.07,598.47
20.17606,552.58,597.55
20.19475,549.25,599.37
20.21560,549.58,596.60
20.23462,549.93,594.46
20.25465,552.42,597.09
20.27506,552.33,597.09
20.29509,551.28,591.30
20.31636,554.34,591.48
20.33635,552.92,590.88
20.35466,551.83,591.59
20.37644,552.14,590.06
20.39592,552.75,588.91
20.41665,552.24,588.07
20.43486,550.57,586.98
20.45647,552.51,588.16
20.47584,553.62,586.79
20.49475,552.01,583.54
20.51498,554.13,585.36
20.53521,551.14,583.78
20.55584,550.77,586.57
20.57593,553.56,589.27
20.59562,552.45,588.19
20.61645,552.86,592.92
20.63625,549.85,592.27
20.65649,548.59,591.80
20.67658,547.21,578.44
20.69601,543.36,551.83
20.71688,544.93,523.77
20.73648,540.24,498.07
20.75688,539.12,480.16
20.77595,537.60,471.35
20.79792,536.66,469.02
20.81674,535.21,469.67
20.83750,538.17,475.28
20.85832,535.20,485.03
20.87699,533.75,491.86
20.89833,537.60,495.40
20.91811,535.92,502.75
20.93680,535.52,516.64
20.95671,538.59,520.39
20.97822,537.13,527.60
20.99824,539.48,532.57
21.01768,539.75,537.58
21.03820,542.27,543.52
21.05706,540.14,545.76
21.07674,541.77,553.04
21.09894,538.79,555.69
21.12032,538.39,557.38
21.14002,536.69,562.98
21.15889,535.54,562.27
21.18037,536.90,566.86
21.19941,534.73,567.75
21.21978,535.81,569.66
21.23934,535.92,568.17
21.25959,535.46,571.86
21.27895,533.86,572.33
21.30055,534.67,572.31
21.32026,535.25,574.15
21.33936,532.82,574.86
21.35892,533.77,571.64
21.37957,532.61,575.75
21.40005,533.44,574.16
21.41957,532.03,574.59
21.43989,531.48,574.54
21.46159,530.33,576.00
21.48117,530.92,575.77
21.50033,532.68,574.82
21.52079,531.01,575.11
21.54009,532.28,574.87
21.56130,530.45,571.62
21.58046,530.89,573.11
21.60083,531.32,573.17
21.62040,530.79,573.28
21.63973,533.95,573.80
21.66007,533.61,574.28
21.68061,531.43,574.30
21.70101,532.47,571.54
21.71985,531.89,570.87
21.74156,533.63,571.96
21.76068,532.41,576.09
21.78154,533.91,576.60
21.79934,533.14,577.21
21.82056,532.82,576.80
21.84085,532.90,573.31
21.86042,530.16,577.14
21.88084,531.41,578.71
21.89986,529.37,575.36
21.92089,530.46,574.97
21.94108,532.05,576.61
21.96045,532.04,578.45
21.98146,528.94,578.09
22.00156,529.82,579.33
22.02059,534.00,576.76
22.04082,531.01,575.58
22.06003,534.12,576.37
22.08147,532.61,577.23
22.10127,531.15,576.95
22.11997,530.65,574.62
22.14065,532.76,578.01
22.16011,530.15,577.42
22.17972,532.62,576.42
22.19955,530.80,574.08
22.22109,531.35,572.49
22.23993,531.82,575.35
22.26075,531.33,571.51
22.27976,532.26,572.74
22.30140,533.10,575.32
22.31973,529.60,573.95
22.34044,532.51,574.72
22.36041,532.83,576.83
22.38103,532.54,576.02
22.40092,532.33,576.01
22.42076,532.59,575.65
22.44050,531.84,573.71
22.46122,531.82,575.36
22.48073,530.23,576.04
22.49976,528.27,575.51
22.52039,531.47,575.58
22.53983,528.25,577.21
22.56033,529.99,574.77
22.58015,529.48,576.45
22.60152,531.40,577.17
22.62208,529.54,574.43
22.64194,530.14,572.77
22.66188,529.63,572.62
22.68227,529.70,572.81
22.70209,529.13,571.74
22.72121,529.84,571.59
22.74156,529.29,573.00
22.76103,530.26,571.77
22.78102,532.94,573.42
22.80165,530.94,575.12
22.82238,532.85,571.96
22.84123,529.77,575.13
22.86156,531.74,573.82
22.88224,529.34,573.22
22.90147,532.50,572.26
22.92188,530.18,572.35
22.94230,529.79,569.49
22.96246,528.48,571.43
22.98179,530.29,573.06
23.00231,529.54,571.45
23.02155,530.51,570.25
23.04199,531.40,570.29
23.06122,529.78,572.88
23.08090,528.94,570.17
23.10090,529.92,572.87
23.12078,531.31,570.69
23.14128,529.73,572.95
23.16183,529.22,572.81
23.18061,531.08,572.14
23.20055,531.38,572.33
23.22208,530.54,571.85
23.24229,528.48,572.62
23.26240,530.51,574.40
23.28189,530.09,574.64
23.30104,530.39,570.50
23.32070,532.26,569.97
23.34080,533.26,571.89
23.36111,531.83,571.54
23.38105,533.88,573.54
23.40166,531.79,571.38
23.42198,531.55,570.82
23.44141,531.09,570.83
23.46185,532.13,570.12
23.48237,529.41,569.41
23.50197,529.71,568.20
23.52145,530.85,572.89
23.54247,530.18,570.46
23.56126,532.20,573.29
23.58237,531.08,573.67
23.60050,530.64,573.25
23.62203,530.25,570.04
23.64187,530.75,569.29
23.66091,529.00,571.61
23.68090,529.94,570.34
23.70086,530.56,569.50
23.72220,531.28,571.23
23.74116,531.35,572.46
23.76193,530.23,569.61
23.78154,529.80,570.74
23.80142,532.12,572.24
23.82226,533.23,569.14
23.84254,532.19,572.13
23.86136,532.20,572.49
23.88173,533.52,575.10
23.90147,534.94,574.83
23.92127,533.25,573.14
23.94244,535.50,573.49
23.96257,533.84,573.14
23.98213,537.22,574.80
24.00102,534.37,579.51
24.02203,534.60,599.37
24.04130,539.83,622.04
24.06096,539.79,646.57
24.08198,537.20,663.28
24.10219,539.16,677.99
24.12125,538.35,685.20
24.14222,538.94,686.45
24.16237,537.63,680.02
24.18066,538.67,677.76
24.20157,536.73,668.25
24.22087,537.57,659.37
24.24220,538.25,653.34
24.26196,539.64,643.28
24.28260,539.67,633.61
24.30099,536.91,622.87
24.32121,540.04,612.13
24.34214,538.20,604.33
24.36122,538.26,599.24
24.38152,537.29,598.92
24.40106,539.74,596.80
24.42252,538.26,591.10
24.44083,539.15,592.05
24.46116,536.03,589.82
24.48100,536.88,586.92
24.50172,536.48,585.48
24.52133,533.97,584.28
24.54046,533.72,583.88
24.56261,532.11,583.30
24.58323,535.01,584.17
24.60191,532.19,583.06
24.62242,533.58,581.21
24.64175,531.62,584.26
24.66225,533.64,581.58
24.68287,536.93,582.60
24.70195,536.30,577.47
24.72230,536.09,578.05
24.74281,540.09,581.23
24.76324,540.22,579.58
24.78182,541.20,575.61
24.80176,541.76,576.82
24.82335,542.00,576.71
24.84229,542.18,574.74
24.86177,541.11,575.18
24.88282,541.54,575.78
24.90196,542.15,576.58
24.92255,541.14,575.29
24.94268,540.98,575.42
24.96193,539.43,577.70
24.98182,539.00,577.02
25.00190,541.47,578.24
25.02245,540.16,578.55
25.04241,540.31,576.45
25.06274,539.45,573.57
25.08173,537.79,561.16
25.10222,535.58,540.61
25.12243,532.59,517.05
25.14328,531.68,493.92
25.16225,532.02,476.01
25.18247,528.95,459.42
25.20177,529.91,451.62
25.22322,533.30,453.06
25.24167,533.52,457.07
25.26329,534.29,462.59
25.28266,532.65,467.99
25.30303,534.10,477.14
25.32296,534.11,487.06
25.34165,533.86,492.12
25.36270,535.62,502.06
25.38338,537.52,512.45
25.40214,537.03,524.44
25.42207,540.21,531.75
25.44232,539.60,535.78
25.46317,541.17,542.87
25.48296,540.25,549.57
25.50294,538.77,552.28
25.52283,542.48,553.85
25.54282,542.54,558.93
25.56350,542.70,561.15
25.58316,540.90,561.75
25.60222,540.92,564.61
25.62351,539.92,565.98
25.64161,539.50,566.46
25.66195,539.56,566.71
25.68283,539.24,566.70
25.70244,539.47,567.22
25.72150,540.87,571.31
25.74249,541.28,570.85
25.76239,539.47,568.72
25.78337,541.42,570.99
25.80302,542.38,570.32
25.82387,543.42,573.73
25.84345,546.03,571.54
25.86351,545.06,574.86
25.88271,546.24,573.34
25.90301,546.51,576.50
25.92312,546.72,578.17
25.94276,544.01,580.44
25.96366,547.59,581.06
25.98303,545.98,577.31
26.00338,546.59,579.32
26.02393,545.11,577.41
26.04450,546.18,578.91
26.06237,544.35,578.85
26.08280,546.10,577.40
26.10295,546.44,577.87
26.12321,547.26,579.44
26.14428,546.22,578.87
26.16358,546.76,577.52
26.18306,545.03,579.36
26.20272,547.15,575.58
26.22299,547.11,578.95
26.24264,546.66,578.19
26.26385,546.63,579.53
26.28377,546.34,578.46
26.30317,549.73,576.84
26.32294,548.18,576.90
26.34256,549.59,578.92
26.36378,547.33,575.99
26.38458,551.74,577.46
26.40280,549.08,577.99
26.42380,550.93,578.17
26.44355,552.69,575.02
26.46304,551.73,579.93
26.48419,551.69,577.02
26.50303,550.61,575.51
26.52397,551.51,577.14
26.54469,551.69,574.32
26.56474,548.87,577.39
26.58341,547.98,579.56
26.60482,550.72,578.00
26.62500,553.17,578.33
26.64493,550.15,580.80
26.66484,551.10,581.53
26.68376,548.72,580.38
26.70367,549.32,581.23
26.72442,550.82,581.50
26.74407,550.39,579.46
26.76395,551.68,579.45
26.78479,552.92,582.00
26.80489,550.46,581.33
26.82518,552.45,583.78
26.84504,551.97,582.43
26.86633,552.70,585.31
26.88452,554.03,580.95
26.90607,552.58,584.43
26.92613,553.01,583.41
26.94452,551.33,585.99
26.96501,552.84,582.83
26.98502,551.39,582.11
27.00635,553.19,583.23
27.02591,550.83,583.50
27.04617,554.20,584.60
27.06489,552.42,584.11
27.08511,553.41,583.42
27.10498,553.06,586.19
27.12518,552.34,586.48
27.14546,554.52,586.35
27.16482,552.33,585.50
27.18615,551.40,582.63
27.20602,550.58,584.02
27.22460,549.02,581.45
27.24584,550.05,581.35
27.26524,550.11,580.59
27.28575,549.16,581.26
27.30459,550.57,578.01
27.32599,550.76,578.82
27.34528,553.37,579.68
27.36635,553.78,578.13
27.38468,553.10,579.07
27.40494,550.09,578.61
27.42620,553.56,582.13
27.44577,551.24,581.87
27.46634,552.68,581.14
27.48464,551.30,578.58
27.50502,553.26,581.32
27.52590,553.25,579.59
27.54638,552.26,580.61
27.56574,551.62,580.27
27.58449,548.96,577.53
27.60617,547.52,579.21
27.62466,550.12,577.40
27.64576,550.64,577.48
27.66498,550.11,579.70
27.68483,551.89,576.40
27.70477,553.77,580.25
27.72616,553.22,579.79
27.74637,554.04,580.99
27.76532,551.45,581.57
27.78585,551.69,579.87
27.80522,551.21,581.19
27.82558,554.24,580.92
27.84517,553.44,581.45
27.86530,551.03,580.45
27.88461,552.69,580.88
27.90599,552.28,580.20
27.92496,557.31,582.50
27.94447,554.74,581.54
27.96591,554.14,579.59
27.98548,554.92,578.64
28.00571,552.93,578.73
28.02517,553.66,578.21
28.04609,552.06,580.47
28.06596,551.44,579.77
28.08585,552.03,581.40
28.10625,553.74,577.84
28.12617,551.16,578.76
28.14576,552.63,579.35
28.16437,552.18,579.65
28.18495,550.81,577.07
28.20490,555.51,578.13
28.22626,553.91,580.82
28.24593,554.30,578.01
28.26564,552.83,577.71
28.28533,551.06,579.91
28.30580,549.90,575.15
28.32581,550.16,580.46
28.34456,550.76,580.34
28.36531,551.55,582.85
28.38487,548.67,584.70
28.40608,550.90,585.91
28.42647,548.40,590.78
28.44650,547.92,607.17
28.46716,548.63,621.36
28.48651,548.30,639.47
28.50599,547.11,651.48
28.52691,544.93,663.26
28.54649,546.14,669.77
28.56619,543.61,673.52
28.58656,544.55,675.91
28.60596,545.82,674.52
28.62736,546.43,672.66
28.64669,551.33,669.96
28.66680,550.87,667.64
28.68641,553.13,661.92
28.70709,555.25,660.96
28.72702,559.76,654.65
28.74534,561.07,651.44
28.76562,563.51,646.56
28.78706,562.70,640.75
28.80740,564.89,634.33
28.82704,564.02,627.00
28.84681,561.85,623.55
28.86779,564.45,617.06
28.88767,560.15,611.26
28.90652,558.61,608.93
28.92707,557.48,601.47
28.94708,556.95,598.20
28.96687,558.11,600.88
28.98678,560.00,594.66
29.00709,558.27,595.59
29.02687,556.45,594.23
29.04730,553.06,592.81
29.06722,549.46,589.67
29.08771,549.62,589.91
29.10751,549.28,587.75
29.12829,551.02,588.12
29.14700,549.67,588.45
29.16833,549.22,589.67
29.18775,548.00,589.41
29.20812,549.61,584.61
29.22778,550.82,586.88
29.24795,549.66,587.48
29.26774,547.36,587.02
29.28721,546.14,585.41
29.30719,547.38,588.85
29.32797,547.16,586.54
29.34708,547.79,581.17
29.36797,547.00,571.35
29.38686,545.38,556.65
29.40661,545.48,532.81
29.42677,545.71,508.96
29.44769,541.63,485.17
29.46769,538.91,471.29
29.48688,537.82,460.91
29.50688,537.67,464.51
29.52727,538.06,464.73
29.54784,540.38,473.79
29.56769,536.72,478.26
29.58720,536.21,485.77
29.60667,535.85,495.34
29.62769,537.17,506.25
29.64827,536.16,512.80
29.66693,537.97,522.61
29.68798,539.76,531.71
29.70764,543.30,539.01
29.72825,543.57,547.11
29.74781,540.92,550.89
29.76855,544.58,554.79
29.78752,544.23,559.11
29.80816,543.46,562.64
29.82858,542.31,562.14
29.84890,543.07,565.19
29.86721,542.73,563.76
29.88813,542.17,565.89
29.90847,543.48,567.86
29.92839,541.62,570.14
29.94873,541.63,569.56
29.96837,540.92,572.23
29.98897,540.86,569.45
30.00871,541.44,570.74
30.02950,541.27,571.52
30.04909,542.67,574.76
30.06853,539.77,575.80
30.08803,538.28,575.41
30.10856,538.22,577.01
30.12882,538.35,577.14
30.14730,537.18,578.27
30.16896,538.87,576.60
30.18902,538.56,577.78
30.20900,537.65,578.07
30.22787,540.91,578.85
30.24863,541.90,580.90
30.26787,539.92,580.77
30.28842,540.75,579.88
30.30766,541.85,578.99
30.32909,540.36,576.77
30.34769,539.91,580.73
30.36841,536.70,579.37
30.38853,538.63,578.09
30.40884,540.26,578.24
30.42915,535.29,580.61
30.44753,537.28,581.98
30.46839,536.67,579.77
30.48847,535.83,582.02
30.50870,536.16,580.31
30.52804,538.01,581.16
30.54838,537.59,582.53
30.56787,536.53,581.65
30.58836,536.47,579.96
30.60775,534.90,580.44
30.62915,536.05,578.17
30.64876,536.92,580.61
30.66787,536.25,580.83
30.68764,538.82,578.45
30.70803,538.64,579.74
30.72852,538.35,580.85
30.74934,536.68,580.75
30.76805,534.82,578.19
30.78748,535.39,577.85
30.80869,538.24,580.32
30.82807,534.29,579.29
30.84754,535.87,580.29
30.86788,537.90,579.40
30.88822,536.24,578.02
30.90940,535.84,578.74
30.92866,534.69,579.24
30.94831,534.47,576.64
30.96862,536.28,579.32
30.98780,533.86,578.22
31.00868,535.27,577.07
31.02735,534.04,579.32
31.04821,534.80,578.70
31.06812,533.61,574.93
31.08873,535.90,574.69
31.10733,536.74,578.44
31.12880,533.67,576.44
31.14919,536.88,575.03
31.16858,533.22,579.37
31.18792,533.91,578.54
31.20845,535.56,581.12
31.22742,534.45,579.30
31.24935,535.70,583.20
31.26896,534.75,579.62
31.28736,534.42,581.77
31.30737,534.12,578.57
31.32795,535.23,579.93
31.34829,532.54,579.01
31.36765,533.78,578.43
31.38848,535.36,579.01
31.40867,535.27,579.18
31.42816,535.21,578.27
31.44724,532.46,577.32
31.46745,533.73,576.61
31.48898,536.69,576.34
31.50925,534.06,577.37
31.52916,535.65,576.74
31.54751,535.25,576.51
31.56892,537.47,576.72
31.58884,536.04,575.16
31.60910,536.98,576.31
31.62902,537.15,577.16
31.64789,534.98,580.03
31.66733,537.80,576.07
31.68841,538.64,576.80
31.70845,536.88,580.42
31.72795,536.32,579.21
31.74830,536.88,577.65
31.76883,535.02,577.52
31.78736,533.33,578.50
31.80905,534.11,580.57
31.82773,535.05,577.46
31.84920,535.21,580.72
31.86873,534.70,580.13
31.88758,534.29,578.12
31.90786,535.26,577.68
31.92891,536.59,578.43
31.94754,531.33,580.27
31.96848,531.85,579.12
31.98868,534.37,576.70
32.00954,531.10,575.32
32.02960,531.93,575.35
32.04855,532.49,578.10
32.06974,532.65,574.69
32.09015,533.31,574.93
32.10968,533.68,575.11
32.12986,531.64,577.77
32.14975,532.48,578.09
32.16975,533.12,579.11
32.18889,532.82,577.21
32.20874,534.18,576.85
32.22840,532.18,578.36
32.24996,534.21,578.49
32.26878,529.74,576.43
32.29007,531.16,575.02
32.30886,529.55,577.59
32.32877,532.86,576.11
32.34879,532.06,576.10
32.36990,529.07,574.68
32.38949,528.90,574.71
32.40967,530.87,570.97
32.43001,529.36,570.82
32.44906,532.75,572.63
32.46918,530.91,572.98
32.48940,531.67,575.98
32.50908,529.07,587.56
32.52957,530.60,604.76
32.54952,529.94,622.11
32.56950,529.48,635.25
32.59139,529.74,647.80
32.61080,533.02,655.16
32.63092,533.06,657.60
32.64954,531.12,658.05
32.67066,535.28,657.97
32.69095,538.55,656.34
32.70933,540.86,651.35
32.73009,538.29,650.34
32.75111,542.86,645.92
32.77052,539.52,643.43
32.79079,541.12,637.83
32.81112,539.32,628.36
32.83201,539.12,625.37
32.85134,535.66,619.30
32.87086,537.80,613.47
32.89185,538.83,610.80
32.91127,536.42,601.92
32.93211,539.20,599.04
32.95115,537.39,596.51
32.97080,537.56,594.84
32.99172,537.36,592.01
33.01188,534.66,590.87
33.03060,533.17,587.97
33.05067,531.57,586.19
33.07062,532.15,585.34
33.09205,532.42,582.67
33.11049,530.49,576.98
33.13092,534.24,578.36
33.15050,534.48,581.57
33.17160,533.06,579.50
33.19143,531.22,577.41
33.21114,532.74,578.44
33.23088,531.47,575.65
33.25216,533.41,574.54
33.27043,532.52,574.27
33.29180,534.32,574.30
33.31116,534.46,573.96
33.33201,532.84,573.04
33.35165,529.44,575.60
33.37194,532.47,575.89
33.39214,532.09,574.33
33.41101,532.54,576.41
33.43083,531.97,577.70
33.45178,531.29,583.13
33.47155,532.52,581.00
33.49124,532.77,565.07
33.51094,529.87,537.05
33.53201,528.73,504.63
33.55081,526.60,478.84
33.57104,525.15,466.20
33.59057,527.75,461.66
33.61209,526.90,458.53
33.63097,523.34,461.55
33.65113,523.48,466.92
33.67090,522.74,474.13
33.69169,522.87,481.04
33.71193,523.50,490.44
33.73205,525.09,498.52
33.75178,528.48,509.12
33.77214,529.23,515.31
33.79173,525.81,524.75
33.81123,527.87,529.09
33.83200,531.05,536.20
33.85119,532.30,540.42
33.87042,530.21,546.79
33.89103,532.43,549.46
33.91041,532.90,550.96
33.93028,531.04,555.54
33.95179,530.94,557.27
33.97126,530.92,558.36
33.99171,531.58,562.02
34.01036,531.18,564.00
34.03066,532.10,565.57
34.05142,531.32,567.60
34.07161,533.68,569.25
34.09086,530.95,571.77
34.11146,531.55,570.94
34.13151,534.43,573.97
34.15164,532.68,573.80
34.17121,534.69,573.40
34.19202,533.72,572.43
34.21196,535.90,574.15
34.23230,537.07,575.77
34.25144,535.65,576.80
34.27285,537.12,574.92
34.29403,539.47,576.71
34.31361,539.00,577.60
34.33305,539.64,578.83
34.35385,542.46,578.63
34.37369,540.73,577.47
34.39321,542.87,578.11
34.41360,540.58,577.62
34.43245,542.29,576.96
34.45301,540.39,578.10
34.47251,542.35,573.83
34.49325,542.76,573.39
34.51233,542.79,574.65
34.53321,543.52,573.58
34.55354,544.57,572.61
34.57331,546.90,577.83
34.59337,546.27,574.56
34.61245,547.57,579.51
34.63255,543.93,576.46
34.65334,546.45,578.94
34.67245,544.57,577.04
34.69302,543.31,575.32
34.71222,544.76,574.81
34.73276,542.26,576.98
34.75269,541.58,576.64
34.77256,545.12,579.38
34.79260,541.72,576.56
34.81249,544.49,576.71
34.83398,546.18,580.55
34.85373,543.10,579.95
34.87248,546.08,578.73
34.89279,546.25,582.00
34.91228,546.71,580.91
34.93356,544.89,580.65
34.95355,543.45,580.86
34.97292,544.04,581.03
34.99357,545.96,580.00
35.01369,545.85,576.37
35.03298,547.82,579.76
35.05383,546.24,578.04
35.07210,544.25,577.62
35.09257,546.00,578.49
35.11320,545.26,577.42
35.13299,545.34,580.01
35.15323,545.02,577.91
35.17437,544.04,579.56
35.19383,544.23,580.17
35.21323,547.31,578.31
35.23290,544.06,579.33
35.25339,545.66,578.45
35.27360,546.23,582.24
35.29360,542.81,578.37
35.31232,543.98,580.61
35.33348,545.93,581.01
35.35362,547.24,581.15
35.37326,544.57,579.66
35.39414,546.10,579.47
35.41343,545.28,580.69
35.43301,548.29,579.57
35.45239,547.33,578.14
35.47326,545.29,577.67
35.49260,548.58,580.00
35.51236,547.01,583.56
35.53393,544.69,581.63
35.55290,544.35,583.44
35.57264,546.23,582.57
35.59400,548.62,580.62
35.61385,547.50,576.56
35.63237,543.54,581.39
35.65231,544.27,582.69
35.67241,546.18,583.24
35.69336,543.73,582.96
35.71286,547.35,581.91
35.73326,545.03,582.76
35.75249,546.13,581.95
35.77238,546.19,580.26
35.79230,546.29,578.96
35.81322,546.67,580.99
35.83280,546.44,579.88
35.85281,548.70,582.68
35.87260,546.15,582.44
35.89273,548.18,580.05
35.91402,548.82,580.51
35.93331,550.42,579.14
35.95271,549.51,578.49
35.97412,546.28,578.78
35.99358,548.72,577.56
36.01410,551.10,577.36
36.03397,550.19,578.65
36.05403,548.29,577.57
36.07329,550.42,577.72
36.09363,550.98,579.97
36.11384,550.27,579.02
36.13244,550.57,579.25
36.15316,549.54,581.01
36.17360,548.77,579.77
36.19388,549.26,578.63
36.21409,550.54,579.53
36.23246,550.30,580.82
36.25265,552.99,582.11
36.27238,552.39,581.13
36.29408,550.61,580.84
36.31256,550.42,581.83
36.33382,553.47,582.59
36.35337,552.67,579.70
36.37292,551.09,579.95
36.39252,548.53,580.44
36.41319,551.90,578.27
36.43348,552.74,579.13
36.45421,548.94,578.88
36.47277,550.40,578.05
36.49422,548.69,576.09
36.51266,553.02,575.39
36.53366,555.82,577.13
36.55363,553.02,588.52
36.57367,551.00,608.90
36.59373,556.25,638.80
36.61306,558.70,658.38
36.63378,558.25,681.08
36.65339,560.13,686.31
36.67258,562.69,684.20
36.69356,561.21,684.75
36.71347,564.26,680.56
36.73452,562.78,673.81
36.75368,562.81,668.41
36.77340,562.57,662.29
36.79514,559.96,650.97
36.81375,563.60,645.30
36.83462,561.91,640.79
36.85492,557.42,635.25
36.87577,558.98,625.56
36.89618,556.61,620.78
36.91591,557.47,614.17
36.93551,556.03,608.96
36.95588,552.93,604.90
36.97577,555.73,603.06
36.99656,555.28,600.31
37.01727,553.58,600.05
37.03572,554.54,597.16
37.05584,556.51,598.26
37.07556,556.78,594.23
37.09672,554.22,597.48
37.11684,555.17,590.30
37.13599,553.19,594.00
37.15690,552.01,591.39
37.17560,554.76,591.85
37.19711,555.66,592.98
37.21728,552.82,589.14
37.23601,552.15,588.64
37.25600,552.64,589.84
37.27540,552.69,586.35
37.29712,551.02,587.17
37.31591,551.69,587.89
37.33578,551.55,588.28
37.35665,554.42,590.33
37.37596,550.44,589.01
37.39635,551.34,588.17
37.41545,552.40,581.01
37.43647,553.29,561.74
37.45726,554.89,534.86
37.47527,551.73,509.76
37.49630,547.05,484.14
37.51640,545.47,471.10
37.53631,546.87,466.55
37.55670,548.09,465.91
37.57684,546.28,473.48
37.59682,545.29,478.43
37.61556,544.43,486.85
37.63673,545.03,494.10
37.65628,545.99,501.88
37.67551,546.32,507.72
37.69611,548.68,518.06
37.71636,549.09,526.03
37.73694,546.93,533.93
37.75651,548.80,537.76
37.77684,548.55,543.51
37.79806,549.10,550.36
37.81668,550.41,553.86
37.83650,550.92,558.46
37.85733,550.68,560.10
37.87830,550.97,562.98
37.89623,547.34,568.45
37.91753,548.01,571.52
37.93875,546.04,574.03
37.95756,546.86,573.18
37.97806,544.65,572.27
37.99856,543.97,576.60
38.01708,545.54,577.96
38.03865,543.62,576.90
38.05864,541.96,579.16
38.07743,544.09,580.38
38.09892,540.91,579.94
38.11924,541.78,582.17
38.13869,542.43,583.17
38.15774,541.82,581.35
38.17822,542.03,582.73
38.19765,540.49,583.14
38.21779,539.34,581.83
38.23824,539.79,582.36
38.25826,543.13,584.01
38.27868,542.60,585.55
38.29903,541.30,582.05
38.31908,539.04,582.11
38.33743,542.45,584.67
38.35816,542.03,581.97
38.37784,541.86,581.60
38.39916,541.26,582.00
38.41908,543.62,581.97
38.43736,542.82,584.07
38.45858,543.16,582.25
38.47811,545.13,581.48
38.49841,546.07,579.85
38.51821,546.55,583.04
38.53847,546.55,583.60
38.55852,544.48,583.94
38.57785,548.21,581.52
38.59840,547.32,584.19
38.61897,545.27,580.37
38.63889,544.58,579.05
38.65873,541.78,581.41
38.67791,540.53,580.11
38.69886,541.81,578.60
38.71734,543.02,580.00
38.73947,542.69,579.62
38.75874,542.47,578.26
38.77927,542.03,578.89
38.79860,542.87,581.05
38.81930,542.44,578.52
38.83889,540.40,579.59
38.85970,540.20,579.15
38.87847,538.71,577.66
38.89967,539.75,579.04
38.91992,539.82,579.60
38.93830,540.29,580.06
38.95968,539.36,581.42
38.97985,538.71,581.88
38.99870,538.32,579.49
39.01997,535.93,581.21
39.03953,538.32,581.50
39.05841,536.50,581.27
39.07868,536.20,580.90
39.09878,533.92,581.36
39.11968,535.28,579.09
39.13931,535.59,582.22
39.15922,538.56,581.42
39.17867,535.19,580.95
39.19834,538.48,580.37
39.21971,536.85,580.65
39.23858,539.30,582.89
39.25833,536.24,584.13
39.27881,539.95,582.72
39.29830,538.15,580.89
39.31876,537.86,581.28
39.33867,538.12,578.88
39.35891,536.61,579.00
39.37914,536.19,577.86
39.39939,535.11,577.63
39.41917,534.23,578.66
39.43848,533.74,577.27
39.45867,535.26,577.35
39.48018,532.80,575.72
39.49949,535.33,575.34
39.51915,533.22,577.42
39.53849,535.11,579.16
39.55941,533.46,575.56
39.57839,535.49,580.58
39.59854,535.60,578.00
39.61837,536.04,576.09
39.63879,537.66,576.22
39.65905,534.52,578.99
39.67897,532.73,578.25
39.69918,534.79,581.28
39.71842,534.95,580.55
39.73834,534.58,580.00
39.75837,534.24,580.82
39.77902,534.42,578.24
39.79845,537.14,581.84
39.81898,536.91,578.38
39.83823,535.00,577.04
39.85891,533.90,576.72
39.87880,535.49,574.73
39.89896,534.89,575.54
39.91920,534.76,575.40
39.93898,537.48,576.87
39.95923,534.79,577.60
39.97990,534.90,578.69
39.99966,534.81,577.58
40.01909,536.70,579.13
40.03852,535.54,577.71
40.05936,537.44,577.59
40.07952,535.96,579.44
40.09831,535.26,581.58
40.11903,535.69,580.72
40.13875,537.44,577.78
40.15871,538.71,581.62
40.17924,534.31,581.41
40.19883,532.93,579.86
40.21969,535.75,582.71
40.23836,532.41,579.22
40.25866,534.16,580.94
40.27978,533.73,578.19
40.29915,531.34,576.15
40.31958,533.56,576.33
40.33840,535.37,577.36
40.35920,532.11,575.10
40.37985,534.52,576.73
40.39829,531.65,578.23
40.41796,530.91,577.45
40.43806,529.95,578.41
40.45965,528.73,579.69
40.47978,529.65,581.05
40.49955,531.60,580.19
40.51847,528.78,580.89
40.53812,528.49,578.97
40.55960,530.15,580.32
40.57868,528.94,580.97
40.59822,528.32,580.27
40.61862,529.00,581.54
40.64001,531.72,577.71
40.65848,530.40,580.86
40.67946,530.46,578.62
40.69906,531.69,578.99
40.71946,532.03,576.46
40.73965,529.55,577.05
40.75940,532.16,577.38
40.77964,529.54,576.68
40.79988,530.71,581.71
40.81990,531.60,590.53
40.83854,530.39,618.02
40.85854,533.19,644.87
40.87937,533.55,676.72
40.89904,539.08,693.60
40.91940,537.84,698.18
40.93995,538.09,694.03
40.95872,537.84,685.98
40.97980,537.73,674.52
40.99866,536.24,662.44
41.01841,538.64,650.99
41.03840,535.13,643.21
41.05895,537.79,634.14
41.07832,537.71,626.08
41.09893,538.10,618.08
41.11925,533.76,613.18
41.13910,533.51,606.28
41.15932,531.82,600.43
41.17850,530.21,596.01
41.19922,533.68,595.41
41.21825,530.60,590.15
41.23886,532.49,587.98
41.25899,532.10,584.91
41.27998,530.55,585.46
41.29896,530.43,585.32
41.31917,531.57,582.57
41.33912,529.87,581.87
41.35947,533.89,585.08
41.37817,532.52,583.66
41.39998,532.35,582.40
41.41965,533.39,582.28
41.43859,530.88,581.72
41.45971,530.81,581.17
41.47812,531.84,578.01
41.49839,532.09,578.83
41.51959,529.56,580.53
41.53882,529.41,581.15
41.55940,531.14,579.78
41.57885,530.41,581.94
41.59948,533.21,579.10
41.61853,533.02,580.02
41.63844,531.11,579.66
41.65815,533.90,583.33
41.67976,532.31,581.41
41.69973,534.67,578.70
41.71830,535.41,579.18
41.74007,533.25,580.76
41.75865,533.74,581.08
41.78035,532.09,585.35
41.80036,531.50,574.83
41.82046,532.09,551.22
41.84174,531.08,520.22
41.86086,526.70,491.47
41.88191,523.22,473.55
41.90025,522.48,460.49
41.92181,520.84,456.08
41.94190,519.56,460.33
41.96047,519.73,462.49
41.98071,521.86,471.22
42.00095,523.45,479.13
42.02150,524.85,486.96
42.04215,524.72,495.10
42.06030,523.56,503.25
42.08020,526.86,508.38
42.10029,526.63,515.20
42.12256,527.13,521.23
42.14273,528.92,531.83
42.16101,531.89,534.66
42.18136,531.74,537.82
42.20103,531.48,546.46
42.22173,531.83,549.62
42.24122,531.02,551.74
42.26364,536.39,555.25
42.28302,535.00,559.19
42.30238,537.40,560.59
42.32397,537.43,564.65
42.34214,537.83,563.90
42.36275,540.38,566.97
42.38236,539.42,565.10
42.40220,540.56,571.34
42.42273,539.31,573.41
42.44375,539.55,569.44
42.46221,539.01,572.67
42.48261,539.56,573.84
42.50258,540.25,573.96
42.52495,539.34,576.41
42.54357,540.44,574.56
42.56476,538.22,577.85
42.58411,542.11,576.40
42.60392,541.96,577.72
42.62465,540.10,579.08
42.64385,540.82,580.05
42.66405,541.85,576.87
42.68351,542.89,574.97
42.70468,541.92,574.64
42.72500,542.14,571.18
42.74391,542.92,571.23
42.76493,543.45,572.78
42.78391,541.56,573.33
42.80403,540.74,572.13
42.82403,541.41,574.47
42.84425,540.32,574.19
42.86454,541.73,576.80
42.88377,542.08,574.83
42.90349,542.94,575.44
42.92370,538.35,577.72
42.94420,538.37,576.16
42.96483,539.54,579.86
42.98455,543.88,579.67
43.00462,542.43,579.40
43.02369,543.64,579.47
43.04352,542.31,576.92
43.06395,544.22,580.14
43.08363,542.36,580.65
43.10468,544.47,577.27
43.12322,543.31,580.77
43.14495,543.64,576.85
43.16361,545.25,580.04
43.18391,543.90,579.24
43.20378,545.48,578.18
43.22327,544.99,575.01
43.24491,546.14,576.72
43.26340,546.15,577.02
43.28479,548.00,577.54
43.30351,545.42,576.91
43.32333,548.72,577.87
43.34451,548.27,580.36
43.36362,543.64,578.53
43.38375,546.93,577.45
43.40393,546.48,579.56
43.42316,547.74,579.51
43.44374,548.34,579.04
43.46477,543.72,579.47
43.48418,544.25,582.22
43.50337,547.18,581.87
43.52420,547.23,583.66
43.54438,544.88,582.77
43.56469,548.21,582.45
43.58476,544.51,582.03
43.60398,545.86,582.86
43.62457,547.93,580.22
43.64412,547.31,578.64
43.66343,547.16,578.67
43.68482,546.97,581.41
43.70488,546.17,580.89
43.72426,546.80,578.85
43.74342,545.13,580.10
43.76370,543.37,580.52
43.78335,542.58,586.56
43.80355,547.40,595.86
43.82433,556.35,613.97
43.84473,562.48,637.59
43.86358,571.34,668.45
43.88394,577.49,693.64
43.90336,581.62,712.13
43.92420,581.89,726.56
43.94343,582.65,727.64
43.96388,583.28,713.77
43.98357,581.27,683.14
44.00381,577.36,645.92
44.02478,576.69,605.03
44.04368,574.26,561.82
44.06399,572.52,522.71
44.08454,571.40,491.30
44.10496,567.78,471.56
44.12392,561.75,460.52
44.14362,559.24,456.50
44.16374,555.50,454.64
44.18489,554.37,458.33
44.20563,556.97,469.00
44.22580,559.08,477.60
44.24477,559.29,488.17
44.26476,561.55,497.02
44.28396,556.74,507.62
44.30456,557.94,517.77
44.32421,556.47,526.44
44.34564,556.25,533.14
44.36537,554.78,541.82
44.38494,553.70,549.78
44.40507,550.90,555.12
44.42458,554.22,561.39
44.44507,553.26,564.63
44.46474,553.08,568.71
44.48463,551.35,573.25
44.50547,545.93,577.77
44.52532,531.27,586.79
44.54576,512.74,596.90
44.56449,498.26,602.01
44.58576,491.90,601.28
44.60492,487.67,602.45
44.62666,491.79,601.17
44.64542,492.78,602.44
44.66702,500.32,597.38
44.68665,504.27,600.06
44.70608,509.26,600.07
44.72571,513.86,597.12
44.74617,523.06,594.27
44.76704,526.99,595.31
44.78686,530.34,594.96
44.80677,532.63,593.34
44.82688,535.32,593.83
44.84578,540.77,589.19
44.86549,541.28,588.80
44.88624,544.29,585.25
44.90621,544.81,585.34
44.92673,546.46,582.04
44.94621,540.30,579.08
44.96621,535.24,569.01
44.98669,530.43,566.60
45.00632,530.88,564.57
45.02660,532.54,564.66
45.04644,533.47,565.60
45.06541,532.75,568.69
45.08606,538.18,570.64
45.10555,537.96,573.71
45.12635,541.00,575.34
45.14536,542.69,574.49
45.16638,545.13,579.32
45.18665,542.89,579.79
45.20542,545.31,577.82
45.22518,544.25,575.35
45.24597,546.52,577.76
45.26533,546.39,577.13
45.28661,545.14,574.68
45.30636,548.90,574.45
45.32634,550.07,572.12
45.34683,553.17,573.57
45.36555,554.10,573.02
45.38566,552.87,575.02
45.40718,554.11,579.05
45.42609,558.08,596.80
45.44747,576.87,635.50
45.46698,606.26,680.44
45.48675,632.11,717.62
45.50636,658.81,742.63
45.52618,676.67,752.51
45.54632,689.31,740.69
45.56653,690.95,726.74
45.58718,693.96,705.25
45.60721,693.15,679.17
45.62650,687.55,653.52
45.64751,683.99,628.70
45.66694,677.36,602.37
45.68711,666.44,586.04
45.70777,651.21,573.41
45.72618,635.07,564.36
45.74705,618.27,556.41
45.76641,604.35,556.28
45.78733,588.01,552.84
45.80753,576.11,552.87
45.82756,561.96,552.55
45.84685,554.36,552.31
45.86701,546.85,550.70
45.88658,544.79,554.52
45.90766,543.73,554.72
45.92756,545.54,555.28
45.94727,545.81,556.24
