Program Time [s],data 0,data 1
222.17530,525.08,589.17
222.19563,529.07,612.36
222.21483,530.81,640.81
222.23510,535.69,673.75
222.25408,539.89,688.36
222.27546,544.43,692.05
222.29461,545.72,685.18
222.31451,544.96,668.86
222.33450,548.46,645.91
222.35420,545.43,624.88
222.37485,542.63,604.60
222.39516,542.43,590.20
222.41581,539.56,570.45
222.43461,536.83,560.45
222.45499,536.12,552.01
222.47535,533.35,541.71
222.49417,530.24,536.37
222.51531,521.98,512.85
222.53589,513.66,490.07
222.55571,511.84,477.25
222.57689,508.54,475.79
222.59697,505.15,475.90
222.61536,508.32,478.50
222.63643,509.13,485.29
222.65618,505.96,491.73
222.67629,510.05,495.74
222.69682,512.27,505.21
222.71637,517.23,512.41
222.73504,518.42,520.49
222.75627,522.25,525.95
222.77504,521.77,532.49
222.79600,521.92,536.89
222.81762,522.65,540.25
222.83645,524.21,542.49
222.85796,526.69,544.20
222.87689,525.43,546.01
222.89776,527.86,550.42
222.91721,526.64,550.97
222.93712,526.31,555.05
222.95785,530.19,553.66
222.97616,531.94,553.45
222.99720,532.40,556.72
223.01727,532.49,556.05
223.03762,529.88,556.23
223.05606,531.49,555.91
223.07798,531.18,559.63
223.09629,529.99,558.84
223.11923,532.07,561.79
223.13887,531.67,559.46
223.15924,529.65,558.12
223.17967,526.66,561.38
223.19816,529.38,558.37
223.21999,526.30,557.42
223.24001,524.72,557.31
223.25977,525.75,559.40
223.28039,521.28,561.38
223.30016,519.49,559.16
223.32144,519.53,558.18
223.34015,517.69,559.98
223.36096,514.38,558.82
223.38047,514.02,558.61
223.40041,515.60,557.70
223.42135,514.64,559.32
223.44024,516.01,558.56
223.46071,515.55,559.39
223.48045,512.16,562.40
223.50006,514.21,561.06
223.52116,515.65,559.77
223.54126,515.46,558.27
223.56248,514.87,560.70
223.58265,517.22,573.87
223.60242,516.11,606.49
223.62106,520.84,644.83
223.64199,517.03,670.12
223.66315,516.34,678.07
223.68414,512.37,681.97
223.70441,509.24,677.43
223.72431,508.48,670.26
223.74423,506.06,662.51
223.76439,506.36,653.20
223.78301,506.46,640.77
223.80353,504.71,629.80
223.82350,503.52,620.61
223.84477,502.40,615.25
223.86365,504.28,607.85
223.88318,502.23,603.43
223.90373,503.74,595.92
223.92322,506.15,588.92
223.94317,509.19,585.88
223.96480,509.26,582.97
223.98440,510.53,580.28
224.00337,508.24,577.09
224.02342,509.55,574.25
224.04556,508.75,568.98
224.06421,509.24,567.72
224.08448,510.98,563.88
224.10447,509.12,564.01
224.12495,511.57,563.50
224.14459,509.17,562.87
224.16335,510.39,558.06
224.18466,509.76,561.73
224.20389,507.04,563.69
224.22477,509.26,563.28
224.24556,506.35,563.37
224.26367,504.66,562.32
224.28472,505.72,560.17
224.30335,503.50,562.06
224.32353,504.47,559.24
224.34425,504.49,559.88
224.36390,503.73,559.90
224.38436,503.51,557.51
224.40324,505.16,558.65
224.42411,505.17,560.08
224.44492,501.79,560.94
224.46367,504.32,562.05
224.48458,503.28,568.85
224.50484,508.03,576.75
224.52306,508.32,579.62
224.54445,509.64,567.58
224.56358,505.51,534.52
224.58302,505.16,498.37
224.60369,498.62,462.35
224.62390,498.28,438.28
224.64422,495.40,426.05
224.66426,492.21,421.89
224.68469,491.74,424.40
224.70369,494.77,426.91
224.72485,493.57,434.47
224.74433,495.21,443.08
224.76301,495.52,452.52
224.78467,496.85,459.37
224.80465,496.53,471.63
224.82383,500.37,486.14
224.84383,500.09,494.81
224.86418,504.20,505.76
224.88413,501.77,511.64
224.90322,503.39,519.51
224.92437,505.11,523.24
224.94311,503.76,527.84
224.96394,506.47,533.88
224.98495,504.27,535.77
225.00345,508.14,541.48
225.02495,507.37,545.56
225.04336,505.80,545.54
225.06320,506.69,549.25
225.08428,507.87,551.10
225.10468,507.50,553.42
225.12485,508.09,552.75
225.14363,506.59,556.25
225.16375,510.39,556.55
225.18440,510.77,559.14
225.20315,507.26,554.79
225.22433,506.05,555.36
225.24417,508.29,556.35
225.26366,507.86,553.35
225.28388,505.46,554.68
225.30420,505.95,552.72
225.32427,503.58,552.30
225.34452,503.64,552.74
225.36415,502.73,554.22
225.38457,503.01,554.14
225.40431,503.87,553.20
225.42493,505.37,553.03
225.44418,504.39,555.25
225.46375,505.54,553.04
225.48421,502.07,553.87
225.50378,502.24,552.87
225.52306,502.48,551.30
225.54364,501.77,555.63
225.56424,501.75,552.97
225.58438,502.83,559.34
225.60344,506.07,560.53
225.62472,504.33,561.38
225.64369,506.17,562.32
225.66335,506.00,563.64
225.68415,506.15,561.91
225.70371,504.62,563.36
225.72407,504.16,560.02
225.74404,503.82,560.80
225.76494,505.86,559.71
225.78404,505.27,558.26
225.80351,504.55,559.07
225.82445,502.21,557.18
225.84412,506.11,558.47
225.86359,505.68,558.73
225.88481,505.10,558.59
225.90317,505.08,556.82
225.92454,508.20,554.66
225.94424,506.02,554.80
225.96362,507.58,554.04
225.98412,507.63,557.56
226.00449,509.34,555.68
226.02428,508.37,556.03
226.04337,506.50,555.76
226.06305,507.07,555.76
226.08365,507.96,554.26
226.10473,506.25,553.34
226.12371,508.77,553.62
226.14365,509.45,553.29
226.16372,508.06,550.38
226.18538,508.91,552.56
226.20477,507.69,551.65
226.22482,507.77,552.77
226.24578,509.82,552.05
226.26456,507.65,555.92
226.28547,508.02,556.64
226.30428,509.83,555.94
226.32468,508.41,556.90
226.34545,505.70,553.58
226.36476,507.86,551.48
226.38420,506.86,553.04
226.40407,505.84,551.89
226.42521,504.43,553.31
226.44438,501.17,553.87
226.46474,500.46,554.02
226.48437,501.07,555.43
226.50558,502.06,553.29
226.52555,500.95,552.64
226.54467,502.30,556.05
226.56581,501.32,555.60
226.58468,501.69,556.11
226.60590,498.88,556.82
226.62502,500.85,553.70
226.64419,499.97,551.54
226.66596,499.82,551.39
226.68414,497.69,552.88
226.70547,498.26,552.68
226.72444,500.36,549.49
226.74570,500.44,552.45
226.76496,499.95,551.18
226.78582,500.51,551.75
226.80470,500.35,553.71
226.82467,498.39,552.44
226.84471,497.89,551.88
226.86440,499.77,553.41
226.88545,499.01,554.37
226.90449,501.08,552.69
226.92442,500.91,552.47
226.94418,502.06,554.85
226.96462,500.03,557.62
226.98513,503.99,555.87
227.00452,502.09,557.18
227.02539,502.83,557.47
227.04535,501.32,556.00
227.06549,502.80,557.55
227.08424,501.03,555.50
227.10555,500.91,556.72
227.12424,502.61,552.63
227.14463,500.58,554.50
227.16558,500.46,554.74
227.18471,501.52,553.85
227.20529,499.71,554.39
227.22437,502.30,556.22
227.24556,502.79,554.82
227.26554,504.61,557.66
227.28496,504.50,553.93
227.30557,505.22,552.98
227.32462,503.52,556.72
227.34412,502.77,578.89
227.36429,508.94,613.61
227.38555,509.69,646.30
227.40432,509.82,684.26
227.42468,512.98,704.03
227.44406,511.13,707.02
227.46454,511.55,698.76
227.48575,507.02,684.26
227.50659,506.88,672.09
227.52625,504.94,655.61
227.54631,505.35,646.33
227.56541,506.43,633.15
227.58698,506.44,620.17
227.60631,505.63,611.14
227.62530,507.64,601.79
227.64647,506.27,598.61
227.66644,506.53,594.23
227.68511,506.68,588.01
227.70632,505.86,581.32
227.72675,502.64,580.81
227.74689,501.93,572.98
227.76625,506.70,576.72
227.78638,503.90,570.65
227.80674,503.82,571.11
227.82602,504.60,573.16
227.84667,503.41,575.48
227.86646,506.63,578.61
227.88593,506.80,578.92
227.90668,504.59,576.22
227.92642,503.43,575.99
227.94504,505.28,573.81
227.96582,504.65,573.77
227.98598,504.55,567.09
228.00596,504.61,564.50
228.02581,505.85,564.84
228.04560,503.55,561.50
228.06522,503.35,562.89
228.08549,502.75,561.66
228.10519,502.13,561.95
228.12765,503.22,565.47
228.14738,505.06,566.20
228.16759,506.21,567.36
228.18715,507.23,567.99
228.20695,507.54,564.63
228.22727,506.57,559.87
228.24655,506.27,562.77
228.26647,505.18,577.38
228.28649,508.22,596.18
228.30655,512.94,614.15
228.32715,515.28,624.25
228.34781,513.43,616.26
228.36740,509.84,585.50
228.38758,508.20,543.50
228.40635,503.28,499.51
228.42753,500.76,462.53
228.44875,497.05,434.28
228.46827,496.63,418.54
228.48792,496.79,409.38
228.50762,498.50,404.71
228.52708,495.18,408.05
228.54841,499.20,413.12
228.56710,498.24,418.65
228.58705,500.36,427.02
228.60820,500.99,438.74
228.62779,504.43,449.42
228.64799,504.36,463.04
228.66801,507.00,479.29
228.68837,508.18,488.50
228.70858,507.54,497.11
228.72754,506.74,505.85
228.74748,509.86,514.48
228.76870,511.67,516.81
228.78734,510.75,521.17
228.80730,512.29,528.18
228.82887,513.10,528.81
228.84704,511.61,532.00
228.86973,513.07,532.38
228.88934,513.91,537.96
228.90837,515.61,538.31
228.92883,514.81,537.21
228.94842,514.06,543.86
228.97035,518.03,540.19
228.99023,518.92,544.07
229.01165,520.17,546.81
229.03262,522.67,545.10
229.05220,521.35,545.60
229.07263,525.67,549.59
229.09144,523.60,550.40
229.11223,525.10,553.81
229.13176,525.92,551.80
229.15209,527.07,553.36
229.17278,527.34,556.31
229.19238,527.63,554.32
229.21367,529.91,555.82
229.23359,527.48,555.40
229.25290,529.40,556.04
229.27212,526.74,557.12
229.29307,527.52,558.16
229.31393,528.74,557.08
229.33366,528.69,558.57
229.35356,527.05,558.76
229.37327,528.71,558.31
229.39299,526.73,557.50
229.41279,530.26,558.83
229.43312,530.66,557.56
229.45324,530.50,557.41
229.47218,528.36,554.92
229.49332,529.91,555.27
229.51339,526.31,554.50
229.53378,528.66,554.69
229.55387,526.83,555.70
229.57360,526.71,555.84
229.59301,526.60,558.10
229.61254,526.58,557.75
229.63363,529.34,556.13
229.65302,530.34,560.22
229.67336,529.77,560.18
229.69331,529.56,558.51
229.71243,530.91,560.03
229.73350,528.95,558.87
229.75276,532.35,557.62
229.77274,531.44,559.67
229.79344,529.37,559.09
229.81213,530.63,555.54
229.83237,530.15,557.40
229.85365,531.10,557.36
229.87264,530.36,557.85
229.89336,528.34,556.59
229.91295,527.23,556.12
229.93226,529.01,559.86
229.95343,530.36,557.14
229.97209,529.69,557.02
229.99323,530.77,555.30
230.01365,528.83,555.86
230.03230,530.96,559.21
230.05314,531.14,561.08
230.07376,529.72,560.60
230.09350,527.50,556.63
230.11309,528.67,558.71
230.13384,529.59,561.59
230.15356,528.73,556.58
230.17369,526.09,559.03
230.19315,525.66,557.59
230.21350,525.28,556.70
230.23293,527.83,556.16
230.25327,528.33,559.61
230.27202,529.50,557.82
230.29386,526.36,555.81
230.31300,526.96,556.36
230.33220,526.49,557.00
230.35287,524.93,556.57
230.37213,528.33,556.12
230.39332,527.88,557.25
230.41227,530.26,556.01
230.43214,530.66,558.36
230.45279,530.20,555.76
230.47385,533.83,556.01
230.49308,531.92,558.58
230.51267,536.16,562.05
230.53285,532.81,559.65
230.55203,533.18,562.29
230.57267,531.10,559.39
230.59269,530.19,560.40
230.61319,529.68,562.67
230.63247,528.15,560.64
230.65397,531.87,568.75
230.67260,529.73,571.82
230.69264,531.91,577.06
230.71204,530.53,577.38
230.73389,533.27,577.62
230.75508,529.63,575.58
230.77553,530.20,576.13
230.79796,527.71,576.38
230.81662,528.68,573.94
230.83624,526.37,573.12
230.85666,525.86,571.89
230.87740,523.62,569.41
230.89784,522.91,570.38
230.91618,524.27,568.47
230.93663,526.69,567.20
230.95773,524.02,566.17
230.97719,522.31,565.59
230.99726,522.08,566.21
231.01746,520.89,563.82
231.03899,519.35,563.33
231.05831,519.95,560.97
231.08068,515.29,559.40
231.10031,513.83,560.86
231.12160,513.25,557.24
231.14020,509.12,558.51
231.16137,510.90,554.67
231.18107,509.06,552.95
231.20083,508.35,550.81
231.22006,508.60,548.16
231.24112,508.74,556.90
231.26053,506.92,579.91
231.28047,507.32,602.06
231.30262,508.81,627.06
231.32218,508.92,645.25
231.34278,505.01,652.23
231.36146,505.37,656.26
231.38180,506.65,653.35
231.40131,507.02,646.48
231.42106,507.68,643.88
231.44271,508.42,635.11
231.46204,509.24,629.01
231.48151,509.32,618.16
231.50216,508.24,605.90
231.52246,507.33,603.44
231.54241,505.40,599.14
231.56196,506.39,592.00
231.58209,503.37,589.79
231.60292,506.10,586.95
231.62185,506.49,580.77
231.64128,506.33,578.34
231.66279,506.04,578.54
231.68232,503.40,576.30
231.70221,504.87,576.93
231.72166,505.63,573.13
231.74177,504.83,575.77
231.76110,505.41,569.17
231.78289,503.42,566.15
231.80212,505.07,570.16
231.82184,506.57,569.87
231.84151,507.22,570.23
231.86204,504.84,565.63
231.88398,507.98,568.28
231.90278,507.13,564.64
231.92230,504.82,560.16
231.94275,503.17,559.04
231.96350,504.65,556.12
231.98350,506.45,553.50
232.00393,503.22,556.57
232.02282,505.44,554.02
232.04373,503.12,557.90
232.06207,505.65,553.93
232.08310,504.02,557.26
232.10338,502.46,555.73
232.12398,502.77,556.50
232.14251,505.42,573.34
232.16289,509.34,591.15
232.18371,516.07,610.23
232.20383,523.04,612.77
232.22498,524.23,597.96
232.24558,519.54,566.93
232.26463,512.05,525.01
232.28517,506.80,495.17
232.30407,502.61,465.39
232.32462,497.03,449.23
232.34403,496.08,437.18
232.36479,489.93,431.17
232.38429,489.42,429.79
232.40456,490.39,436.28
232.42539,488.64,439.17
232.44534,490.17,445.87
232.46475,492.24,456.56
232.48464,492.24,458.54
232.50450,496.35,463.98
232.52524,499.44,468.43
232.54446,500.69,477.64
232.56421,503.18,482.45
232.58543,504.23,491.56
232.60479,503.53,495.66
232.62551,502.68,505.04
232.64464,503.96,509.40
232.66545,502.31,515.44
232.68462,500.39,520.89
232.70524,500.33,525.87
232.72563,501.51,529.46
232.74458,501.95,533.64
232.76600,502.86,534.60
232.78474,504.53,537.97
232.80554,504.77,537.25
232.82503,502.84,539.34
232.84524,501.14,541.64
232.86526,499.43,543.89
232.88564,500.83,545.38
232.90400,502.21,549.24
232.92495,505.02,549.66
232.94585,506.07,548.31
232.96554,504.83,549.07
232.98599,508.29,547.82
233.00478,505.44,548.68
233.02442,504.87,549.78
233.04423,505.93,548.35
233.06404,507.04,549.51
233.08488,507.26,546.37
233.10446,504.45,546.51
233.12444,506.27,545.86
233.14468,504.74,549.02
233.16570,503.28,550.76
233.18419,505.63,551.23
233.20434,503.47,549.91
233.22578,503.72,553.03
233.24550,505.22,553.71
233.26528,502.71,553.74
233.28524,503.95,554.43
233.30414,503.34,556.62
233.32464,505.29,558.86
233.34445,503.10,555.92
233.36561,503.65,557.39
233.38423,505.76,556.03
233.40434,502.88,558.99
233.42408,504.42,554.45
233.44509,503.12,556.37
233.46584,505.39,556.24
233.48570,503.23,555.90
233.50459,507.32,556.96
233.52488,505.62,554.25
233.54537,504.02,555.70
233.56549,504.52,555.02
233.58587,506.59,555.04
233.60495,507.05,553.53
233.62565,508.05,553.48
233.64595,505.25,554.08
233.66539,504.07,553.27
233.68469,506.71,553.37
233.70509,506.64,550.39
233.72517,507.74,551.92
233.74547,506.20,553.32
233.76534,504.49,552.43
233.78523,504.70,552.49
233.80590,508.95,553.02
233.82497,507.18,552.92
233.84567,505.92,551.29
233.86417,507.60,553.82
233.88445,507.18,554.95
233.90403,506.11,553.89
233.92470,506.78,551.66
233.94476,509.99,554.12
233.96511,508.51,552.98
233.98447,505.91,553.33
234.00450,507.75,552.38
234.02472,506.73,555.36
234.04522,506.03,554.68
234.06492,506.77,555.37
234.08411,504.90,554.65
234.10470,507.77,554.95
234.12566,506.22,555.83
234.14535,505.34,556.60
234.16421,508.95,558.08
234.18437,506.02,554.66
234.20549,507.66,557.83
234.22503,506.33,557.35
234.24568,508.16,556.18
234.26451,507.55,558.13
234.28460,507.77,557.80
234.30452,507.32,554.85
234.32537,508.36,555.16
234.34577,506.52,556.10
234.36429,505.99,556.39
234.38422,509.57,556.18
234.40569,506.96,557.23
234.42431,506.65,556.49
234.44540,508.65,556.66
234.46547,506.60,556.18
234.48479,507.60,555.98
234.50465,505.51,556.51
234.52482,506.81,559.63
234.54413,507.53,555.95
234.56579,507.65,557.84
234.58496,508.19,557.04
234.60558,511.86,554.26
234.62421,511.47,553.15
234.64556,509.76,553.43
234.66474,512.29,556.69
234.68488,509.48,554.69
234.70485,509.08,553.65
234.72589,510.29,554.22
234.74557,507.29,552.26
234.76550,508.37,552.30
234.78436,507.08,553.52
234.80536,506.54,554.15
234.82598,509.60,555.16
234.84502,507.74,553.12
234.86550,509.09,552.77
234.88580,509.14,555.40
234.90499,510.69,553.00
234.92585,509.14,553.72
234.94451,510.30,555.27
234.96494,508.01,554.49
234.98536,509.52,556.23
235.00513,509.41,557.25
235.02561,510.10,554.64
235.04420,510.90,557.84
235.06501,511.51,556.28
235.08587,508.83,558.35
235.10536,509.39,556.15
235.12457,507.48,557.54
235.14506,509.52,556.98
235.16463,511.11,556.68
235.18475,508.02,552.84
235.20564,507.80,551.25
235.22438,508.43,551.17
235.24409,510.12,551.04
235.26533,506.73,550.22
235.28522,508.83,552.97
235.30446,509.73,565.69
235.32433,509.03,588.32
235.34439,512.11,614.14
235.36483,511.47,638.38
235.38533,515.06,657.56
235.40477,514.64,671.49
235.42541,517.65,671.30
235.44581,515.34,668.16
235.46485,513.69,662.14
235.48589,513.97,651.32
235.50553,514.87,639.36
235.52524,515.20,632.23
235.54409,514.57,623.02
235.56403,514.01,618.66
235.58472,512.73,610.82
235.60431,514.96,603.62
235.62454,514.43,598.32
235.64431,516.58,593.82
235.66503,516.77,590.59
235.68597,515.73,583.52
235.70448,515.78,580.32
235.72449,512.41,578.63
235.74442,515.78,574.91
235.76535,515.99,577.40
235.78493,515.78,574.59
235.80474,514.00,571.81
235.82593,515.64,571.64
235.84439,511.92,574.96
235.86586,511.66,572.18
235.88435,511.26,570.47
235.90572,510.90,570.16
235.92441,511.84,570.53
235.94538,509.25,565.80
235.96421,508.22,566.24
235.98560,510.67,569.08
236.00483,513.04,586.68
236.02426,516.26,608.10
236.04489,519.28,610.31
236.06533,522.40,590.33
236.08474,516.28,544.20
236.10587,514.51,501.09
236.12546,509.30,464.06
236.14550,507.69,438.88
236.16422,509.74,428.52
236.18551,508.70,424.44
236.20518,507.61,425.15
236.22579,506.27,427.35
236.24553,506.52,436.91
236.26526,507.96,444.58
236.28554,508.67,450.40
236.30482,508.75,460.25
236.32500,510.66,473.39
236.34455,510.13,479.28
236.36450,511.44,490.84
236.38439,510.99,496.16
236.40542,510.99,508.38
236.42521,511.18,512.71
236.44422,511.03,519.53
236.46497,511.66,524.92
236.48456,511.05,531.10
236.50437,512.76,533.73
236.52534,515.13,537.01
236.54538,515.21,537.16
236.56559,516.39,540.38
236.58499,513.86,544.96
236.60595,515.97,548.23
236.62554,515.60,546.78
236.64417,517.71,549.95
236.66409,519.00,548.71
236.68456,518.27,551.87
236.70491,517.97,552.09
236.72578,517.10,554.20
236.74584,515.45,555.68
236.76564,514.72,554.64
236.78452,513.39,553.23
236.80402,513.64,555.36
236.82502,513.80,556.30
236.84513,516.01,555.23
236.86491,515.57,553.67
236.88580,518.63,552.86
236.90597,519.54,556.03
236.92568,518.74,555.35
236.94464,517.70,553.95
236.96478,517.11,553.59
236.98428,518.54,557.77
237.00476,516.34,554.77
237.02526,516.08,556.33
237.04446,514.65,554.79
237.06528,513.43,556.86
237.08486,514.69,556.20
237.10597,514.07,557.25
237.12430,515.38,555.08
237.14437,516.33,558.07
237.16598,515.71,557.67
237.18492,516.39,557.84
237.20568,517.01,555.30
237.22456,516.12,557.44
237.24572,516.97,558.31
237.26454,518.94,557.52
237.28464,519.43,556.20
237.30476,520.96,555.91
237.32513,519.71,556.53
237.34545,521.47,553.38
237.36476,520.16,556.69
237.38421,520.88,555.16
237.40597,518.19,558.57
237.42425,519.75,559.36
237.44453,519.57,559.33
237.46563,518.71,556.22
237.48577,516.23,560.67
237.50545,517.90,558.60
237.52492,519.13,559.31
237.54483,517.54,560.23
237.56579,520.11,557.51
237.58424,520.38,555.24
237.60406,518.19,556.94
237.62412,517.53,559.20
237.64500,518.37,559.21
237.66546,519.89,560.43
237.68513,518.29,559.06
237.70506,521.15,560.33
237.72493,517.90,559.33
237.74551,518.80,557.78
237.76465,521.33,555.57
237.78495,518.03,557.79
237.80597,519.75,555.35
237.82581,516.60,557.28
237.84562,516.95,557.42
237.86525,520.46,558.07
237.88476,517.42,555.69
237.90460,518.07,558.38
237.92542,518.69,558.05
237.94535,519.83,561.44
237.96626,518.17,560.87
237.98699,518.36,559.22
238.00546,519.37,560.73
238.02559,522.30,558.92
238.04695,519.98,558.50
238.06644,523.26,561.16
238.08596,520.62,557.23
238.10600,521.41,556.51
238.12586,524.16,558.62
238.14695,525.07,557.38
238.16508,523.97,555.53
238.18586,527.68,554.87
238.20581,524.32,558.97
238.22693,527.93,558.20
238.24600,526.64,557.13
238.26560,526.90,555.58
238.28507,524.93,554.01
238.30506,523.83,556.25
238.32612,525.43,553.56
238.34501,522.85,556.81
238.36556,525.29,556.44
238.38592,524.06,556.01
238.40535,526.86,554.52
238.42609,525.26,557.00
238.44691,525.22,554.88
238.46603,524.08,554.18
238.48681,526.90,558.08
238.50553,524.29,557.20
238.52596,525.61,559.16
238.54549,524.66,557.12
238.56560,527.39,556.30
238.58656,525.62,557.09
238.60622,528.42,555.74
238.62584,527.69,558.33
238.64541,527.16,559.03
238.66503,529.05,556.85
238.68639,528.25,560.05
238.70564,528.35,557.75
238.72597,529.41,558.66
238.74690,525.99,562.54
238.76551,526.92,560.37
238.78572,526.45,559.83
238.80690,526.96,559.01
238.82574,525.61,559.69
238.84545,524.85,560.02
238.86510,526.50,558.90
238.88578,527.63,559.59
238.90537,523.46,561.66
238.93037,523.70,560.94
238.94525,524.99,561.72
238.96549,525.80,563.74
238.98507,527.17,563.48
239.00603,525.49,562.93
239.02576,525.32,563.89
239.04575,526.60,561.92
239.06588,525.11,560.62
239.08663,527.57,561.56
239.10661,527.88,560.71
239.12553,528.32,562.47
239.14580,528.39,561.58
239.16583,525.03,560.76
239.18698,527.44,559.86
239.20504,526.19,558.67
239.22629,526.49,560.27
239.24579,527.91,559.14
239.26508,526.44,560.11
239.28552,527.72,559.98
239.30566,527.68,558.78
239.32620,527.72,561.05
239.34606,525.42,561.96
239.36536,528.35,558.67
239.38512,524.08,562.59
239.40525,525.67,561.11
239.42656,529.12,558.59
239.44597,527.18,555.97
239.46688,527.14,558.62
239.48638,528.76,569.18
239.50681,528.83,593.66
239.52612,531.23,620.31
239.54554,533.07,651.03
239.56674,534.08,676.01
239.58594,535.85,700.17
239.60586,532.88,716.21
239.62560,533.56,721.21
239.64614,533.04,720.14
239.66611,529.88,705.90
239.68608,531.71,688.47
239.70511,528.65,668.14
239.72519,527.39,646.15
239.74665,527.25,630.46
239.76562,526.60,613.82
239.78627,527.16,596.57
239.80678,528.93,583.59
239.82628,528.65,575.97
239.84522,528.08,570.45
239.86629,526.06,570.37
239.88696,526.36,567.72
239.90508,523.81,563.23
239.92664,526.02,562.68
239.94517,523.80,563.62
239.96625,525.99,564.41
239.98590,527.66,565.46
240.00540,524.50,566.91
240.02635,526.80,565.38
240.04575,528.08,566.11
240.06562,530.33,566.06
240.08675,529.96,562.38
240.10601,530.72,562.73
240.12581,531.59,564.02
240.14601,532.37,563.53
240.16697,534.88,562.34
240.18546,532.29,559.52
240.20539,533.75,558.19
240.22509,530.69,558.96
240.24679,528.88,557.12
240.26563,530.95,559.28
240.28628,530.71,558.13
240.30687,530.37,558.28
240.32564,530.27,556.17
240.34690,530.79,558.21
240.36594,530.89,562.03
240.38527,530.12,560.30
240.40591,532.30,556.24
240.42594,530.42,540.82
240.44509,530.39,514.12
240.46685,532.55,481.05
240.48665,535.61,454.67
240.50575,535.32,436.49
240.52529,533.23,428.96
240.54517,532.14,424.47
240.56545,532.81,427.72
240.58616,532.94,430.82
240.60629,533.76,439.79
240.62536,533.47,448.95
240.64585,531.46,460.17
240.66658,530.85,469.95
240.68615,531.04,479.67
240.70651,530.83,488.12
240.72562,528.17,496.16
240.74603,531.67,504.45
240.76558,530.15,512.37
240.78541,528.45,517.99
240.80551,529.58,524.65
240.82599,531.09,529.90
240.84673,529.51,532.40
240.86660,530.95,538.45
240.88528,531.53,542.48
240.90663,528.75,543.79
240.92663,531.25,548.04
240.94608,529.82,547.71
240.96660,530.27,550.27
240.98674,530.35,552.11
241.00613,529.06,551.23
241.02558,528.14,552.13
241.04639,528.92,554.72
241.06682,527.47,555.42
241.08514,528.21,555.77
241.10540,529.99,557.38
241.12502,530.29,555.60
241.14559,528.07,555.96
241.16536,531.23,556.75
241.18611,531.40,557.52
241.20507,531.92,559.47
241.22685,528.68,557.54
241.24582,527.82,559.49
241.26509,527.48,559.59
241.28551,528.20,558.54
241.30644,531.46,559.40
241.32634,531.00,561.71
241.34616,531.02,560.56
241.36593,532.07,560.00
241.38582,530.87,562.93
241.40535,530.39,562.95
241.42779,531.59,561.38
241.44718,529.61,559.86
241.46733,526.96,561.63
241.48664,528.47,561.84
241.50602,529.74,561.55
241.52695,527.83,560.42
241.54667,529.40,561.19
241.56757,531.10,559.25
241.58735,530.05,563.29
241.60630,531.19,562.51
241.62663,531.11,561.55
241.64605,532.32,562.35
241.66736,533.60,564.47
241.68727,531.90,562.23
241.70658,533.23,562.07
241.72716,530.55,563.61
241.74621,531.08,564.29
241.76742,532.43,563.09
241.78732,534.19,562.96
241.80616,531.75,559.95
241.82760,532.33,560.76
241.84765,531.96,560.95
241.86822,531.50,561.25
241.88706,530.42,558.65
241.90814,530.64,560.83
241.92882,530.81,561.29
241.94775,529.83,559.12
241.96822,528.45,560.65
241.98893,532.00,560.75
242.00828,530.96,562.56
242.02856,527.48,563.02
242.04808,530.65,563.04
242.06906,528.00,560.93
242.08839,525.75,562.19
242.10994,526.08,559.16
242.12832,528.50,561.23
242.14900,525.89,560.55
242.16827,527.30,557.95
242.18862,528.23,558.78
242.20825,525.54,559.31
242.22929,528.78,559.04
242.24924,527.66,557.86
242.26980,526.24,558.92
242.28855,526.37,558.66
242.30982,526.13,561.24
242.32899,527.52,560.66
242.34960,528.67,561.91
242.36937,527.39,562.63
242.38829,528.12,559.25
242.40944,529.25,559.82
242.42955,525.52,559.70
242.44858,530.03,559.76
242.46890,526.75,560.00
242.48886,526.19,560.44
242.50892,528.89,559.13
242.52875,526.07,558.65
242.54957,524.74,559.63
242.56952,523.51,559.36
242.58963,524.60,558.52
242.60828,524.85,559.31
242.62887,525.86,559.21
242.64992,523.29,558.02
242.66925,522.70,559.55
242.68917,526.70,558.67
242.70874,526.14,559.68
242.72846,523.88,562.24
242.74993,524.70,559.85
242.77048,523.30,561.32
242.78911,523.71,562.06
242.80934,523.56,562.58
242.82990,521.23,559.76
242.85069,519.78,561.97
242.87003,521.56,561.00
242.89040,520.59,563.16
242.91045,520.95,564.04
242.92927,518.76,564.15
242.95086,521.58,561.74
242.97058,519.20,562.95
242.99002,521.14,562.30
243.01004,519.26,556.97
243.03000,519.03,559.64
243.04972,522.07,557.15
243.06914,519.61,557.49
243.08961,520.23,558.83
243.11059,521.22,560.73
243.12971,522.83,559.26
243.14921,519.40,562.35
243.16941,520.86,557.45
243.18932,517.07,560.00
243.20905,516.27,558.75
243.23066,518.93,557.29
243.25095,519.03,554.96
243.27010,516.77,558.59
243.28933,520.79,556.91
243.30959,521.47,555.48
243.32942,518.06,553.99
243.35060,517.60,554.46
243.36962,517.80,555.90
243.39047,517.31,559.52
243.40966,517.23,574.02
243.43075,521.49,601.98
243.45018,519.70,634.11
243.46936,519.55,665.51
243.48963,522.63,693.62
243.51087,521.16,709.67
243.52949,524.66,721.52
243.54918,524.58,719.47
243.56908,523.84,710.76
243.59032,522.42,698.42
243.61007,523.43,683.15
243.63015,520.40,663.72
243.65028,520.73,651.07
243.66960,520.86,637.49
243.69075,521.83,626.77
243.70959,520.76,614.82
243.73004,521.14,609.21
243.75017,519.20,603.35
243.76944,519.28,593.31
243.79073,516.65,588.11
243.81072,515.60,581.00
243.83045,516.54,578.04
243.84987,516.69,576.50
243.86904,517.76,574.43
243.88990,516.24,574.71
243.91195,514.07,571.52
243.93012,516.13,569.48
243.95177,513.62,566.18
243.97019,510.68,563.35
243.99052,512.63,566.40
244.01006,513.67,564.53
244.03024,513.21,562.48
244.05072,514.45,562.40
244.07165,512.80,563.47
244.09165,512.81,563.11
244.11086,512.13,561.71
244.13013,512.86,562.13
244.15085,510.30,565.00
244.17105,513.79,562.54
244.19147,511.57,549.81
244.21063,512.08,524.32
244.23137,511.23,489.65
244.25122,510.15,462.31
244.27186,511.33,445.47
244.29038,507.28,439.15
244.31076,509.74,438.24
244.33178,508.08,446.10
244.35165,506.35,451.08
244.37021,507.67,460.88
244.39041,508.81,465.51
244.41034,506.39,478.05
244.43092,506.24,485.25
244.45053,507.74,498.99
244.47186,507.60,505.05
244.49122,509.07,507.48
244.51121,507.22,511.19
244.53094,506.24,515.08
244.55158,509.58,518.95
244.57138,506.39,524.60
244.59180,505.89,527.74
244.61159,508.81,531.13
244.63112,508.02,534.52
244.65136,507.01,537.16
244.67171,507.99,542.71
244.69177,507.69,543.23
244.71159,510.05,546.37
244.73087,508.83,550.10
244.75070,510.51,550.09
244.77070,508.44,554.25
244.79002,508.31,554.26
244.81155,509.24,553.42
244.83173,507.51,554.96
244.85172,509.97,553.29
244.87117,507.30,554.70
244.89023,506.79,558.08
244.91053,508.71,556.59
244.93056,505.55,555.31
244.95091,505.48,555.69
244.97054,507.51,555.12
244.99163,508.62,557.29
245.01098,508.49,556.08
245.03075,507.87,560.11
245.05136,508.01,559.72
245.07010,505.87,560.18
245.09093,508.62,558.31
245.11131,505.49,559.03
245.13087,508.16,558.63
245.15110,506.55,559.93
245.17189,507.62,560.06
245.19167,509.79,561.43
245.21118,507.63,559.79
245.23181,506.01,559.22
245.25163,504.51,557.52
245.27020,505.65,560.42
245.29066,507.07,558.39
245.31012,505.87,560.05
245.33135,508.73,560.74
245.35085,506.96,557.70
245.37200,507.61,559.14
245.39046,506.42,557.49
245.41024,507.14,558.56
245.43052,507.43,556.08
245.45114,506.59,559.49
245.47054,505.87,559.36
245.49132,507.30,558.84
245.51095,509.20,558.37
245.53085,508.24,560.43
245.55055,509.41,560.96
245.57048,506.90,559.53
245.59196,504.84,560.23
245.61060,504.79,557.79
245.63106,504.62,559.80
245.65179,505.15,560.29
245.67133,506.63,558.44
245.69190,505.69,558.33
245.71187,504.29,559.89
245.73124,506.12,558.23
245.75068,504.34,560.39
245.77166,506.07,561.28
245.79179,506.91,559.07
245.81041,506.02,560.17
245.83136,506.68,557.59
245.85163,505.88,555.48
245.87183,508.52,558.22
245.89000,505.21,558.72
245.91006,504.64,555.30
245.93099,507.17,556.81
245.95030,508.38,556.70
245.97079,506.87,557.27
245.99180,507.87,556.20
246.01124,507.77,557.65
246.03137,510.40,556.89
246.05019,505.80,557.54
246.07025,508.43,560.28
246.09181,508.51,558.92
246.11010,507.48,559.28
246.13023,507.40,556.84
246.15075,505.63,557.25
246.17165,506.37,557.39
246.19021,503.69,555.68
246.21123,504.31,557.36
246.23060,504.80,555.52
246.25172,505.70,553.98
246.27179,503.96,554.04
246.29104,506.55,553.85
246.31116,506.51,556.94
246.33060,506.25,556.55
246.35152,504.02,557.95
246.37043,505.24,560.19
246.39019,506.00,558.93
246.41031,506.71,558.65
246.43017,505.58,557.36
246.45157,507.25,557.77
246.47041,506.84,559.70
246.49022,508.08,559.02
246.51079,507.90,558.97
246.53073,508.05,557.77
246.55062,507.02,556.94
246.57002,506.79,559.55
246.59053,505.43,557.65
246.61091,505.06,556.75
246.63027,504.18,556.97
246.65044,503.88,557.49
246.67082,502.49,559.63
246.69170,502.27,559.23
246.71035,502.27,559.56
246.73159,500.20,555.66
246.75110,502.16,559.11
246.77003,503.19,559.83
246.79154,503.93,559.15
246.81145,502.45,558.95
246.83044,502.53,559.49
246.85160,502.66,556.79
246.87107,505.49,556.33
246.89046,504.93,557.44
246.91093,504.66,555.92
246.93016,507.16,555.57
246.95062,505.45,559.57
246.97029,506.59,571.99
246.99131,505.27,600.70
247.01192,506.92,632.88
247.03183,505.25,665.11
247.05045,505.85,690.94
247.07149,501.67,705.94
247.09051,501.24,707.21
247.11093,499.76,702.78
247.13159,497.06,691.84
247.15095,497.82,682.59
247.17196,495.96,667.21
247.19216,496.95,654.31
247.21177,498.78,642.75
247.23161,495.28,630.66
247.25149,500.42,621.37
247.27111,499.15,612.47
247.29274,500.06,606.18
247.31195,499.27,598.53
247.33239,499.28,592.54
247.35148,504.70,586.85
247.37262,502.62,584.23
247.39104,505.63,578.05
247.41149,505.04,576.69
247.43222,504.84,572.15
247.45196,508.47,570.25
247.47266,505.09,568.51
247.49207,506.96,567.75
247.51264,507.20,566.85
247.53258,509.29,568.10
247.55273,507.55,567.12
247.57273,508.63,567.91
247.59165,507.59,564.32
247.61187,506.92,558.35
247.63259,509.20,542.71
247.65110,508.14,521.65
247.67145,512.61,498.45
247.69216,508.84,471.70
247.71194,512.04,450.82
247.73271,509.14,430.07
247.75228,508.91,416.05
247.77285,504.61,410.47
247.79216,504.03,409.80
247.81222,505.10,415.43
247.83273,503.18,424.54
247.85183,502.35,430.83
247.87230,503.71,440.12
247.89148,503.88,452.88
247.91293,503.27,462.84
247.93293,501.65,475.16
247.95117,501.83,481.72
247.97162,501.24,492.83
247.99147,504.43,499.12
248.01227,502.68,504.40
248.03296,504.77,513.01
248.05230,503.15,516.56
248.07232,501.97,523.25
248.09237,502.35,528.17
248.11148,501.86,533.97
248.13273,501.71,537.04
248.15139,502.04,541.50
248.17181,501.23,540.58
248.19232,501.38,545.73
248.21153,502.69,544.79
248.23167,503.14,546.78
248.25227,503.35,548.68
248.27299,503.68,551.85
248.29207,503.53,553.14
248.31257,503.47,554.73
248.33210,504.52,551.91
248.35133,506.65,553.42
248.37226,505.31,553.57
248.39166,503.52,554.55
248.41268,506.05,553.29
248.43232,504.49,555.19
248.45207,504.74,555.36
248.47183,503.18,554.64
248.49148,503.27,554.53
248.51281,503.78,554.70
248.53121,502.65,554.27
248.55171,504.77,551.66
248.57186,504.52,552.70
248.59283,506.05,550.80
248.61264,506.14,551.11
248.63294,504.50,552.42
248.65159,505.97,551.92
248.67152,504.70,551.03
248.69162,504.11,552.89
248.71205,502.25,553.48
248.73259,501.93,556.32
248.75128,503.10,555.37
248.77142,502.71,553.68
248.79127,503.03,553.91
248.81256,503.51,554.10
248.83120,503.31,553.94
248.85256,503.62,553.10
248.87213,505.48,553.54
248.89170,504.93,553.89
248.91222,504.24,553.76
248.93175,504.06,555.91
248.95292,501.54,557.54
248.97210,505.17,560.16
248.99179,503.31,561.06
249.01231,504.35,560.19
249.03208,503.95,557.74
249.05275,505.06,559.11
249.07118,501.16,560.13
249.09191,504.31,560.21
249.11207,504.44,557.52
249.13127,506.32,556.65
249.15126,503.48,557.05
249.17258,506.16,555.44
249.19147,504.70,554.12
249.21109,505.94,557.38
249.23244,504.01,557.54
249.25200,504.70,554.60
249.27236,503.04,556.58
249.29166,506.33,554.77
249.31293,506.76,555.72
249.33188,507.07,554.32
249.35118,504.79,553.64
249.37283,504.20,555.09
249.39292,504.03,554.78
249.41134,502.37,555.31
249.43186,505.25,554.61
249.45237,502.45,556.96
249.47133,503.55,553.13
249.49222,505.92,555.93
249.51109,502.01,555.22
249.53241,503.00,551.88
249.55260,502.70,551.06
249.57163,502.13,554.49
249.59170,502.77,552.90
249.61258,503.06,553.92
249.63219,501.77,552.32
249.65201,504.46,549.53
249.67167,502.88,550.71
249.69108,502.90,550.79
249.71138,501.49,553.78
249.73294,504.51,550.29
249.75256,503.42,551.80
249.77215,505.05,552.69
249.79184,503.55,551.13
249.81110,505.65,552.35
249.83227,505.57,550.90
249.85198,503.74,551.18
249.87172,505.70,553.78
249.89227,502.84,553.02
249.91157,506.56,554.05
249.93259,505.56,552.45
249.95121,506.77,551.32
249.97197,507.58,551.64
249.99223,507.29,551.43
250.01167,503.80,550.21
250.03298,505.47,550.60
250.05156,506.10,549.88
250.07270,505.70,548.13
250.09224,504.84,549.01
250.11157,505.18,548.01
250.13182,506.09,556.56
250.15280,507.97,573.01
250.17267,507.79,598.22
250.19160,510.01,630.82
250.21182,511.56,657.93
250.23167,510.82,675.48
250.25195,511.32,681.46
250.27278,509.31,681.88
250.29293,512.71,678.93
250.31122,509.99,669.03
250.33112,509.00,657.24
250.35161,506.22,645.17
250.37290,507.63,633.44
250.39283,507.19,624.58
250.41147,507.66,613.29
250.43110,506.93,605.00
250.45122,508.01,601.06
250.47275,504.66,592.19
250.49246,506.17,589.63
250.51164,506.92,582.22
250.53128,504.30,579.11
250.55277,505.68,577.29
250.57197,504.46,571.54
250.59114,504.76,573.59
250.61138,506.64,572.07
250.63117,507.50,567.96
250.65282,505.21,568.08
250.67153,505.58,566.76
250.69107,504.50,565.09
250.71186,506.04,565.59
250.73268,507.21,564.97
250.75114,508.05,574.08
250.77174,510.91,586.69
250.79268,510.04,585.59
250.81175,511.32,568.64
250.83274,511.09,537.15
250.85225,509.04,496.04
250.87290,510.81,466.35
250.89110,505.20,445.42
250.91263,506.21,434.38
250.93165,502.67,432.60
250.95127,501.82,432.17
250.97202,502.90,435.64
250.99107,501.86,441.44
251.01235,501.76,449.11
251.03260,499.74,459.63
251.05123,503.39,464.84
251.07288,500.31,474.90
251.09148,501.50,484.91
251.11299,503.60,493.82
251.13145,503.38,498.42
251.15196,503.63,506.18
251.17150,501.92,511.59
251.19172,504.44,518.68
251.21300,507.61,524.24
251.23219,504.69,525.84
251.25120,504.10,529.60
251.27151,505.65,536.36
251.29148,503.59,534.45
251.31276,503.59,537.46
251.33137,504.53,540.00
251.35206,506.63,539.84
251.37169,504.57,544.64
251.39283,508.14,546.40
251.41168,508.82,547.65
251.43260,505.98,549.81
251.45181,507.92,549.33
251.47181,507.52,552.89
251.49197,510.14,550.12
251.51156,508.91,551.57
251.53145,506.91,551.28
251.55265,506.24,553.71
251.57184,507.98,553.74
251.59173,505.95,552.31
251.61166,508.76,553.25
251.63135,507.82,552.59
251.65251,507.61,552.64
251.67125,509.47,553.33
251.69152,505.85,552.29
251.71264,508.43,551.80
251.73166,508.69,552.85
251.75253,508.65,551.41
251.77152,507.21,552.56
251.79167,507.01,553.61
251.81137,505.95,553.41
251.83152,508.26,554.60
251.85227,509.78,552.52
251.87104,508.02,554.20
251.89250,511.59,555.15
251.91227,509.38,555.57
251.93224,509.13,553.38
251.95288,508.48,555.26
251.97292,510.43,555.28
251.99164,511.42,554.89
252.01260,509.68,557.69
252.03249,510.22,556.29
252.05205,508.10,558.38
252.07132,508.18,556.98
252.09182,510.13,557.70
252.11190,510.84,557.16
252.13267,509.16,555.66
252.15143,509.11,557.82
252.17281,510.81,555.10
252.19210,509.52,557.04
252.21251,509.56,557.24
252.23283,512.39,558.16
252.25190,510.49,558.24
252.27160,511.13,556.14
252.29180,512.88,556.68
252.31285,514.33,558.90
252.33211,511.80,557.65
252.35124,513.63,556.41
252.37253,513.50,555.39
252.39122,511.23,554.46
252.41240,512.89,553.00
252.43199,512.86,555.30
252.45185,508.64,555.65
252.47144,510.83,555.95
252.49280,511.87,553.71
252.51274,510.15,552.99
252.53146,512.30,553.89
252.55171,511.68,557.21
252.57279,512.81,553.38
252.59113,514.66,554.31
252.61174,513.81,553.73
252.63119,515.73,554.44
252.65224,515.49,555.91
252.67277,516.07,552.46
252.69291,514.44,556.28
252.71170,513.74,555.29
252.73274,514.25,555.40
252.75116,514.86,554.32
252.77133,516.24,553.59
252.79221,515.99,556.38
252.81216,512.90,555.22
252.83161,513.77,554.58
252.85142,514.92,553.35
252.87238,517.61,555.98
252.89122,516.08,554.75
252.91178,517.95,555.52
252.93252,515.26,557.37
252.95288,516.19,558.27
252.97165,514.46,555.55
252.99272,515.59,556.24
253.01231,515.10,560.14
253.03236,513.29,559.89
253.05243,513.91,559.89
253.07191,517.79,557.83
253.09284,516.29,559.62
253.11124,514.27,555.04
253.13300,515.49,556.48
253.15171,516.11,555.19
253.17227,515.65,555.66
253.19253,514.85,556.66
253.21288,517.39,557.33
253.23166,512.89,557.45
253.25290,512.03,558.35
253.27150,511.01,554.76
253.29210,512.77,553.25
253.31157,513.55,553.42
253.33117,512.70,555.25
253.35156,513.34,554.81
253.37219,514.15,554.79
253.39220,517.54,557.22
253.41296,516.28,557.61
253.43192,514.93,557.23
253.45193,514.61,557.19
253.47273,514.43,557.04
253.49251,517.12,559.50
253.51222,516.53,557.31
253.53282,516.43,559.95
253.55237,517.04,556.80
253.57042,515.53,558.54
253.59118,514.85,558.40
253.61257,515.65,559.46
253.63114,516.02,557.18
253.65265,517.88,557.55
253.67132,515.15,555.39
253.69194,515.89,556.26
253.71215,514.49,554.08
253.73218,515.97,555.64
253.75274,512.67,573.97
253.77177,510.58,593.16
253.79225,510.25,624.75
253.81131,506.62,645.70
253.83296,504.36,664.45
253.85267,502.59,674.17
253.87201,502.20,674.83
253.89158,502.36,672.50
253.91202,506.86,665.98
253.93218,508.41,658.14
253.95284,509.95,649.88
253.97163,511.57,639.43
253.99194,513.19,632.65
254.01269,517.50,624.71
254.03242,520.43,620.42
254.05263,522.60,614.65
254.07281,522.39,614.26
254.09153,523.96,610.37
254.11265,525.41,600.00
254.13106,524.13,597.01
254.15111,523.99,596.05
254.17182,526.23,594.67
254.19189,525.76,585.39
254.21216,524.50,580.83
254.23137,525.67,578.72
254.25170,523.34,577.23
254.27150,523.66,576.04
254.29158,521.73,571.50
254.31266,520.98,571.09
254.33143,522.58,571.76
254.35260,523.09,576.16
254.37111,522.29,584.82
254.39157,524.53,595.48
254.41155,529.84,603.66
254.43248,528.70,599.15
254.45179,525.45,577.36
254.47246,524.63,541.19
254.49190,523.07,508.07
254.51123,522.55,474.21
254.53158,524.00,450.04
254.55248,522.23,436.59
254.57283,523.14,425.73
254.59243,522.57,424.09
254.61195,520.92,424.51
254.63214,519.79,430.22
254.65146,519.56,435.24
254.67293,520.26,444.96
254.69230,518.24,454.93
254.71281,518.76,462.08
254.73139,519.37,471.19
254.75220,519.70,483.31
254.77163,519.87,492.18
254.79139,517.06,497.15
254.81251,518.18,504.52
254.83228,517.66,510.25
254.85283,517.93,519.29
254.87271,520.91,523.45
254.89123,518.68,526.73
254.91176,519.64,531.81
254.93211,522.98,536.18
254.95240,520.05,540.44
254.97157,520.47,543.70
254.99173,521.27,546.21
255.01153,520.16,547.99
255.03292,521.85,549.15
255.05291,519.74,551.67
255.07147,519.38,553.46
255.09104,523.88,553.92
255.11119,523.48,554.84
255.13204,525.55,553.36
255.15131,525.29,554.81
255.17185,525.25,553.38
255.19141,528.54,555.91
255.21143,528.93,555.38
255.23264,526.98,555.39
255.25152,527.28,558.30
255.27171,527.00,555.78
255.29299,527.10,557.74
255.31120,526.24,558.07
255.33198,524.42,556.85
255.35179,525.24,555.86
255.37281,524.57,557.07
255.39297,527.99,556.48
255.41196,525.20,555.67
255.43267,528.08,554.65
255.45225,525.71,557.66
255.47265,526.58,555.81
255.49120,525.11,559.18
255.51130,524.65,557.28
255.53245,526.80,559.49
255.55279,525.81,560.43
255.57122,526.13,558.63
255.59265,526.22,559.70
255.61226,527.52,560.27
255.63233,525.37,559.94
255.65284,524.38,558.90
255.67211,528.01,562.55
255.69112,524.03,558.65
255.71146,527.45,560.77
255.73165,525.69,561.15
255.75151,524.92,560.50
255.77164,525.19,558.99
255.79132,527.98,557.50
255.81136,527.55,558.64
255.83175,525.23,559.68
255.85267,524.32,558.79
255.87179,525.22,557.95
255.89221,526.46,559.94
255.91217,525.96,558.69
255.93269,523.52,557.89
255.95184,524.87,560.98
255.97252,524.88,559.44
255.99205,523.99,558.01
256.01158,523.00,559.23
256.03215,526.97,557.84
256.05259,526.02,556.42
256.07215,522.81,558.43
256.09025,525.15,560.07
256.11155,523.46,559.66
256.13114,526.39,558.47
256.15208,524.73,555.43
256.17241,527.63,557.01
256.19298,525.40,557.06
256.21235,526.35,559.32
256.23273,525.33,557.50
256.25178,528.17,560.41
256.27299,524.30,556.83
256.29189,524.41,556.30
256.31220,527.57,559.02
256.33262,527.33,558.45
256.35239,527.42,558.75
256.37273,526.51,559.87
256.39289,527.39,560.63
256.41279,527.85,557.52
256.43283,524.84,557.17
256.45172,525.98,558.05
256.47167,526.86,555.28
256.49298,525.98,556.99
256.51190,525.70,554.94
256.53170,525.02,552.94
256.55171,526.48,554.55
256.57073,526.03,553.21
256.59120,525.49,556.16
256.61299,525.10,552.92
256.63261,525.23,556.48
256.65220,525.15,559.82
256.67171,528.12,559.96
256.69253,528.31,561.16
256.71182,529.44,560.36
256.73144,530.69,558.37
256.75204,529.24,558.83
256.77128,527.92,560.18
256.79134,530.63,557.47
256.81248,529.86,559.49
256.83178,528.74,560.54
256.85238,527.62,558.86
256.87140,528.14,567.67
256.89224,526.75,584.11
256.91195,526.13,611.05
256.93280,527.71,636.79
256.95118,527.49,653.72
256.97138,528.87,665.91
256.99136,529.20,671.24
257.01168,531.59,667.79
257.03155,530.76,661.04
257.05289,534.37,653.31
257.07028,534.60,647.96
257.09125,531.27,638.41
257.11253,529.52,629.60
257.13236,528.83,618.95
257.15194,529.40,614.17
257.17115,527.20,608.27
257.19239,528.58,600.51
257.21122,528.16,596.10
257.23160,529.48,590.73
257.25227,529.51,592.81
257.27297,531.76,593.68
257.29107,535.39,597.19
257.31292,535.21,602.84
257.33254,533.63,598.76
257.35286,535.57,598.97
257.37129,531.77,597.43
257.39146,533.15,594.10
257.41289,531.67,587.31
257.43269,532.45,584.10
257.45249,534.56,582.83
257.47239,536.82,579.52
257.49144,532.96,580.66
257.51210,532.00,577.08
257.53143,531.84,578.75
257.55043,530.98,578.49
257.57198,530.80,566.02
257.59124,524.64,536.01
257.61181,523.51,501.51
257.63137,518.86,474.54
257.65141,520.38,455.36
257.67267,515.32,445.97
257.69104,517.37,441.77
257.71174,517.16,444.17
257.73108,519.12,451.82
257.75039,522.25,456.86
257.77174,520.00,464.82
257.79185,519.70,475.35
257.81246,521.48,481.91
257.83028,524.65,487.90
257.85299,526.63,496.18
257.87296,527.74,505.79
257.89218,527.13,514.34
257.91190,529.38,518.99
257.93178,531.11,522.86
257.95236,528.70,527.12
257.97233,528.28,534.08
257.99176,527.29,540.16
258.01238,527.10,541.86
258.03132,530.54,543.86
258.05244,527.01,546.95
258.07222,525.80,547.90
258.09171,526.47,551.64
258.11251,527.01,551.70
258.13291,525.98,554.78
258.15107,529.27,554.78
258.17104,529.72,557.03
258.19131,530.03,557.92
258.21279,529.96,558.37
258.23264,528.96,558.52
258.25217,529.48,557.04
258.27288,531.52,558.55
258.29269,527.89,559.66
258.31134,529.20,559.25
258.33246,527.35,558.70
258.35267,528.68,558.36
258.37215,530.48,561.15
258.39198,529.59,560.82
258.41263,532.04,559.16
258.43203,533.27,562.23
258.45289,531.65,562.43
258.47148,534.28,562.83
258.49131,536.27,562.06
258.51234,534.03,563.10
258.53147,532.22,562.64
258.55133,532.01,560.71
258.57246,530.28,560.87
258.59233,530.25,562.01
258.61172,530.06,563.50
258.63251,529.19,560.06
258.65121,528.45,560.16
258.67275,527.11,562.25
258.69246,528.47,560.84
258.71240,529.81,562.53
258.73229,529.14,564.28
258.75186,528.15,562.12
258.77273,529.78,562.45
258.79226,530.91,564.19
258.81179,530.73,563.74
258.83300,529.27,563.52
258.85055,530.83,563.00
258.87261,527.44,561.59
258.89134,527.67,564.37
258.91271,525.13,564.43
258.93284,528.51,563.15
258.95232,528.30,565.13
258.97133,527.81,561.52
258.99360,526.19,563.79
259.01244,524.63,561.52
259.03135,526.87,561.89
259.05267,524.32,563.91
259.07202,525.77,563.73
259.09385,523.76,562.30
259.11204,522.59,560.16
259.13203,522.00,560.51
259.15374,525.38,560.90
259.17190,525.45,562.50
259.19291,523.69,560.89
259.21206,525.60,561.42
259.23301,524.30,562.09
259.25400,527.55,560.52
259.27226,526.94,560.56
259.29318,523.55,560.99
259.31322,523.23,562.83
259.33223,525.10,563.27
259.35341,523.85,564.53
259.37344,524.07,563.88
259.39284,524.06,562.74
259.41380,524.89,563.03
259.43308,522.97,565.10
259.45274,523.33,560.70
259.47231,522.26,561.21
259.49279,523.81,563.39
259.51336,526.00,562.38
259.53272,522.57,563.10
259.55376,527.04,562.06
259.57247,522.93,561.29
259.59301,524.79,561.10
259.61297,525.30,562.15
259.63226,525.83,561.74
259.65250,522.97,561.16
259.67203,525.06,561.55
259.69329,526.29,562.58
259.71235,525.77,560.74
259.73210,525.23,565.36
259.75320,525.64,561.78
259.77264,525.60,564.50
259.79220,526.56,563.94
259.81217,526.62,563.79
259.83109,528.37,562.59
259.85313,526.78,561.37
259.87245,523.70,560.45
259.89222,524.49,561.90
259.91461,520.20,560.74
259.93536,520.46,559.68
259.95528,520.69,561.81
259.97559,520.13,559.63
259.99525,517.33,559.28
260.01510,516.29,558.23
260.03490,518.87,560.47
260.05422,519.94,556.00
260.07563,518.53,555.45
260.09487,520.15,556.07
260.11368,518.57,555.76
260.13370,519.10,553.50
260.15439,517.52,550.65
260.17402,516.87,552.73
260.19420,516.06,553.47
260.21514,518.55,550.62
260.23548,513.86,550.07
260.25512,515.75,550.48
260.27563,517.02,565.09
260.29484,515.03,585.08
260.31569,517.65,612.43
260.33444,518.36,632.12
260.35408,520.02,649.70
260.37464,519.41,662.60
260.39470,519.12,661.05
260.41448,517.60,659.48
260.43465,517.90,653.18
260.45437,518.48,649.24
260.47471,518.16,646.64
260.49441,517.24,638.68
260.51430,517.88,634.18
260.53421,521.23,622.52
260.55493,518.60,617.03
260.57376,520.00,610.06
260.59603,516.71,600.63
260.61629,514.17,596.28
260.63480,513.97,591.49
260.65535,514.35,588.34
260.67670,511.12,583.53
260.69455,514.36,582.70
260.71565,509.41,578.94
260.73472,509.63,575.07
260.75504,508.98,574.01
260.77427,510.51,575.29
260.79425,509.06,572.76
260.81596,512.12,568.41
260.83496,511.10,568.23
260.85571,513.68,566.68
260.87578,513.03,566.74
260.89487,510.60,565.42
260.91531,508.52,564.15
260.93581,508.89,562.35
260.95515,508.56,563.60
260.97533,508.80,562.29
260.99460,508.53,562.66
261.01506,509.90,559.55
261.03529,509.49,562.69
261.05502,509.26,565.70
261.07538,510.40,564.87
261.09522,507.74,561.81
261.11503,503.48,542.86
261.13555,500.58,509.61
261.15427,498.99,481.07
261.17500,498.77,456.91
261.19627,496.62,443.75
261.21470,498.79,440.68
261.23445,498.64,440.50
261.25438,498.69,445.95
261.27618,498.59,449.35
261.29507,501.52,457.78
261.31510,501.56,469.39
261.33493,502.39,475.94
261.35523,504.03,483.52
261.37534,499.86,491.61
261.39523,502.47,500.60
261.41521,503.26,507.50
261.43504,506.80,515.32
261.45423,506.56,521.85
261.47544,506.64,524.96
261.49518,507.78,530.19
261.51611,505.56,531.90
261.53522,505.53,537.62
261.55515,508.37,543.17
261.57579,507.03,545.59
261.59522,506.48,545.58
261.61689,508.55,545.35
261.63537,508.06,550.80
261.65452,507.04,551.38
261.67534,510.06,551.89
261.69527,511.25,552.08
261.71576,508.16,553.11
261.73536,508.30,552.94
261.75531,509.03,553.41
261.77425,507.15,552.82
261.79516,506.72,555.33
261.81595,506.28,555.43
261.83660,507.29,555.56
261.85530,504.36,555.74
261.87510,503.89,556.91
261.89572,502.97,558.07
261.91486,507.46,557.97
261.93600,503.97,557.24
261.95413,507.23,556.11
261.97488,503.87,558.47
261.99599,503.80,556.28
262.01649,504.04,555.80
262.03615,504.94,559.10
262.05415,504.24,558.68
262.07529,505.06,557.47
262.09649,504.13,558.24
262.11608,503.40,555.73
262.13661,503.23,556.48
262.15545,503.31,556.66
262.17690,500.41,556.78
262.19682,503.38,556.37
262.21639,503.30,558.29
262.23783,502.17,558.42
262.25632,500.07,558.83
262.27755,502.59,556.45
262.29625,501.71,558.44
262.31613,500.81,554.96
262.33696,503.08,558.66
262.35629,504.47,556.56
262.37669,504.79,554.55
262.39695,502.64,553.37
262.41815,502.72,552.61
262.43687,502.99,553.93
262.45653,504.30,555.55
262.47664,505.00,553.51
262.49842,503.76,553.49
262.51778,501.21,552.01
262.53776,501.88,554.58
262.55768,503.07,550.74
262.57616,504.62,552.92
262.59769,503.57,552.59
262.61882,503.47,551.56
262.63833,501.06,552.22
262.65807,501.38,554.64
262.67701,503.31,555.28
262.69868,502.23,554.83
262.71699,503.48,553.70
262.73628,504.52,553.90
262.75781,504.80,552.09
262.77797,503.56,553.24
262.79745,503.23,551.01
262.81790,501.54,555.13
262.83766,507.69,556.28
262.85759,518.04,566.33
262.87715,537.35,580.67
262.89674,563.86,595.59
262.91709,588.37,611.35
262.93620,609.75,614.71
262.95603,623.07,604.89
262.97628,620.58,585.02
262.99720,618.26,563.96
263.01666,608.04,541.46
263.03638,592.45,520.42
263.05701,572.10,496.51
263.07754,552.15,481.54
263.09666,530.72,467.68
263.11765,505.49,457.42
263.13672,486.81,450.95
263.15653,471.99,449.01
263.17790,459.48,451.64
263.19822,452.59,462.53
263.21805,450.38,469.11
263.23718,456.92,481.17
263.25763,475.64,492.04
263.27849,502.90,506.60
263.29849,525.87,518.60
263.31901,552.17,532.97
263.33823,562.64,543.43
263.35838,566.49,553.27
263.37983,565.48,557.38
263.39943,559.95,559.16
263.41990,555.02,563.89
263.43918,547.98,567.08
263.46142,542.99,573.48
263.47925,533.16,575.90
263.49973,505.00,575.59
263.51949,471.38,562.87
263.53934,437.25,546.34
263.56000,405.22,530.80
263.58056,372.24,512.85
263.60179,352.41,500.58
263.62043,338.85,489.66
263.64176,345.31,484.23
263.66154,353.05,486.65
263.68035,369.65,493.31
263.70033,386.88,499.25
263.72165,407.84,505.37
263.74236,427.52,514.41
