Program Time [s],data 0,data 1
222.17464,568.44,640.54
222.19569,572.03,668.46
222.21574,574.69,698.82
222.23520,579.61,731.59
222.25461,583.58,751.60
222.27453,590.95,751.58
222.29576,589.18,745.54
222.31513,592.30,730.59
222.33510,590.50,703.52
222.35423,590.33,679.55
222.37400,586.73,660.32
222.39541,586.49,639.63
222.41555,584.31,620.27
222.43532,583.09,609.51
222.45525,581.14,597.94
222.47458,577.83,591.37
222.49454,576.06,581.96
222.51514,565.86,557.27
222.53662,558.16,534.87
222.55601,554.23,520.67
222.57682,551.12,514.79
222.59574,549.03,516.65
222.61573,550.41,517.83
222.63608,551.33,525.10
222.65529,549.79,535.11
222.67597,552.81,539.71
222.69541,551.61,549.14
222.71529,557.28,556.62
222.73653,560.92,564.32
222.75633,564.92,571.10
222.77637,564.43,578.63
222.79556,567.26,584.07
222.81792,566.40,587.10
222.83622,568.54,589.19
222.85637,568.57,592.97
222.87714,570.71,595.65
222.89746,570.18,598.03
222.91799,571.65,601.56
222.93660,569.62,601.00
222.95774,572.05,603.31
222.97790,576.47,602.00
222.99786,575.83,605.70
223.01682,573.44,606.44
223.03617,574.98,606.07
223.05762,576.22,605.87
223.07754,575.76,608.76
223.09673,574.68,609.51
223.11824,575.60,610.78
223.13898,574.31,607.78
223.15995,573.32,607.51
223.17917,571.07,608.88
223.19890,569.89,608.46
223.22097,571.00,606.46
223.24051,568.13,606.29
223.26066,566.89,609.76
223.28013,564.23,610.66
223.30196,561.24,610.22
223.32065,558.80,607.12
223.34099,561.02,610.21
223.36174,556.85,609.20
223.38149,559.99,611.12
223.40074,556.80,609.53
223.42001,557.31,609.23
223.44106,556.27,608.27
223.46047,557.43,610.28
223.48110,556.24,608.39
223.50199,556.27,607.38
223.52150,557.76,609.53
223.54028,557.53,608.79
223.56192,559.30,608.90
223.58207,561.10,625.17
223.60166,560.61,663.72
223.62213,561.03,698.96
223.64185,559.14,731.80
223.66365,556.50,740.63
223.68307,553.28,742.48
223.70388,552.56,740.28
223.72492,549.69,731.49
223.74457,549.49,722.48
223.76478,547.48,713.72
223.78361,547.15,696.03
223.80302,545.83,686.23
223.82329,544.16,674.99
223.84448,545.41,667.98
223.86396,543.14,660.60
223.88390,544.09,653.58
223.90426,544.84,648.30
223.92409,547.14,642.58
223.94410,551.77,638.15
223.96335,552.00,632.09
223.98312,552.29,629.65
224.00380,552.60,627.77
224.02374,553.84,621.36
224.04530,551.09,618.97
224.06486,550.82,619.18
224.08312,550.33,612.46
224.10335,550.18,614.56
224.12484,552.14,609.13
224.14413,552.84,611.09
224.16496,549.82,610.21
224.18326,550.77,608.94
224.20437,551.63,612.31
224.22387,547.50,611.64
224.24498,547.69,613.23
224.26418,549.10,611.65
224.28402,547.06,608.46
224.30418,546.05,607.78
224.32323,545.18,610.12
224.34407,545.09,607.60
224.36306,543.59,606.03
224.38413,544.26,606.87
224.40496,545.00,608.09
224.42338,544.85,607.66
224.44363,543.44,608.07
224.46411,543.45,610.83
224.48342,548.33,617.36
224.50313,550.52,625.62
224.52307,546.93,631.19
224.54464,549.84,614.40
224.56451,549.42,580.89
224.58372,545.14,541.95
224.60486,540.43,502.22
224.62500,537.62,478.85
224.64428,534.39,464.91
224.66429,532.91,458.26
224.68370,532.80,459.10
224.70399,533.60,464.88
224.72439,536.07,471.82
224.74382,534.32,481.41
224.76442,537.19,491.76
224.78393,538.26,501.10
224.80390,539.30,512.22
224.82366,542.04,528.29
224.84464,541.69,541.01
224.86472,542.67,551.52
224.88381,545.44,557.99
224.90371,543.67,564.22
224.92368,545.97,572.16
224.94372,547.19,574.12
224.96318,544.75,577.78
224.98370,546.29,583.21
225.00400,546.82,589.16
225.02363,548.48,593.42
225.04416,547.99,593.93
225.06374,548.03,595.78
225.08453,546.98,599.64
225.10335,549.48,601.95
225.12300,551.54,602.57
225.14346,550.99,603.65
225.16444,552.55,606.39
225.18318,549.80,607.41
225.20351,550.53,606.78
225.22469,548.27,605.21
225.24498,548.35,601.78
225.26364,546.78,603.36
225.28463,548.19,603.15
225.30394,546.40,602.53
225.32305,548.26,601.95
225.34318,547.87,600.18
225.36372,547.22,600.92
225.38352,543.84,599.39
225.40369,543.85,602.88
225.42348,546.98,600.72
225.44448,548.31,600.68
225.46482,548.03,600.38
225.48434,546.73,602.53
225.50461,546.20,598.21
225.52308,543.31,597.63
225.54402,541.36,603.96
225.56343,546.26,603.52
225.58488,546.30,608.54
225.60392,548.28,607.61
225.62350,546.65,609.91
225.64447,546.57,614.86
225.66407,544.76,611.80
225.68326,544.80,613.06
225.70323,545.57,610.77
225.72405,546.32,608.11
225.74329,546.29,609.73
225.76388,547.09,610.95
225.78480,544.63,606.46
225.80490,544.28,605.50
225.82481,543.72,606.68
225.84411,545.97,607.27
225.86407,547.85,605.33
225.88455,548.65,605.86
225.90404,547.53,606.78
225.92353,549.24,606.66
225.94395,548.11,603.78
225.96375,547.68,605.99
225.98484,550.30,603.11
226.00326,550.42,603.14
226.02444,552.45,603.49
226.04380,550.19,601.87
226.06300,548.96,603.70
226.08420,550.50,603.18
226.10321,547.90,600.53
226.12464,548.18,601.88
226.14461,549.50,599.57
226.16470,548.76,599.94
226.18433,550.99,597.68
226.20489,547.92,598.93
226.22595,549.23,601.23
226.24449,550.31,602.01
226.26451,550.09,604.17
226.28567,551.13,603.56
226.30598,549.99,604.23
226.32554,548.60,605.99
226.34406,549.54,602.58
226.36441,548.13,602.80
226.38535,547.57,599.30
226.40498,548.40,599.92
226.42556,545.54,601.00
226.44463,542.85,604.08
226.46453,542.88,603.12
226.48567,543.48,603.75
226.50421,540.68,602.81
226.52571,540.81,602.74
226.54463,541.11,602.46
226.56459,542.93,604.93
226.58502,542.04,604.10
226.60558,541.05,602.32
226.62586,538.91,602.85
226.64505,541.74,601.20
226.66538,540.53,600.78
226.68468,538.52,599.17
226.70460,539.64,599.97
226.72542,543.54,596.90
226.74460,543.41,597.84
226.76566,543.33,597.57
226.78576,542.16,599.38
226.80446,540.06,601.05
226.82585,539.03,600.61
226.84523,539.83,601.45
226.86470,541.40,602.47
226.88448,538.73,600.42
226.90457,540.97,601.06
226.92545,542.94,603.44
226.94407,544.59,602.16
226.96442,542.64,606.66
226.98401,545.61,605.19
227.00515,542.26,605.21
227.02416,543.39,604.89
227.04429,543.94,606.69
227.06484,542.06,605.18
227.08556,541.62,605.03
227.10434,545.04,605.72
227.12459,543.55,600.87
227.14493,540.49,602.53
227.16404,542.62,603.20
227.18434,543.77,602.39
227.20557,541.59,605.33
227.22455,543.56,602.82
227.24469,545.58,604.03
227.26591,544.84,603.22
227.28492,545.99,603.12
227.30497,545.25,599.95
227.32519,544.50,605.87
227.34486,545.56,626.83
227.36445,550.78,668.56
227.38492,553.11,703.72
227.40580,552.82,741.62
227.42536,553.29,766.02
227.44549,553.33,769.32
227.46435,554.27,759.39
227.48637,551.73,746.57
227.50631,548.85,732.13
227.52670,547.97,715.84
227.54507,546.05,702.65
227.56553,547.53,687.67
227.58532,547.69,671.18
227.60622,548.18,666.74
227.62525,547.92,653.90
227.64515,546.89,648.42
227.66693,548.84,645.27
227.68507,548.72,638.10
227.70616,546.05,635.02
227.72669,545.48,632.16
227.74631,543.66,623.87
227.76694,548.70,631.24
227.78513,549.11,623.55
227.80633,546.75,619.98
227.82678,545.23,624.95
227.84679,545.75,626.14
227.86615,545.86,628.15
227.88658,548.02,626.83
227.90616,549.39,625.69
227.92559,545.34,624.53
227.94603,546.87,623.30
227.96616,545.74,625.32
227.98621,548.01,619.34
228.00505,548.26,616.66
228.02682,546.08,617.40
228.04691,545.84,609.31
228.06619,547.53,610.01
228.08656,545.57,609.42
228.10531,546.38,612.10
228.12746,545.45,613.79
228.14757,546.57,613.50
228.16666,544.51,614.28
228.18763,546.86,616.30
228.20752,548.09,612.12
228.22680,546.45,612.58
228.24732,549.36,612.45
228.26705,548.21,627.57
228.28602,551.91,649.59
228.30633,556.09,670.81
228.32681,554.39,679.01
228.34698,555.31,668.68
228.36651,554.86,637.72
228.38723,549.68,592.70
228.40719,542.61,543.78
228.42798,541.26,501.73
228.44816,538.95,470.72
228.46817,537.32,456.18
228.48748,539.77,443.60
228.50756,537.68,440.45
228.52845,537.62,441.55
228.54806,538.50,447.53
228.56704,538.31,457.11
228.58759,539.39,464.86
228.60711,541.00,478.38
228.62846,546.25,486.75
228.64807,548.58,501.81
228.66879,547.50,519.67
228.68713,546.90,531.83
228.70772,550.89,543.07
228.72714,548.82,550.26
228.74847,550.44,557.94
228.76765,552.15,562.76
228.78827,552.62,567.56
228.80812,552.23,573.01
228.82832,553.21,575.69
228.84791,554.64,580.85
228.86891,558.80,580.87
228.88861,557.97,584.56
228.90974,560.43,583.65
228.92928,561.27,585.54
228.94949,559.28,587.96
228.96965,559.22,588.17
228.99117,561.30,592.15
229.01238,559.97,593.86
229.03248,565.02,593.90
229.05260,564.38,595.74
229.07187,567.98,599.37
229.09268,569.97,600.04
229.11216,567.99,600.09
229.13240,567.79,600.59
229.15230,568.90,602.55
229.17168,571.17,605.08
229.19203,569.90,604.59
229.21387,570.39,603.27
229.23266,571.18,601.30
229.25361,571.62,602.92
229.27250,570.01,606.95
229.29253,573.77,608.19
229.31293,571.98,607.45
229.33203,572.73,607.12
229.35331,571.41,608.83
229.37288,571.54,605.52
229.39310,573.46,605.28
229.41343,571.58,606.19
229.43399,571.44,605.87
229.45400,574.37,604.35
229.47237,575.08,602.51
229.49398,573.48,607.09
229.51289,571.60,605.67
229.53399,569.29,606.72
229.55307,571.98,602.48
229.57275,570.12,607.44
229.59380,569.85,604.66
229.61303,570.56,607.35
229.63319,570.74,605.59
229.65313,572.50,607.89
229.67317,574.40,610.43
229.69394,572.94,607.57
229.71329,575.35,609.45
229.73291,571.23,607.67
229.75288,575.12,606.88
229.77338,572.88,605.60
229.79372,573.88,605.58
229.81265,577.02,607.50
229.83206,574.06,608.00
229.85378,575.48,607.13
229.87302,571.79,608.46
229.89278,571.04,605.01
229.91270,570.71,607.71
229.93276,574.89,606.17
229.95354,574.82,606.29
229.97332,574.20,608.39
229.99262,573.60,604.03
230.01397,574.39,608.38
230.03286,573.88,607.92
230.05294,575.56,609.79
230.07254,574.02,608.54
230.09223,573.15,604.92
230.11367,572.86,608.56
230.13214,573.02,610.16
230.15202,569.74,608.84
230.17378,568.88,609.77
230.19361,568.23,607.60
230.21261,571.81,607.60
230.23245,571.62,607.15
230.25222,572.22,606.41
230.27352,570.64,606.35
230.29217,572.69,608.22
230.31308,570.99,606.66
230.33368,569.88,603.96
230.35398,568.98,604.03
230.37308,572.07,604.49
230.39280,574.70,604.47
230.41244,573.15,604.84
230.43375,573.33,607.62
230.45338,577.37,604.88
230.47349,578.98,606.12
230.49321,577.15,607.62
230.51291,577.72,607.86
230.53276,577.74,610.56
230.55323,578.55,610.46
230.57200,574.63,609.66
230.59201,576.84,611.65
230.61264,574.92,609.38
230.63211,573.42,612.10
230.65300,572.53,617.41
230.67226,575.13,622.78
230.69354,577.04,628.39
230.71256,574.17,625.61
230.73332,576.08,626.16
230.75532,574.63,625.05
230.77605,573.98,624.37
230.79629,571.80,627.05
230.81609,572.42,623.52
230.83737,572.26,624.02
230.85737,570.42,619.07
230.87782,569.07,620.42
230.89691,568.20,617.97
230.91665,569.21,617.33
230.93698,570.08,618.02
230.95716,568.53,614.65
230.97705,567.56,612.05
230.99808,566.95,612.28
231.01857,566.14,614.95
231.03829,564.61,616.08
231.05805,561.45,612.47
231.08091,559.81,610.72
231.10085,557.09,606.73
231.12064,555.05,607.39
231.14168,552.86,606.60
231.16030,551.58,603.24
231.18181,547.48,601.84
231.20104,549.98,601.19
231.22051,550.49,596.22
231.24045,547.71,603.69
231.26183,550.15,633.95
231.28077,550.03,657.12
231.30199,550.02,682.09
231.32244,551.27,700.63
231.34258,546.77,710.66
231.36162,546.29,714.46
231.38267,546.58,708.71
231.40144,546.32,704.05
231.42119,548.23,699.23
231.44232,551.96,690.86
231.46277,552.38,686.34
231.48293,551.55,674.29
231.50228,549.01,659.94
231.52159,547.12,654.36
231.54237,548.61,649.28
231.56232,548.72,643.82
231.58205,545.87,642.16
231.60244,545.49,636.45
231.62180,547.80,631.14
231.64158,545.75,629.21
231.66262,544.85,629.33
231.68170,544.63,627.82
231.70237,543.54,625.31
231.72162,544.22,622.61
231.74209,544.98,625.15
231.76295,545.60,621.43
231.78206,547.90,616.69
231.80227,546.83,616.63
231.82141,548.22,623.13
231.84207,547.48,619.39
231.86227,548.81,615.54
231.88304,547.45,619.11
231.90211,547.46,612.17
231.92319,548.13,609.56
231.94261,546.44,609.44
231.96211,545.67,604.22
231.98393,549.04,604.65
232.00334,546.75,605.55
232.02291,547.25,605.62
232.04281,544.37,604.84
232.06222,547.82,604.44
232.08292,546.91,606.20
232.10385,546.97,603.33
232.12202,546.58,606.96
232.14246,548.95,622.23
232.16300,552.94,645.46
232.18218,560.38,662.82
232.20349,567.18,668.31
232.22307,565.31,651.94
232.24418,562.87,615.69
232.26510,555.25,570.56
232.28453,547.56,535.92
232.30475,542.56,507.33
232.32565,537.24,488.01
232.34566,537.71,474.42
232.36508,530.59,470.78
232.38473,529.29,467.02
232.40514,530.56,471.63
232.42423,529.16,479.55
232.44473,532.86,486.57
232.46577,531.61,497.01
232.48581,532.75,498.22
232.50436,535.03,505.11
232.52533,540.90,510.17
232.54547,541.90,516.71
232.56407,545.20,523.99
232.58524,542.95,533.90
232.60400,545.76,538.43
232.62571,545.07,546.04
232.64435,542.49,552.20
232.66513,545.08,560.57
232.68504,540.06,566.69
232.70435,544.53,569.61
232.72451,542.85,574.57
232.74512,545.70,580.30
232.76561,544.81,580.00
232.78463,546.44,584.47
232.80524,542.41,584.22
232.82497,543.81,586.28
232.84445,541.98,590.15
232.86535,544.35,593.67
232.88437,543.81,596.22
232.90518,543.83,596.60
232.92584,545.27,596.33
232.94469,545.88,597.61
232.96590,548.02,596.75
232.98437,549.62,595.23
233.00556,547.48,598.23
233.02526,548.47,595.99
233.04480,549.27,597.07
233.06555,546.99,596.57
233.08530,547.18,594.57
233.10532,548.46,595.67
233.12489,544.80,593.29
233.14477,544.72,595.52
233.16485,545.58,598.23
233.18469,545.11,598.44
233.20415,546.58,599.63
233.22502,544.87,600.65
233.24536,546.54,602.18
233.26505,545.30,602.76
233.28563,544.04,604.91
233.30577,544.61,604.73
233.32477,544.64,604.63
233.34433,544.10,603.66
233.36508,546.98,605.74
233.38454,545.44,603.87
233.40444,545.80,607.95
233.42435,543.93,605.14
233.44512,547.47,604.53
233.46487,547.30,604.20
233.48548,547.53,607.17
233.50423,546.29,604.21
233.52528,548.54,603.58
233.54488,547.40,605.98
233.56533,546.84,603.91
233.58530,546.85,603.42
233.60572,549.58,601.20
233.62539,548.50,603.96
233.64585,545.99,602.63
233.66420,547.92,603.10
233.68549,546.23,600.13
233.70473,547.96,599.52
233.72463,548.26,602.35
233.74514,546.60,600.04
233.76413,546.67,603.40
233.78472,548.88,602.81
233.80433,547.44,602.50
233.82580,548.06,602.48
233.84590,546.78,600.60
233.86542,547.41,603.93
233.88462,547.80,602.33
233.90569,547.71,601.50
233.92590,546.98,599.51
233.94500,551.61,602.09
233.96409,547.83,604.70
233.98581,546.92,601.69
234.00434,546.95,601.26
234.02600,545.46,602.56
234.04470,546.98,603.84
234.06538,547.68,604.17
234.08565,549.01,603.13
234.10498,549.60,603.78
234.12418,547.11,603.90
234.14437,550.62,605.12
234.16521,548.15,604.90
234.18521,548.58,604.30
234.20403,549.20,605.39
234.22476,548.15,605.81
234.24546,549.66,606.41
234.26408,547.62,605.07
234.28481,546.47,603.80
234.30523,546.74,603.31
234.32536,549.84,602.88
234.34498,550.24,603.93
234.36574,547.04,605.00
234.38448,551.39,605.32
234.40561,548.07,602.51
234.42580,549.34,606.40
234.44574,550.28,606.81
234.46599,550.30,604.85
234.48586,550.71,607.25
234.50583,547.10,605.65
234.52403,551.81,605.54
234.54415,548.40,606.79
234.56593,551.91,605.38
234.58426,553.12,604.78
234.60416,554.45,602.32
234.62492,553.44,603.70
234.64445,554.18,602.70
234.66588,554.18,604.02
234.68488,551.12,605.13
234.70409,550.52,601.63
234.72584,550.68,603.09
234.74477,552.65,601.99
234.76540,550.00,601.18
234.78426,550.46,603.67
234.80429,549.80,602.63
234.82600,551.79,603.22
234.84436,552.08,604.64
234.86497,550.10,600.91
234.88449,552.88,605.56
234.90526,550.86,601.58
234.92528,552.07,602.07
234.94525,551.07,602.42
234.96575,551.82,605.20
234.98401,549.46,604.41
235.00531,553.38,605.34
235.02510,551.86,606.29
235.04585,553.96,606.29
235.06414,553.80,605.55
235.08587,550.59,607.06
235.10566,550.93,603.68
235.12482,550.42,606.09
235.14433,551.81,605.18
235.16518,549.67,603.05
235.18584,549.06,603.01
235.20534,550.86,601.62
235.22442,550.97,600.68
235.24406,549.59,600.83
235.26460,551.46,595.73
235.28526,549.52,602.27
235.30421,551.30,613.79
235.32504,554.82,636.74
235.34581,554.34,666.01
235.36564,556.21,695.11
235.38402,555.61,717.55
235.40433,560.72,730.66
235.42569,557.49,732.43
235.44469,557.64,727.67
235.46591,556.87,718.38
235.48580,556.19,706.42
235.50418,557.50,698.12
235.52582,557.41,687.94
235.54426,554.70,679.74
235.56446,555.76,671.32
235.58441,555.70,664.55
235.60534,554.87,658.56
235.62552,558.59,651.11
235.64578,556.06,643.78
235.66584,558.36,640.45
235.68506,555.20,636.37
235.70499,556.55,632.96
235.72468,556.29,630.77
235.74450,558.00,626.89
235.76497,557.18,625.83
235.78408,557.42,625.37
235.80565,556.70,623.54
235.82409,557.43,624.94
235.84530,554.19,621.72
235.86534,556.73,621.47
235.88561,555.64,619.10
235.90407,554.67,619.21
235.92505,553.25,618.76
235.94407,550.62,615.84
235.96482,551.40,618.10
235.98487,552.73,620.32
236.00430,554.13,639.81
236.02401,557.49,661.80
236.04471,564.20,664.64
236.06539,565.22,638.27
236.08566,561.39,594.19
236.10463,556.73,541.66
236.12560,554.94,502.12
236.14442,550.75,477.16
236.16554,551.36,464.05
236.18512,549.81,459.19
236.20465,549.10,461.12
236.22558,549.85,466.16
236.24445,550.52,474.18
236.26474,547.61,481.44
236.28403,549.70,492.01
236.30538,547.95,503.70
236.32578,551.24,514.23
236.34562,551.78,524.03
236.36496,551.36,534.54
236.38521,554.57,540.24
236.40516,555.00,552.15
236.42575,555.02,559.33
236.44443,553.04,563.95
236.46483,554.81,569.21
236.48440,554.14,576.94
236.50476,558.63,581.61
236.52577,555.46,583.05
236.54593,555.05,588.23
236.56490,557.54,590.93
236.58478,557.24,591.85
236.60497,557.17,592.78
236.62598,558.47,595.41
236.64448,560.71,596.77
236.66500,558.47,600.19
236.68576,559.15,601.26
236.70595,557.72,599.91
236.72407,558.42,603.34
236.74485,557.49,602.04
236.76498,559.32,604.22
236.78442,557.14,602.30
236.80534,558.59,605.46
236.82427,557.98,604.00
236.84471,558.48,600.44
236.86441,561.00,600.98
236.88588,561.67,603.84
236.90566,562.28,604.48
236.92547,559.59,605.95
236.94433,559.97,604.65
236.96494,560.46,604.70
236.98439,560.77,604.72
237.00501,557.97,603.56
237.02574,558.00,604.12
237.04521,558.35,605.38
237.06559,555.60,603.33
237.08463,555.36,605.62
237.10592,558.15,603.34
237.12584,557.97,602.79
237.14536,558.95,605.27
237.16583,556.33,605.78
237.18410,557.65,608.30
237.20561,559.06,604.21
237.22407,559.48,605.37
237.24532,562.26,603.98
237.26573,560.19,603.51
237.28454,565.37,606.78
237.30515,565.96,602.80
237.32572,565.08,605.15
237.34448,562.06,601.68
237.36465,562.54,604.78
237.38426,562.60,606.27
237.40574,561.48,606.07
237.42448,562.69,605.92
237.44555,561.05,608.02
237.46506,560.52,606.50
237.48434,559.35,609.34
237.50565,559.92,609.39
237.52413,558.91,607.42
237.54598,560.65,606.04
237.56538,561.54,606.81
237.58498,563.15,606.62
237.60576,559.13,608.50
237.62413,559.02,606.81
237.64507,560.51,607.25
237.66481,562.82,606.42
237.68465,562.68,609.67
237.70427,563.14,606.17
237.72486,563.51,605.79
237.74484,563.57,609.43
237.76526,564.56,605.11
237.78473,563.46,606.19
237.80408,560.18,606.21
237.82460,559.81,604.07
237.84490,561.75,604.05
237.86579,562.60,607.33
237.88442,563.34,607.65
237.90535,562.10,608.51
237.92427,563.24,609.18
237.94687,562.02,610.68
237.96519,561.79,607.87
237.98525,563.78,608.05
238.00529,564.02,607.82
238.02699,562.76,609.51
238.04615,564.84,609.49
238.06576,566.59,606.68
238.08507,566.63,608.71
238.10537,567.47,608.45
238.12621,568.57,605.41
238.14666,566.72,605.82
238.16549,568.85,604.07
238.18683,570.88,606.79
238.20693,569.12,605.17
238.22524,569.49,604.69
238.24632,567.21,604.46
238.26683,567.25,601.89
238.28516,567.27,603.87
238.30607,568.16,601.57
238.32559,569.70,603.03
238.34635,567.35,605.45
238.36615,569.80,604.00
238.38692,570.36,605.09
238.40513,569.39,606.42
238.42686,569.17,604.91
238.44647,569.74,603.77
238.46679,569.04,604.36
238.48631,571.27,605.88
238.50610,567.77,604.82
238.52594,567.78,608.08
238.54522,570.30,607.28
238.56513,570.83,608.45
238.58625,569.62,605.44
238.60536,570.21,605.26
238.62572,571.79,607.37
238.64575,570.02,604.95
238.66681,572.66,606.08
238.68558,571.12,608.52
238.70634,573.93,606.40
238.72673,573.13,610.28
238.74612,573.16,609.20
238.76560,570.52,610.00
238.78658,570.10,609.33
238.80531,568.97,609.63
238.82596,570.19,607.82
238.84508,571.12,608.95
238.86539,572.10,610.41
238.88672,568.77,611.21
238.90537,568.01,609.19
238.93091,568.09,610.76
238.94631,569.04,608.81
238.96582,567.40,612.58
238.98514,571.14,612.66
239.00527,570.70,614.62
239.02571,571.37,611.18
239.04562,569.51,608.33
239.06521,568.59,610.70
239.08565,571.79,609.70
239.10589,572.66,609.93
239.12675,569.00,610.12
239.14624,572.07,608.87
239.16516,571.79,611.22
239.18516,571.84,608.91
239.20535,570.71,609.41
239.22633,571.55,611.54
239.24509,570.29,612.12
239.26578,573.52,611.96
239.28597,570.30,608.93
239.30664,568.42,611.59
239.32565,569.54,609.27
239.34523,570.08,609.51
239.36623,570.11,607.90
239.38525,571.33,608.95
239.40631,569.14,611.69
239.42667,572.80,609.18
239.44514,571.75,606.20
239.46595,573.11,607.66
239.48533,572.12,621.42
239.50684,574.56,643.66
239.52617,576.00,674.62
239.54674,574.79,706.73
239.56692,576.74,738.18
239.58667,578.73,761.85
239.60587,577.69,780.60
239.62614,579.30,784.42
239.64612,575.51,782.09
239.66514,573.60,768.71
239.68570,573.53,751.26
239.70600,573.87,728.48
239.72583,569.24,704.56
239.74602,571.54,684.35
239.76534,572.29,667.88
239.78522,568.96,647.98
239.80505,572.95,634.60
239.82563,570.80,627.07
239.84581,570.43,622.74
239.86634,570.83,618.59
239.88519,568.62,615.49
239.90502,569.95,615.92
239.92657,570.01,613.42
239.94653,566.42,612.59
239.96671,568.35,612.76
239.98620,570.11,615.19
240.00517,568.13,615.60
240.02500,571.53,612.05
240.04640,575.58,613.33
240.06581,575.41,615.46
240.08535,576.73,611.07
240.10637,573.73,610.55
240.12524,574.87,611.80
240.14555,576.76,613.58
240.16597,575.44,612.50
240.18697,577.26,609.89
240.20517,577.10,609.00
240.22594,575.47,608.02
240.24654,575.09,607.74
240.26697,575.07,606.77
240.28530,571.83,609.99
240.30609,571.63,607.34
240.32675,572.15,606.46
240.34653,572.72,608.12
240.36536,574.43,611.58
240.38694,575.83,611.73
240.40693,577.06,606.14
240.42591,577.86,588.86
240.44579,577.75,557.48
240.46506,579.37,525.14
240.48652,577.45,494.57
240.50524,578.96,473.14
240.52510,577.85,463.06
240.54606,577.71,462.29
240.56583,575.02,461.57
240.58647,574.74,469.01
240.60576,575.99,477.75
240.62549,577.32,487.60
240.64532,576.35,500.19
240.66527,576.40,510.95
240.68586,574.32,523.37
240.70503,575.00,533.06
240.72635,574.15,537.82
240.74612,573.52,548.60
240.76546,572.90,557.85
240.78553,571.76,563.96
240.80561,574.40,568.09
240.82653,573.52,576.87
240.84566,574.18,578.54
240.86519,573.02,583.28
240.88532,572.95,588.72
240.90648,573.96,591.23
240.92605,575.63,592.71
240.94591,575.22,598.94
240.96654,572.40,597.88
240.98626,571.27,598.44
241.00672,571.58,600.25
241.02653,570.77,602.79
241.04675,570.83,604.15
241.06616,573.04,603.59
241.08644,570.86,604.40
241.10690,574.03,604.79
241.12543,571.58,604.37
241.14577,571.36,605.98
241.16695,572.73,605.90
241.18574,575.01,608.41
241.20548,576.39,609.30
241.22621,573.69,606.59
241.24573,574.24,607.72
241.26541,573.35,609.69
241.28583,574.36,611.19
241.30536,575.65,608.26
241.32682,575.41,612.60
241.34697,576.30,608.90
241.36632,576.99,610.46
241.38569,576.95,612.72
241.40629,577.08,610.23
241.42733,573.39,610.57
241.44685,575.29,609.93
241.46776,570.18,608.99
241.48602,574.81,610.22
241.50656,570.85,610.45
241.52617,571.67,607.93
241.54716,571.66,608.71
241.56780,573.65,609.96
241.58715,576.93,609.99
241.60680,577.40,610.18
241.62709,578.87,611.63
241.64649,574.92,614.36
241.66705,575.77,612.92
241.68705,575.87,612.87
241.70621,574.29,611.47
241.72718,577.72,610.83
241.74785,574.27,610.03
241.76742,575.18,610.61
241.78674,577.58,610.82
241.80725,577.47,610.39
241.82810,574.92,611.34
241.84761,576.01,609.76
241.86893,574.72,609.98
241.88813,576.36,610.01
241.90854,573.46,608.70
241.92736,574.02,610.07
241.94817,574.15,609.21
241.96769,572.14,611.05
241.98899,576.52,608.03
242.00790,573.01,609.31
242.02759,574.76,611.52
242.04973,571.20,611.69
242.06837,571.84,609.60
242.08919,572.69,611.24
242.10808,571.62,607.13
242.12813,569.92,607.91
242.14818,569.87,606.26
242.16902,569.81,607.26
242.18848,572.36,608.91
242.20924,572.71,608.97
242.22994,570.69,609.67
242.24994,571.89,606.33
242.26996,570.54,608.65
242.28885,567.98,609.64
242.30843,569.49,610.25
242.32881,568.73,608.59
242.34839,569.60,612.49
242.36883,571.65,608.15
242.38820,573.69,607.82
242.40853,569.78,608.50
242.42978,570.11,606.73
242.44970,571.43,610.26
242.46870,569.12,609.63
242.48842,572.51,608.72
242.50954,569.01,605.64
242.52837,568.69,609.87
242.54959,568.27,607.49
242.56966,567.30,606.36
242.58819,568.03,607.60
242.60954,568.89,608.85
242.62811,568.92,606.53
242.64912,567.77,608.13
242.66939,569.19,610.84
242.68814,567.57,608.16
242.70998,569.11,609.52
242.72886,568.21,611.34
242.74917,569.85,611.65
242.77006,568.57,608.62
242.79064,564.66,609.01
242.80902,567.52,609.40
242.83096,563.86,609.58
242.84980,563.51,611.40
242.86941,563.51,609.16
242.88922,563.14,610.84
242.90970,563.99,612.87
242.93067,562.03,610.83
242.95084,563.95,613.47
242.97030,563.53,609.78
242.99078,565.27,610.95
243.01039,560.57,607.10
243.02959,562.30,608.48
243.05075,565.59,605.05
243.07030,563.76,608.16
243.09037,562.30,610.10
243.11086,563.02,609.84
243.12965,562.38,608.00
243.14925,564.30,608.68
243.16917,561.17,608.95
243.19050,562.50,609.26
243.21011,562.05,607.30
243.22969,558.67,606.96
243.24914,558.49,605.06
243.27073,562.10,606.15
243.29004,562.61,606.61
243.31067,563.75,603.39
243.32973,562.15,603.20
243.34995,563.46,605.03
243.36955,563.14,602.11
243.38991,559.90,607.56
243.41049,562.25,621.72
243.42955,564.17,654.65
243.44907,561.41,690.03
243.47034,562.68,723.97
243.48952,563.81,753.75
243.50912,566.43,768.83
243.53039,565.73,784.33
243.54932,565.97,784.63
243.57100,565.42,774.64
243.58977,565.72,760.85
243.61011,563.51,743.13
243.62930,563.99,723.32
243.64959,562.95,707.07
243.66912,563.94,691.11
243.69014,564.54,680.61
243.70930,564.02,668.46
243.72961,561.15,663.62
243.75017,562.18,654.68
243.77035,560.82,645.50
243.79080,561.10,641.10
243.81084,560.98,634.82
243.82969,560.99,630.30
243.84907,559.74,629.70
243.87050,558.34,627.10
243.88901,558.10,624.13
243.91020,557.44,624.78
243.93195,555.96,621.43
243.95050,557.19,616.57
243.97168,555.46,615.35
243.99123,556.01,613.25
244.01194,556.71,614.67
244.03072,554.35,613.43
244.05075,557.01,613.31
244.07173,555.96,613.52
244.09067,555.35,612.02
244.11182,554.43,613.08
244.13021,553.70,611.66
244.15109,552.82,616.72
244.17081,554.50,613.03
244.19178,555.33,599.37
244.21143,551.63,570.73
244.23116,551.54,533.10
244.25028,554.65,504.93
244.27069,549.61,483.75
244.29196,552.50,478.88
244.31032,551.17,478.87
244.33190,550.19,483.49
244.35187,549.24,490.21
244.37118,548.51,501.20
244.39193,548.43,506.99
244.41193,551.03,518.10
244.43047,551.12,528.67
244.45110,549.28,542.81
244.47061,548.79,546.49
244.49115,551.81,550.59
244.51009,550.82,556.12
244.53110,551.16,561.31
244.55059,551.33,563.89
244.57083,549.91,570.47
244.59062,548.50,574.27
244.61021,547.44,576.29
244.63058,547.10,584.44
244.65021,550.56,587.99
244.67029,549.15,590.81
244.69134,549.82,591.21
244.71021,552.36,594.03
244.73013,552.65,597.23
244.75196,551.71,599.11
244.77037,551.90,601.36
244.79103,550.92,601.01
244.81061,550.29,604.91
244.83075,549.26,602.96
244.85128,549.55,604.61
244.87048,548.08,604.76
244.89145,550.75,606.68
244.91060,550.39,605.08
244.93082,547.02,604.38
244.95169,549.77,604.20
244.97175,547.36,603.67
244.99035,549.83,605.53
245.01061,548.70,606.34
245.03173,549.51,606.44
245.05133,548.34,606.89
245.07025,547.14,608.99
245.09130,550.80,609.22
245.11161,549.01,607.31
245.13133,548.08,608.58
245.15093,549.59,609.57
245.17074,551.20,608.78
245.19060,550.72,608.49
245.21099,549.30,610.10
245.23018,547.24,606.68
245.25125,546.56,606.41
245.27044,547.13,606.61
245.29197,547.17,606.32
245.31059,547.67,609.17
245.33034,550.54,609.37
245.35146,550.03,606.95
245.37090,552.13,608.57
245.39145,550.64,605.92
245.41121,550.23,607.74
245.43084,549.59,607.48
245.45095,546.87,606.55
245.47061,550.23,607.06
245.49020,547.88,606.75
245.51123,551.72,608.76
245.53106,551.39,608.61
245.55182,550.86,608.67
245.57167,550.74,608.65
245.59034,546.36,610.14
245.61043,549.30,610.50
245.63099,549.56,609.61
245.65095,549.39,608.27
245.67071,546.28,609.44
245.69148,545.72,607.75
245.71001,546.14,608.06
245.73161,544.38,607.16
245.75153,547.72,608.06
245.77096,545.87,609.81
245.79087,548.06,607.01
245.81159,551.21,608.62
245.83136,548.46,607.96
245.85017,548.11,603.63
245.87042,548.64,608.07
245.89166,548.41,606.57
245.91072,545.48,604.95
245.93156,549.64,605.76
245.95160,547.47,606.54
245.97019,549.15,605.71
245.99098,548.69,605.40
246.01055,550.84,606.29
246.03098,548.88,605.03
246.05147,550.38,605.42
246.07133,547.56,607.73
246.09075,549.66,608.70
246.11041,551.11,606.39
246.13087,550.99,606.71
246.15070,550.20,604.60
246.17009,547.22,604.81
246.19109,548.44,604.31
246.21125,547.98,604.77
246.23123,544.72,602.89
246.25194,546.50,602.67
246.27019,546.80,605.80
246.29171,546.16,602.52
246.31034,548.03,605.40
246.33081,545.29,603.53
246.35081,545.48,607.60
246.37085,547.10,608.83
246.39161,547.04,607.51
246.41169,548.57,607.83
246.43112,547.88,605.91
246.45188,548.48,608.92
246.47047,549.61,607.54
246.49038,548.34,607.35
246.51092,548.86,609.49
246.53177,548.25,606.56
246.55190,547.52,607.41
246.57052,548.73,606.89
246.59132,545.79,608.87
246.61135,547.64,609.13
246.63004,544.89,606.31
246.65140,543.22,606.35
246.67078,543.73,608.56
246.69087,545.44,609.23
246.71100,544.83,609.41
246.73132,543.50,603.96
246.75116,544.86,607.51
246.77078,544.39,606.59
246.79039,544.61,605.33
246.81158,542.78,606.59
246.83142,543.16,607.86
246.85148,545.50,605.62
246.87044,546.78,607.38
246.89148,547.66,606.04
246.91041,546.26,605.18
246.93186,548.77,604.86
246.95077,547.71,608.36
246.97066,547.72,623.22
246.99113,548.37,653.57
247.01042,547.44,690.29
247.03046,549.95,721.71
247.05192,544.42,749.57
247.07024,544.15,765.85
247.09011,539.80,768.50
247.11007,538.21,763.49
247.13135,538.72,753.89
247.15158,537.44,740.88
247.17060,538.83,725.61
247.19243,537.26,710.09
247.21112,539.60,700.64
247.23256,537.23,687.32
247.25246,541.34,676.15
247.27281,541.16,666.44
247.29135,540.84,657.69
247.31157,542.22,651.65
247.33195,544.02,643.60
247.35108,544.23,638.67
247.37262,546.34,636.20
247.39295,547.21,631.35
247.41254,547.26,626.62
247.43170,547.05,620.23
247.45157,547.42,620.09
247.47231,548.70,618.86
247.49137,550.56,618.35
247.51153,550.81,617.38
247.53299,550.20,617.03
247.55220,552.83,616.04
247.57188,548.15,619.66
247.59245,547.02,614.18
247.61233,547.01,606.68
247.63208,549.80,590.87
247.65197,550.08,568.92
247.67219,553.28,539.73
247.69280,552.86,511.82
247.71205,551.64,488.92
247.73291,551.86,466.03
247.75153,549.25,451.65
247.77188,549.76,443.38
247.79262,548.14,443.90
247.81160,547.32,450.73
247.83285,546.69,458.39
247.85175,543.61,470.84
247.87230,543.42,480.06
247.89209,544.43,492.78
247.91144,543.08,504.59
247.93287,545.80,516.00
247.95286,544.25,523.84
247.97184,544.46,534.53
247.99216,544.81,544.35
248.01291,542.69,551.79
248.03280,542.92,556.24
248.05205,542.94,562.10
248.07179,544.12,569.08
248.09251,544.27,576.35
248.11195,541.75,579.94
248.13120,544.67,583.03
248.15153,542.33,587.00
248.17290,542.09,589.08
248.19206,542.92,590.34
248.21252,547.78,596.00
248.23221,543.62,596.03
248.25142,548.46,598.73
248.27219,544.06,601.35
248.29255,546.12,601.25
248.31135,545.00,599.93
248.33200,545.09,603.72
248.35131,545.90,600.83
248.37290,545.53,601.50
248.39147,545.58,603.60
248.41150,544.17,602.93
248.43147,545.97,603.45
248.45219,545.75,605.32
248.47113,546.33,604.97
248.49129,543.95,605.71
248.51231,545.06,603.34
248.53248,544.15,601.48
248.55269,544.35,601.38
248.57219,545.69,602.16
248.59194,545.71,600.97
248.61283,547.63,600.11
248.63295,546.01,601.46
248.65267,546.81,600.51
248.67172,543.86,600.40
248.69279,546.11,600.69
248.71294,545.30,602.86
248.73111,546.16,604.33
248.75246,544.61,605.02
248.77144,543.37,602.52
248.79119,545.13,604.41
248.81256,544.09,601.86
248.83171,545.28,602.86
248.85264,547.95,601.67
248.87278,545.27,601.62
248.89124,546.45,600.75
248.91149,544.69,602.06
248.93103,545.75,605.68
248.95211,544.91,608.61
248.97135,544.52,609.42
248.99171,545.59,610.86
249.01167,542.29,610.25
249.03140,544.56,607.92
249.05171,545.89,610.11
249.07233,542.55,608.55
249.09133,542.35,609.29
249.11106,543.65,608.37
249.13125,548.18,607.76
249.15286,546.30,605.79
249.17225,546.42,604.45
249.19130,548.36,604.16
249.21168,545.89,604.79
249.23244,546.02,604.70
249.25215,546.88,602.75
249.27278,544.16,603.02
249.29248,544.03,604.87
249.31134,546.29,602.58
249.33281,545.03,603.92
249.35250,545.17,602.95
249.37183,544.78,604.17
249.39211,544.10,602.59
249.41234,543.76,602.50
249.43125,545.28,604.72
249.45284,544.87,604.02
249.47214,544.59,604.16
249.49108,547.59,603.69
249.51119,546.12,600.82
249.53249,542.94,602.24
249.55187,545.92,601.03
249.57256,544.86,601.55
249.59141,543.07,599.99
249.61102,542.77,602.09
249.63216,544.78,600.70
249.65165,546.15,599.53
249.67263,545.35,600.53
249.69236,542.87,598.56
249.71129,546.24,599.38
249.73122,543.68,602.14
249.75205,547.90,598.18
249.77137,543.95,598.07
249.79135,544.95,597.60
249.81142,545.97,601.02
249.83114,548.66,598.85
249.85287,545.20,600.40
249.87180,548.59,602.00
249.89135,545.18,600.15
249.91252,548.43,599.59
249.93261,545.49,601.57
249.95166,549.86,601.55
249.97268,547.23,602.35
249.99119,546.72,601.95
250.01203,545.01,600.89
250.03222,547.54,598.60
250.05226,549.31,599.82
250.07283,548.41,597.70
250.09292,546.56,600.58
250.11206,546.81,597.94
250.13196,547.90,603.96
250.15141,547.78,623.94
250.17239,547.80,653.38
250.19252,550.44,686.31
250.21187,550.59,715.93
250.23172,554.24,735.25
250.25271,555.30,740.12
250.27243,551.39,742.14
250.29172,551.65,736.78
250.31115,551.94,726.71
250.33119,550.38,716.38
250.35242,550.14,702.45
250.37228,548.54,688.00
250.39178,548.82,680.15
250.41284,549.66,665.91
250.43247,549.88,659.89
250.45243,549.02,652.84
250.47223,549.26,648.19
250.49181,548.68,637.92
250.51186,546.97,636.44
250.53152,546.10,628.77
250.55266,548.36,626.26
250.57236,546.98,625.01
250.59292,549.33,623.35
250.61261,551.02,621.71
250.63187,546.68,618.72
250.65283,546.12,618.92
250.67273,546.53,616.96
250.69188,547.17,612.56
250.71102,548.04,612.59
250.73266,548.75,616.21
250.75256,550.27,625.55
250.77218,549.77,636.48
250.79190,553.09,638.88
250.81293,553.36,619.88
250.83125,551.05,584.23
250.85255,550.96,540.90
250.87232,551.00,505.83
250.89241,549.36,485.28
250.91154,546.50,470.60
250.93270,545.09,469.87
250.95204,546.89,469.58
250.97105,544.56,474.74
250.99211,544.03,479.28
251.01141,542.84,487.63
251.03210,543.61,499.72
251.05130,541.79,505.20
251.07215,543.66,517.82
251.09234,543.45,525.48
251.11207,543.49,535.89
251.13151,546.55,542.96
251.15231,546.04,550.44
251.17115,545.58,559.57
251.19173,545.88,564.06
251.21200,546.17,568.68
251.23208,547.85,573.71
251.25223,547.93,576.18
251.27241,545.33,581.54
251.29185,546.79,582.04
251.31122,545.05,585.19
251.33249,544.84,586.70
251.35184,547.80,587.32
251.37258,545.68,591.81
251.39233,549.35,592.09
251.41198,550.83,593.28
251.43238,550.12,595.86
251.45205,550.47,599.31
251.47223,550.51,598.84
251.49236,552.88,599.46
251.51174,548.43,602.97
251.53110,550.80,600.47
251.55108,550.35,603.47
251.57152,547.69,602.00
251.59112,548.16,600.11
251.61118,548.30,600.27
251.63180,549.05,600.39
251.65124,550.15,598.45
251.67062,551.17,600.85
251.69139,550.62,600.80
251.71160,550.80,598.32
251.73272,548.70,601.44
251.75127,548.65,600.68
251.77190,548.19,600.71
251.79227,547.64,603.90
251.81298,550.77,600.80
251.83212,549.97,602.85
251.85132,549.24,604.87
251.87176,550.34,602.77
251.89226,552.12,605.22
251.91298,550.17,604.54
251.93118,553.09,604.33
251.95130,551.41,604.04
251.97250,552.45,604.23
251.99178,551.19,604.26
252.01110,552.32,606.52
252.03222,548.79,606.65
252.05192,552.32,604.36
252.07270,552.63,603.84
252.09298,552.79,604.83
252.11224,552.22,603.25
252.13149,550.66,604.23
252.15106,550.76,606.89
252.17135,551.54,605.90
252.19201,551.09,604.71
252.21268,552.72,605.56
252.23254,554.75,603.35
252.25266,552.31,604.66
252.27183,554.13,604.72
252.29223,554.66,606.94
252.31278,554.82,606.23
252.33117,554.26,604.84
252.35214,556.14,607.24
252.37202,554.73,606.53
252.39269,554.60,605.35
252.41135,554.62,604.41
252.43275,551.98,604.06
252.45165,552.63,602.52
252.47162,554.12,602.11
252.49258,553.00,603.30
252.51119,552.59,605.56
252.53245,553.88,604.24
252.55136,556.67,603.38
252.57214,557.38,602.07
252.59110,557.41,605.85
252.61169,558.35,602.99
252.63286,559.01,603.01
252.65140,556.67,602.04
252.67186,555.57,601.81
252.69119,556.51,604.04
252.71259,558.23,601.44
252.73213,559.03,602.42
252.75258,559.04,604.90
252.77271,559.17,604.73
252.79199,556.22,602.97
252.81280,556.61,604.70
252.83106,555.57,603.04
252.85256,556.33,603.96
252.87104,560.43,604.80
252.89191,558.84,605.98
252.91104,559.20,607.60
252.93177,559.82,606.49
252.95264,558.99,605.77
252.97255,556.43,604.43
252.99204,556.13,608.38
253.01282,557.08,606.48
253.03153,557.11,608.52
253.05228,559.18,605.47
253.07130,557.36,608.23
253.09133,557.68,606.88
253.11292,555.34,607.39
253.13260,555.46,603.43
253.15279,557.13,606.28
253.17225,560.39,605.66
253.19242,558.72,605.31
253.21280,559.58,604.12
253.23284,555.84,605.15
253.25140,555.28,606.85
253.27209,555.21,606.41
253.29281,555.33,603.32
253.31242,558.12,600.86
253.33114,555.59,604.14
253.35141,558.02,602.49
253.37131,555.76,606.41
253.39277,556.63,604.12
253.41217,557.58,604.36
253.43144,558.40,608.37
253.45208,556.30,606.15
253.47250,559.77,606.92
253.49293,558.41,608.40
253.51285,560.35,607.76
253.53131,560.07,608.56
253.55217,556.90,605.30
253.57037,558.53,608.52
253.59129,559.30,605.79
253.61179,559.60,608.42
253.63288,558.97,607.47
253.65229,559.06,605.89
253.67153,557.82,605.50
253.69279,560.23,601.79
253.71127,557.60,604.07
253.73251,555.21,603.49
253.75167,554.25,621.20
253.77108,552.61,645.47
253.79223,549.52,678.38
253.81250,549.13,702.45
253.83160,544.21,723.66
253.85159,543.57,733.87
253.87199,544.40,737.79
253.89174,543.99,733.63
253.91284,545.03,724.54
253.93224,548.92,715.13
253.95222,550.13,706.93
253.97260,555.69,696.25
253.99141,555.88,689.45
254.01189,559.59,681.46
254.03219,562.95,678.08
254.05146,567.51,671.48
254.07169,567.60,665.57
254.09286,568.12,662.90
254.11262,568.41,652.90
254.13256,567.46,650.90
254.15242,567.66,648.22
254.17196,567.41,644.71
254.19144,568.99,635.90
254.21123,567.53,629.46
254.23276,568.81,627.50
254.25233,566.64,628.21
254.27284,565.80,627.89
254.29102,565.44,621.88
254.31129,567.87,622.48
254.33112,566.85,623.12
254.35152,568.03,625.60
254.37198,569.38,634.22
254.39170,571.24,650.89
254.41209,572.83,659.07
254.43235,572.64,649.42
254.45104,570.01,628.01
254.47107,569.11,588.62
254.49207,566.22,552.46
254.51166,567.84,514.10
254.53217,565.69,487.03
254.55248,568.19,471.16
254.57157,568.09,463.72
254.59228,564.61,462.28
254.61104,563.06,461.87
254.63113,561.90,465.41
254.65300,562.46,473.33
254.67180,563.49,481.64
254.69133,560.41,491.59
254.71126,562.01,501.60
254.73261,560.69,509.80
254.75198,561.57,522.66
254.77119,562.60,534.21
254.79212,560.18,541.06
254.81293,562.23,547.62
254.83265,561.49,554.31
254.85218,562.85,562.25
254.87247,561.58,568.76
254.89210,563.11,573.96
254.91146,564.79,578.72
254.93182,564.03,585.12
254.95128,565.82,585.53
254.97138,565.32,591.05
254.99210,565.75,592.16
255.01162,565.30,596.15
255.03141,564.78,598.72
255.05267,563.13,599.01
255.07199,563.13,600.86
255.09184,569.24,603.80
255.11253,567.50,602.02
255.13152,571.02,603.04
255.15125,570.10,603.41
255.17250,572.68,603.74
255.19214,568.32,602.66
255.21250,570.01,605.35
255.23251,570.29,603.40
255.25138,573.43,606.68
255.27180,572.32,605.36
255.29133,572.16,604.73
255.31274,568.70,606.43
255.33170,568.71,607.69
255.35285,571.23,605.11
255.37294,571.00,604.92
255.39270,571.85,603.62
255.41227,570.43,604.12
255.43265,570.66,603.28
255.45149,570.94,607.75
255.47158,570.71,607.12
255.49201,568.53,604.49
255.51211,567.96,605.53
255.53205,569.98,606.32
255.55123,569.72,608.78
255.57279,569.38,610.06
255.59237,570.54,607.55
255.61204,570.07,609.13
255.63125,571.07,608.02
255.65101,568.05,608.00
255.67289,569.74,610.71
255.69292,568.34,609.17
255.71180,568.01,607.29
255.73295,569.02,607.12
255.75282,570.65,608.24
255.77130,568.94,608.57
255.79162,569.53,608.46
255.81182,570.68,606.63
255.83229,568.49,607.72
255.85264,570.04,608.93
255.87111,569.21,606.32
255.89287,570.34,608.72
255.91264,567.86,609.02
255.93110,566.55,609.04
255.95112,567.24,607.87
255.97228,566.71,606.61
255.99111,568.78,607.59
256.01252,565.94,606.57
256.03160,568.29,607.82
256.05280,569.47,608.54
256.07288,568.58,608.69
256.09131,567.75,606.24
256.11294,569.95,609.84
256.13165,570.17,608.12
256.15148,571.14,604.73
256.17216,572.28,607.57
256.19131,569.20,605.74
256.21107,569.97,606.14
256.23290,571.05,608.54
256.25262,571.45,607.14
256.27273,571.76,606.76
256.29234,569.57,604.97
256.31120,569.81,608.87
256.33267,571.80,607.95
256.35181,571.24,608.61
256.37288,571.05,608.58
256.39152,569.24,609.33
256.41212,571.85,604.79
256.43212,571.17,607.01
256.45239,569.71,607.44
256.47216,569.98,605.60
256.49279,568.65,605.37
256.51196,567.68,602.45
256.53134,569.07,604.28
256.55282,569.35,601.50
256.57120,569.28,600.65
256.59269,568.42,603.52
256.61132,569.78,602.30
256.63237,570.19,606.94
256.65273,568.12,607.21
256.67300,572.30,609.92
256.69293,572.34,609.61
256.71228,572.36,610.41
256.73123,573.94,609.75
256.75291,574.29,609.13
256.77185,573.39,608.04
256.79107,573.98,608.30
256.81270,573.96,609.57
256.83168,572.19,606.78
256.85141,572.50,610.06
256.87194,572.77,615.16
256.89171,571.00,638.22
256.91112,569.75,664.27
256.93208,568.95,691.11
256.95290,569.36,713.34
256.97140,574.98,724.73
256.99221,573.36,731.33
257.01286,574.95,724.56
257.03286,576.78,719.36
257.05150,578.34,713.38
257.07102,578.32,704.01
257.09136,576.04,692.36
257.11141,573.63,681.73
257.13201,576.47,675.43
257.15159,573.07,666.66
257.17141,573.29,658.49
257.19174,574.78,654.74
257.21276,572.36,649.93
257.23131,574.87,643.35
257.25222,574.03,646.09
257.27262,577.07,647.69
257.29221,580.40,651.28
257.31194,578.05,654.47
257.33281,578.54,654.68
257.35150,577.72,652.86
257.37111,578.21,648.74
257.39205,577.99,645.42
257.41262,575.32,642.07
257.43298,577.92,635.63
257.45234,576.82,635.81
257.47190,581.05,630.84
257.49242,578.69,630.70
257.51160,579.54,628.86
257.53277,577.53,627.92
257.55155,578.54,629.49
257.57270,575.91,616.49
257.59224,571.23,584.86
257.61178,565.16,544.11
257.63237,560.84,516.08
257.65198,560.93,494.30
257.67240,559.15,486.24
257.69284,559.58,482.54
257.71267,561.13,481.70
257.73135,560.19,490.31
257.75162,562.98,496.81
257.77294,564.97,505.09
257.79134,564.41,515.68
257.81128,563.72,522.41
257.83140,565.34,531.64
257.85142,566.92,541.32
257.87216,570.23,552.16
257.89116,569.38,558.01
257.91127,572.63,563.61
257.93155,574.13,569.69
257.95150,571.22,576.67
257.97290,570.52,579.90
257.99229,570.45,586.57
258.01148,573.84,590.77
258.03131,570.94,593.68
258.05225,572.47,595.45
258.07270,572.02,599.54
258.09104,572.83,598.22
258.11223,570.75,599.87
258.13131,571.38,603.01
258.15122,571.10,602.45
258.17165,571.70,606.28
258.19275,571.54,604.79
258.21141,575.51,605.18
258.23288,576.52,608.95
258.25236,573.48,609.01
258.27200,572.83,608.53
258.29225,571.14,607.45
258.31297,574.33,608.21
258.33239,570.91,608.50
258.35263,574.24,608.48
258.37241,573.99,608.72
258.39275,577.15,609.22
258.41230,577.12,609.10
258.43160,576.28,609.62
258.45239,577.19,609.75
258.47111,578.47,612.10
258.49234,579.95,609.33
258.51299,578.84,612.37
258.53290,580.16,612.73
258.55124,576.46,610.60
258.57220,573.77,611.96
258.59207,573.90,610.78
258.61284,573.79,610.38
258.63193,570.50,609.84
258.65253,570.60,612.77
258.67203,572.87,611.96
258.69150,571.01,609.89
258.71211,572.26,611.59
258.73162,570.94,610.95
258.75215,575.12,613.56
258.77126,573.56,614.21
258.79161,572.83,612.25
258.81249,571.99,610.85
258.83250,572.59,612.87
258.85152,573.10,611.80
258.87216,571.51,611.08
258.89254,568.55,610.72
258.91383,569.92,612.61
258.93371,572.70,612.64
258.95372,570.18,611.51
258.97145,569.82,613.32
258.99368,568.59,613.60
259.01184,567.42,610.43
259.03295,569.81,611.91
259.05391,568.97,612.58
259.07201,568.14,609.61
259.09255,568.25,609.77
259.11268,566.77,611.43
259.13273,567.52,609.71
259.15336,566.58,611.56
259.17116,566.37,609.96
259.19271,568.43,612.62
259.21225,569.43,610.98
259.23217,570.93,610.69
259.25367,567.43,611.39
259.27336,569.83,612.28
259.29247,567.34,611.83
259.31390,569.30,610.39
259.33311,567.99,613.45
259.35316,565.91,612.49
259.37208,567.14,611.75
259.39399,568.05,613.11
259.41213,568.87,612.29
259.43399,568.30,611.64
259.45106,565.70,612.74
259.47103,568.16,612.62
259.49207,566.66,610.34
259.51343,568.41,613.64
259.53359,568.72,613.75
259.55295,567.57,612.69
259.57268,566.99,611.17
259.59385,568.11,611.71
259.61307,568.02,611.87
259.63249,570.01,609.43
259.65333,567.22,611.85
259.67340,569.93,609.40
259.69208,570.80,608.89
259.71259,568.40,613.44
259.73306,568.39,612.72
259.75389,568.09,611.06
259.77394,570.30,611.94
259.79352,570.18,611.66
259.81285,570.00,611.50
259.83121,570.70,611.65
259.85357,569.23,610.12
259.87243,568.29,610.34
259.89344,565.18,610.22
259.91526,564.25,612.26
259.93435,564.59,610.38
259.95591,564.46,609.61
259.97595,563.13,609.96
259.99411,562.49,610.39
260.01411,559.70,606.40
260.03483,560.16,609.61
260.05404,561.81,606.27
260.07429,561.31,607.24
260.09570,562.49,602.92
260.11383,563.24,604.47
260.13412,563.29,602.30
260.15355,559.67,601.85
260.17552,559.44,602.84
260.19494,561.29,600.84
260.21527,559.91,600.98
260.23593,557.55,599.92
260.25513,557.89,601.96
260.27433,557.02,612.84
260.29585,558.75,636.09
260.31428,557.89,666.09
260.33344,560.90,688.17
260.35404,561.09,706.95
260.37480,562.59,721.26
260.39566,563.43,718.90
260.41485,560.22,715.18
260.43560,561.37,710.82
260.45557,557.92,708.81
260.47396,560.41,701.72
260.49499,559.82,694.55
260.51520,564.15,687.92
260.53447,563.26,680.52
260.55380,561.54,673.94
260.57305,561.68,664.55
260.59645,559.27,654.14
260.61519,558.03,648.34
260.63579,557.46,640.59
260.65412,556.65,641.48
260.67553,555.34,635.21
260.69538,553.29,632.25
260.71583,554.60,630.86
260.73530,552.44,627.37
260.75537,551.50,626.04
260.77590,551.03,624.22
260.79468,551.13,619.32
260.81463,550.43,616.35
260.83598,552.09,619.18
260.85550,553.08,617.31
260.87441,556.39,614.51
260.89483,553.80,616.20
260.91419,553.02,614.90
260.93594,551.64,610.16
260.95577,551.64,610.63
260.97537,551.96,611.05
260.99412,552.74,609.85
261.01580,549.79,608.44
261.03510,549.17,609.27
261.05598,549.37,613.75
261.07457,548.87,612.02
261.09580,551.38,609.64
261.11490,545.77,588.40
261.13531,545.36,554.79
261.15491,542.17,523.38
261.17527,537.67,496.91
261.19537,538.19,482.36
261.21532,539.87,475.25
261.23569,537.93,480.58
261.25488,541.79,483.74
261.27662,542.36,489.12
261.29683,543.48,500.32
261.31556,545.10,507.94
261.33514,541.96,519.73
261.35449,544.64,528.18
261.37486,544.27,537.73
261.39481,544.93,542.65
261.41600,545.88,552.04
261.43507,547.94,558.66
261.45534,548.63,567.15
261.47641,548.42,569.42
261.49630,549.18,575.81
261.51516,549.95,579.59
261.53615,550.53,586.16
261.55482,550.30,588.06
261.57456,551.16,590.87
261.59550,551.21,595.41
261.61575,550.99,594.41
261.63455,548.83,595.98
261.65406,552.11,597.31
261.67445,550.03,602.06
261.69426,551.86,602.87
261.71626,549.42,602.20
261.73619,550.58,601.42
261.75422,548.62,601.69
261.77497,546.64,603.68
261.79584,548.02,602.88
261.81574,549.01,603.76
261.83685,548.31,602.58
261.85472,548.60,603.20
261.87434,547.90,605.37
261.89443,546.34,605.95
261.91529,547.36,604.61
261.93500,548.54,606.01
261.95424,548.78,607.45
261.97454,546.14,603.91
261.99538,546.24,605.24
262.01598,544.90,605.31
262.03557,545.09,605.18
262.05418,545.70,607.71
262.07660,545.94,606.73
262.09691,542.84,604.23
262.11612,543.04,604.88
262.13777,542.68,605.35
262.15524,541.44,604.28
262.17650,542.78,605.02
262.19703,544.05,605.58
262.21693,541.80,608.37
262.23731,542.96,608.47
262.25640,544.54,605.66
262.27699,543.34,608.32
262.29754,542.83,605.32
262.31695,542.08,605.32
262.33629,542.93,605.77
262.35782,545.27,606.81
262.37740,544.85,604.80
262.39783,543.77,603.62
262.41816,544.54,602.00
262.43777,545.38,602.57
262.45731,544.69,601.05
262.47694,546.68,603.98
262.49756,543.26,601.98
262.51672,544.59,601.92
262.53606,543.78,601.00
262.55819,542.98,598.78
262.57634,543.52,600.93
262.59803,545.66,602.94
262.61737,544.93,599.68
262.63840,544.11,599.53
262.65825,545.31,600.15
262.67780,544.94,601.24
262.69768,544.22,601.18
262.71769,544.68,602.29
262.73708,543.21,602.83
262.75782,544.37,600.79
262.77686,544.64,600.92
262.79832,543.59,602.36
262.81774,545.83,601.22
262.83753,546.47,606.47
262.85793,560.59,615.92
262.87861,583.57,630.77
262.89733,613.07,647.67
262.91700,639.82,662.43
262.93733,660.62,668.88
262.95771,675.26,658.79
262.97699,675.49,639.95
262.99689,666.73,614.70
263.01607,661.14,586.58
263.03745,640.61,564.94
263.05782,621.10,540.39
263.07715,596.53,520.12
263.09682,572.01,508.66
263.11812,548.12,497.81
263.13632,526.20,487.30
263.15745,510.09,490.07
263.17770,498.74,490.50
263.19755,491.73,500.37
263.21848,489.66,509.42
263.23789,494.81,522.91
263.25860,513.57,537.59
263.27867,541.86,549.48
263.29862,571.01,564.51
263.31970,596.16,580.60
263.33803,611.27,590.35
263.35996,612.91,599.70
263.37826,610.29,607.01
263.39974,607.41,610.18
263.41829,603.51,612.98
263.43868,594.81,618.51
263.46130,587.15,626.31
263.47955,578.30,628.42
263.50025,547.67,624.61
263.52069,511.64,612.54
263.54025,472.79,593.43
263.56081,435.87,577.07
263.58022,404.63,558.96
263.60006,379.52,541.96
263.62185,368.28,531.84
263.64067,372.17,530.03
263.66084,381.54,532.52
263.68025,395.69,534.28
263.70017,416.74,542.97
263.72269,437.96,551.97
263.74254,458.68,560.08
