Program Time [s],data 0,data 1
5.96577,438.59,468.25
5.98592,439.25,471.09
6.00547,441.88,473.18
6.02688,441.55,471.95
6.04523,439.87,470.99
6.06589,442.60,473.93
6.08531,440.80,471.77
6.10680,440.58,474.94
6.12595,442.19,476.81
6.14611,442.39,478.94
6.16622,439.95,475.92
6.18597,442.33,477.61
6.20556,437.92,476.29
6.22678,440.69,476.14
6.24669,441.98,476.45
6.26714,443.94,475.80
6.28526,445.09,474.31
6.30683,443.83,474.97
6.32695,445.09,474.95
6.34608,447.30,474.92
6.36782,442.68,471.73
6.38638,443.03,472.77
6.40668,443.42,468.07
6.42627,443.03,468.76
6.44793,439.53,469.45
6.46807,438.51,469.08
6.48745,439.12,466.14
6.50699,438.53,466.00
6.52810,440.16,469.04
6.54682,439.51,466.41
6.56665,437.71,469.53
6.58814,438.15,466.54
6.60603,436.54,464.97
6.62779,439.38,466.23
6.64655,436.49,467.77
6.66724,436.41,472.23
6.68650,436.46,485.21
6.70639,439.35,504.60
6.72704,438.77,526.51
6.74624,440.25,540.33
6.76781,443.39,550.90
6.78737,441.83,554.50
6.80630,441.88,547.87
6.82761,441.02,551.10
6.84754,441.29,546.37
6.86769,442.05,538.68
6.88674,439.58,534.94
6.90766,441.42,531.79
6.92667,440.39,524.39
6.94786,442.04,520.40
6.96757,442.24,515.22
6.98662,438.74,509.70
7.00706,440.79,503.90
7.02618,440.39,501.77
7.04685,439.76,499.50
7.06780,437.87,493.80
7.08772,437.70,489.83
7.10759,437.13,487.69
7.12811,438.17,486.15
7.14930,435.64,484.45
7.16835,437.64,483.57
7.18940,435.03,480.23
7.20925,437.91,479.26
7.22818,436.86,472.16
7.25022,436.35,471.86
7.27046,436.02,471.70
7.29136,436.59,471.23
7.31113,435.11,470.40
7.33161,436.10,467.37
7.35141,435.31,468.40
7.37014,438.00,470.25
7.39153,437.37,470.41
7.41071,433.84,468.10
7.43194,433.36,469.92
7.45090,434.15,470.91
7.47166,435.59,466.96
7.49206,434.48,468.42
7.51259,434.73,469.41
7.53246,434.44,468.32
7.55288,435.48,467.72
7.57165,436.65,466.51
7.59125,434.86,466.76
7.61179,436.39,466.31
7.63226,436.98,468.00
7.65226,436.28,462.85
7.67178,434.83,452.16
7.69227,433.58,431.29
7.71219,434.25,407.84
7.73303,434.49,386.04
7.75328,433.23,373.22
7.77337,430.59,371.34
7.79351,430.99,369.32
7.81277,429.11,374.89
7.83409,433.40,380.35
7.85254,430.49,383.32
7.87268,432.71,390.48
7.89370,431.30,396.06
7.91356,433.54,402.72
7.93395,436.24,410.02
7.95363,433.59,415.10
7.97339,436.21,421.55
7.99330,441.40,427.13
8.01362,440.06,436.11
8.03447,439.84,438.55
8.05326,439.76,441.96
8.07337,440.17,449.19
8.09520,439.57,450.06
8.11428,439.89,451.61
8.13381,440.02,452.37
8.15409,442.51,456.07
8.17406,440.30,458.31
8.19487,440.77,457.65
8.21340,440.89,457.67
8.23440,443.52,459.62
8.25452,441.00,460.71
8.27435,441.29,460.99
8.29463,443.08,463.26
8.31447,441.72,465.23
8.33491,441.26,465.23
8.35483,443.80,463.38
8.37496,440.95,465.12
8.39521,444.29,466.46
8.41440,443.25,465.30
8.43424,442.47,467.78
8.45314,443.10,465.04
8.47430,446.73,466.73
8.49399,443.70,462.19
8.51413,445.06,466.01
8.53361,441.44,466.58
8.55373,441.55,463.90
8.57325,443.61,465.08
8.59492,443.87,463.73
8.61383,444.56,467.96
8.63353,444.74,464.77
8.65309,442.81,464.56
8.67365,446.96,464.11
8.69335,444.08,465.55
8.71457,445.91,465.26
8.73445,446.94,465.17
8.75410,442.91,466.95
8.77446,444.69,469.80
8.79414,443.14,468.30
8.81463,445.46,470.61
8.83318,445.60,466.95
8.85357,444.48,466.43
8.87356,444.37,466.32
8.89428,444.64,468.28
8.91388,445.62,468.28
8.93513,442.33,468.24
8.95451,442.02,467.38
8.97498,442.11,466.85
8.99450,443.38,466.11
9.01461,445.33,467.40
9.03367,444.05,469.59
9.05427,447.31,467.79
9.07370,444.22,469.74
9.09346,446.68,467.93
9.11352,443.34,468.70
9.13335,444.42,465.97
9.15464,445.32,467.71
9.17323,445.75,469.46
9.19494,443.69,469.38
9.21405,444.25,469.07
9.23492,444.32,466.13
9.25319,444.32,467.15
9.27411,443.40,467.14
9.29353,440.80,467.73
9.31534,441.73,467.67
9.33667,443.69,468.34
9.35692,446.10,467.85
9.37568,448.65,469.85
9.39574,446.82,473.80
9.41645,449.61,470.81
9.43652,451.53,473.16
9.45682,449.37,471.92
9.47509,452.75,472.98
9.49646,450.38,475.26
9.51633,449.63,473.44
9.53686,447.90,472.85
9.55658,451.76,475.78
9.57595,448.71,474.75
9.59527,451.10,473.64
9.61492,449.95,474.93
9.63601,452.30,473.30
9.65640,449.12,471.98
9.67657,450.02,472.24
9.69673,451.83,470.29
9.71679,451.05,472.82
9.73641,452.92,473.18
9.75523,448.96,473.81
9.77580,449.33,471.14
9.79610,451.67,471.56
9.81600,450.16,468.25
9.83516,451.26,469.92
9.85630,451.35,471.17
9.87670,450.87,468.55
9.89692,448.15,470.77
9.91579,448.37,470.71
9.93653,449.36,469.89
9.95559,446.75,470.95
9.97634,449.12,468.94
9.99614,449.63,469.00
10.01556,447.94,469.57
10.03593,448.81,470.13
10.05549,450.14,466.71
10.07657,448.35,468.35
10.09642,449.05,465.21
10.11709,449.35,469.63
10.13607,452.02,471.77
10.15618,452.79,500.99
10.17570,458.46,522.77
10.19642,459.80,549.27
10.21665,464.85,572.18
10.23663,465.96,581.29
10.25508,466.02,586.17
10.27659,463.38,584.48
10.29686,463.35,570.98
10.31530,460.74,565.50
10.33691,462.85,559.18
10.35589,460.30,545.44
10.37667,457.69,531.81
10.39583,457.01,525.93
10.41517,456.11,516.62
10.43642,456.96,512.23
10.45574,455.50,503.81
10.47608,455.82,500.50
10.49687,458.37,498.99
10.51638,456.88,498.67
10.53688,454.87,496.05
10.55681,456.76,497.46
10.57646,455.24,492.50
10.59507,456.84,490.19
10.61783,454.61,487.46
10.63752,455.15,485.60
10.65615,452.22,485.50
10.67621,450.73,483.82
10.69643,454.10,485.06
10.71736,454.77,481.82
10.73712,452.20,478.89
10.75799,455.18,474.24
10.77789,453.22,476.91
10.79729,455.21,473.90
10.81657,451.84,475.74
10.83793,454.89,477.94
10.85636,455.59,475.33
10.87688,456.31,478.06
10.89703,454.70,474.69
10.91781,453.53,474.74
10.93731,454.52,475.44
10.95798,452.05,475.67
10.97684,452.13,475.39
10.99687,450.89,475.82
11.01641,450.83,476.30
11.03804,452.51,474.03
11.05755,450.51,469.91
11.07726,453.97,470.48
11.09777,452.68,472.64
11.11761,451.22,474.10
11.13597,454.73,470.64
11.15636,454.35,477.14
11.17632,453.45,489.28
11.19637,457.71,505.77
11.21792,460.18,528.79
11.23742,464.57,537.71
11.25664,466.39,538.12
11.27636,464.24,520.65
11.29695,461.39,487.66
11.31771,456.57,449.03
11.33796,451.43,411.75
11.35687,448.92,387.14
11.37694,447.60,367.25
11.39760,446.85,356.57
11.41643,447.09,353.80
11.43707,444.11,353.06
11.45744,444.11,356.35
11.47644,445.89,365.42
11.49697,447.84,370.71
11.51616,445.19,376.32
11.53633,446.56,386.90
11.55718,445.39,392.90
11.57756,448.58,401.63
11.59760,449.70,408.91
11.61731,451.35,415.09
11.63751,451.05,423.94
11.65649,451.40,430.19
11.67715,452.02,435.71
11.69658,453.64,438.69
11.71742,454.36,445.27
11.73683,452.00,449.70
11.75727,454.48,451.88
11.77657,454.74,456.55
11.79756,454.75,458.93
11.81790,456.50,461.26
11.83665,456.36,464.92
11.85694,452.08,464.32
11.87666,454.94,466.72
11.89651,455.91,465.71
11.91756,453.53,464.66
11.93745,453.65,467.18
11.95713,454.92,467.36
11.97631,454.35,468.76
11.99633,453.57,467.98
12.01749,454.02,470.95
12.03661,454.63,468.74
12.05734,455.81,472.12
12.07732,454.32,469.51
12.09783,455.87,472.09
12.11710,451.58,474.14
12.13751,454.93,472.45
12.15885,453.13,474.15
12.17789,452.81,473.71
12.19724,452.13,472.15
12.21823,454.32,471.42
12.23743,452.34,475.26
12.25809,452.69,473.27
12.27773,452.81,474.92
12.29824,453.63,475.24
12.31736,450.82,475.36
12.33821,453.85,472.55
12.35817,452.52,471.79
12.37858,454.76,472.04
12.39858,455.23,471.26
12.41758,455.20,473.87
12.43872,454.88,473.58
12.45844,454.21,471.27
12.47822,454.21,474.39
12.49892,454.56,471.74
12.51776,455.56,470.46
12.53734,454.40,472.36
12.55842,456.77,473.32
12.57891,453.65,473.10
12.59836,455.75,473.81
12.61822,452.31,473.12
12.63796,453.29,469.95
12.65864,453.25,473.62
12.67706,453.50,472.27
12.69701,453.16,475.35
12.71726,452.82,471.57
12.73848,456.17,472.47
12.75889,455.37,473.11
12.77698,454.81,474.91
12.79832,455.34,473.37
12.81802,451.77,471.98
12.83856,453.90,471.81
12.85862,451.71,472.71
12.87749,453.95,471.24
12.89883,453.83,474.14
12.91745,450.80,470.58
12.93849,455.71,471.92
12.95836,452.51,471.15
12.97800,455.11,469.95
12.99683,453.95,473.09
13.01854,454.84,472.36
13.03707,454.51,472.60
13.05783,455.67,470.87
13.07787,452.28,472.04
13.09759,454.90,475.80
13.11862,454.45,476.64
13.13749,454.23,476.39
13.15885,454.60,471.81
13.17731,453.14,475.63
13.19797,454.19,471.27
13.21733,454.10,474.02
13.23778,453.18,472.43
13.25815,455.03,473.15
13.27733,451.50,474.65
13.29861,454.84,473.45
13.31886,451.13,475.80
13.33878,454.69,475.51
13.35763,453.04,472.08
13.37719,451.88,472.59
13.39827,453.10,474.72
13.41726,453.49,472.77
13.43801,454.57,471.04
13.45829,453.58,472.35
13.47836,451.88,473.34
13.49717,453.23,472.88
13.51811,454.81,475.63
13.53870,453.96,472.86
13.55887,456.75,474.20
13.57821,455.25,474.97
13.59876,455.86,474.34
13.61861,455.04,470.91
13.63735,455.22,473.01
13.65861,454.52,472.67
13.67714,457.66,475.49
13.69781,455.97,473.94
13.71840,455.79,472.73
13.73830,451.98,473.68
13.75844,455.16,474.63
13.77843,455.58,472.12
13.79788,457.04,472.74
13.81822,453.19,473.29
13.83693,455.12,476.52
13.85706,452.21,474.78
13.87670,453.64,474.08
13.89724,454.88,475.21
13.91710,454.88,474.22
13.93713,455.25,474.01
13.95729,458.49,472.70
13.97900,457.56,472.43
13.99831,457.56,474.28
14.01845,455.34,472.84
14.03814,457.94,472.10
14.05748,456.89,472.46
14.07818,454.43,470.57
14.09790,453.84,468.34
14.11844,455.48,469.74
14.13742,452.15,475.80
14.15869,453.49,490.74
14.17815,454.68,511.90
14.19819,456.90,532.28
14.21776,458.59,555.93
14.23845,461.40,568.49
14.25772,461.19,575.06
14.27806,462.91,575.01
14.29808,462.43,568.88
14.31830,462.13,559.37
14.33813,464.01,551.26
14.35855,464.34,542.93
14.37711,462.10,529.96
14.39730,462.27,521.17
14.41832,460.37,510.94
14.43772,460.30,503.65
14.45842,457.32,498.10
14.47778,457.89,496.56
14.49707,459.22,491.37
14.51706,456.91,486.74
14.53739,453.84,487.44
14.55815,454.30,483.69
14.57810,455.94,480.01
14.59748,455.92,479.01
14.61723,454.61,482.61
14.63743,452.65,480.04
14.65708,453.29,476.14
14.67815,455.15,478.51
14.69789,451.56,476.79
14.71802,450.30,478.42
14.73719,450.02,477.10
14.75850,451.55,479.01
14.77818,449.40,478.05
14.79769,450.81,475.05
14.81754,450.04,475.38
14.83806,452.68,477.36
14.85730,451.83,472.12
14.87697,450.50,472.55
14.89809,452.99,474.41
14.91706,451.81,474.88
14.93806,453.23,475.51
14.95888,450.52,475.80
14.97793,453.14,476.18
14.99882,451.58,478.11
15.01819,453.80,474.71
15.03744,451.28,474.73
15.05787,452.86,474.29
15.07695,452.78,473.52
15.09723,452.45,473.66
15.11716,453.57,476.99
15.13847,452.43,474.72
15.15722,452.95,477.55
15.17767,454.29,471.50
15.19861,452.89,458.69
15.21894,447.86,434.80
15.23846,445.81,415.92
15.25764,444.31,398.63
15.27813,442.28,389.47
15.29734,440.06,386.35
15.31884,439.88,386.90
15.33795,441.95,389.78
15.35748,440.22,392.61
15.37719,443.02,399.92
15.39705,443.51,408.91
15.41753,445.64,413.48
15.43882,447.32,419.41
15.45737,449.17,424.39
15.47875,450.01,430.47
15.49859,450.29,436.13
15.51853,447.90,440.83
15.53719,451.35,445.91
15.55774,451.39,449.40
15.57800,452.09,453.84
15.59885,453.93,457.76
15.61850,451.50,460.11
15.63824,451.88,460.63
15.65851,452.39,465.24
15.67727,452.62,465.20
15.69732,453.18,469.12
15.71857,451.99,470.06
15.73802,452.42,471.59
15.75828,452.94,470.67
15.77811,450.72,474.60
15.79965,454.36,473.99
15.81796,453.12,473.19
15.83796,453.91,475.01
15.85976,453.16,473.53
15.87818,450.09,473.24
15.89854,450.17,475.47
15.91865,449.32,470.16
15.93974,447.47,472.65
15.95909,446.41,471.61
15.97862,445.65,469.95
15.99927,445.20,473.92
16.01919,450.04,474.57
16.03806,448.93,474.45
16.05790,449.82,472.38
16.07791,448.59,471.06
16.09837,449.46,473.23
16.11831,447.71,472.06
16.13868,449.91,474.07
16.15978,447.85,472.45
16.17849,449.11,472.62
16.19919,450.23,473.16
16.21887,450.32,473.29
16.23839,449.09,470.87
16.25930,448.47,470.35
16.27837,450.67,470.74
16.29920,451.54,470.47
16.31842,449.87,472.67
16.33820,449.96,474.80
16.35798,447.40,471.00
16.37977,451.05,474.33
16.39821,451.37,473.45
16.41781,447.46,470.83
16.43994,449.28,469.85
16.45982,449.83,471.24
16.47956,446.70,469.93
16.49874,448.47,470.68
16.51835,448.20,471.78
16.53913,447.15,470.72
16.55933,446.20,471.00
16.57856,448.09,472.75
16.59905,447.02,476.07
16.61955,447.16,475.60
16.63888,447.72,475.10
16.65908,448.43,475.41
16.67903,446.87,476.52
16.70087,448.55,475.43
16.71979,446.73,474.83
16.73995,446.23,474.38
16.75892,448.11,474.70
16.77993,445.58,471.12
16.80079,445.48,470.78
16.81949,445.06,471.60
16.84035,445.86,470.31
16.86096,447.11,470.85
16.88072,445.66,469.82
16.90001,445.87,468.40
16.91944,443.69,468.08
16.94066,446.39,469.35
16.96069,444.42,468.93
16.98041,445.89,470.35
17.00069,446.32,472.71
17.02029,442.72,467.89
17.03884,443.74,468.94
17.05950,446.76,469.86
17.08054,441.88,469.77
17.09956,444.30,472.02
17.11902,442.92,469.17
17.14010,445.33,471.21
17.15955,448.20,469.57
17.18047,445.56,471.45
17.19968,446.04,473.48
17.22043,447.28,475.47
17.24054,446.26,470.59
17.26046,443.47,471.16
17.28051,443.00,474.35
17.29931,445.15,470.14
17.32035,443.04,470.74
17.34018,441.21,470.54
17.36025,444.04,472.90
17.38053,440.97,473.20
17.39944,443.45,469.25
17.41950,441.53,473.18
17.44078,442.24,471.07
17.46072,442.71,474.02
17.47977,440.52,469.51
17.49947,443.13,472.16
17.51933,442.65,470.40
17.54037,442.51,470.07
17.55987,441.24,470.75
17.57892,444.66,471.02
17.59995,443.72,473.71
17.62013,443.74,474.35
17.64080,444.39,470.46
17.66075,444.15,470.78
17.68071,443.03,471.19
17.69996,442.83,470.68
17.71901,442.89,469.39
17.74061,441.80,472.68
17.76069,439.95,472.24
17.77896,442.20,470.74
17.80006,438.95,472.37
17.82049,441.18,470.59
17.84073,439.99,473.77
17.85993,441.49,474.40
17.87914,442.23,473.82
17.90054,441.33,472.32
17.91958,439.25,472.01
17.93913,439.60,473.06
17.95908,439.05,474.43
17.97923,440.14,473.41
17.99978,440.72,471.51
18.02076,439.25,470.97
18.04055,440.92,471.72
18.05954,442.56,470.58
18.08052,441.65,472.12
18.10075,439.54,472.62
18.11951,442.00,469.84
18.14061,444.69,471.42
18.16055,444.50,472.05
18.18063,444.02,470.77
18.19947,440.42,469.15
18.21937,443.35,469.53
18.23893,440.23,470.42
18.25902,439.84,471.69
18.27938,441.40,471.64
18.30076,441.09,470.47
18.31936,438.87,470.19
18.33961,441.25,471.48
18.36049,441.72,470.65
18.38067,442.14,470.35
18.40061,439.42,469.85
18.42057,440.46,468.58
18.44059,438.34,469.51
18.46069,439.31,469.67
18.48053,436.59,472.02
18.50037,439.85,470.84
18.52078,438.10,469.03
18.53967,440.67,468.34
18.56000,440.98,469.85
18.57957,439.79,468.12
18.60061,439.91,467.88
18.61996,442.51,470.09
18.63921,442.31,467.15
18.66031,441.37,470.60
18.68086,441.92,467.58
18.70003,439.69,466.94
18.72082,439.68,469.84
18.73911,439.65,466.44
18.76029,440.67,466.60
18.77944,439.05,465.76
18.80056,440.46,465.86
18.82022,440.40,469.17
18.83899,440.93,466.94
18.85954,442.46,466.89
18.87960,442.65,464.44
18.89975,440.12,461.61
18.91968,440.15,457.43
18.93892,439.45,459.66
18.96015,441.99,460.73
18.98036,440.82,457.01
18.99929,438.50,457.11
19.02049,440.25,466.29
19.04006,443.44,482.21
19.06207,445.11,504.05
19.08185,446.12,529.42
19.10178,449.49,537.88
19.12275,449.19,545.91
19.14199,449.41,547.88
19.16285,448.00,545.55
19.18192,444.63,538.92
19.20256,444.29,534.75
19.22252,444.18,527.65
19.24226,443.42,520.23
19.26235,440.88,512.10
19.28092,437.03,506.94
19.30184,435.66,502.67
19.32274,438.59,496.72
19.34262,436.97,489.56
19.36338,437.97,487.72
19.38369,438.54,486.33
19.40370,434.44,482.37
19.42276,437.28,480.85
19.44372,435.98,475.89
19.46378,434.99,478.98
19.48181,432.43,476.69
19.50284,432.75,471.54
19.52294,434.52,475.08
19.54231,436.03,472.92
19.56172,434.72,473.08
19.58282,435.15,471.72
19.60254,434.78,474.27
19.62279,434.70,470.75
19.64347,432.50,472.83
19.66201,432.09,473.83
19.68380,434.95,471.55
19.70263,433.55,472.02
19.72275,434.15,472.52
19.74355,436.33,473.06
19.76334,434.86,470.51
19.78236,436.74,469.19
19.80236,435.57,466.71
19.82204,433.46,469.90
19.84257,433.11,470.99
19.86203,433.21,467.91
19.88320,432.48,468.73
19.90266,432.63,468.50
19.92378,433.86,463.76
19.94381,434.91,468.78
19.96385,433.78,469.03
19.98299,435.88,468.11
20.00386,432.92,471.77
20.02289,433.41,471.11
20.04364,435.30,472.41
20.06226,436.01,469.04
20.08218,436.05,465.27
20.10198,432.96,449.27
20.12210,428.99,430.34
20.14181,426.72,416.73
20.16258,425.62,402.29
20.18312,422.29,394.43
20.20349,421.53,392.34
20.22337,424.29,392.90
20.24199,426.41,397.13
20.26305,423.59,399.74
20.28246,424.11,401.95
20.30320,425.77,410.27
20.32321,427.28,413.26
20.34272,424.81,419.41
20.36168,427.21,423.08
20.38308,427.26,429.40
20.40274,429.91,431.93
20.42258,427.79,434.40
20.44296,429.50,442.85
20.46218,429.91,446.55
20.48328,431.59,449.74
20.50198,433.07,447.83
20.52377,435.37,451.02
20.54215,433.34,454.64
20.56236,433.93,454.32
20.58217,433.79,455.03
20.60230,432.66,457.05
20.62317,434.92,456.54
20.64181,431.98,457.90
20.66224,434.25,458.92
20.68354,435.74,461.28
20.70252,433.72,459.81
20.72315,432.47,460.25
20.74364,434.00,461.59
20.76301,433.12,461.09
20.78365,436.75,462.32
20.80354,434.88,463.95
20.82324,433.44,465.45
20.84290,436.54,465.05
20.86350,434.00,463.42
20.88390,434.47,466.81
20.90241,436.06,464.66
20.92241,435.58,467.07
20.94237,434.14,466.19
20.96240,436.64,467.71
20.98254,436.00,467.59
21.00212,437.26,463.87
21.02260,434.75,466.32
21.04207,435.43,463.71
21.06340,435.36,468.49
21.08229,433.75,467.15
21.10186,434.24,464.64
21.12345,433.48,466.70
21.14309,434.23,464.67
21.16275,435.95,466.45
21.18346,432.94,466.63
21.20394,435.09,466.16
21.22363,437.55,464.51
21.24414,436.31,466.54
21.26608,435.06,468.66
21.28492,438.81,466.95
21.30509,436.82,468.19
21.32434,438.55,466.35
21.34370,438.69,468.11
21.36645,438.69,467.70
21.38581,441.83,468.85
21.40496,441.22,465.24
21.42656,440.74,463.84
21.44595,443.26,465.65
21.46500,444.39,468.48
21.48649,442.91,466.20
21.50547,445.31,467.19
21.52671,445.73,466.29
21.54619,443.14,467.91
21.56568,443.23,467.25
21.58594,443.21,465.95
21.60745,446.73,468.41
21.62683,444.42,470.17
21.64822,445.20,470.52
21.66779,449.07,469.86
21.68818,447.85,468.48
21.70843,449.59,470.59
21.72786,447.25,471.86
21.74868,448.41,472.59
21.76795,449.63,468.73
21.78737,451.37,472.64
21.80735,451.35,472.82
21.82842,448.99,470.26
21.84743,446.73,470.57
21.86694,448.56,471.72
21.88774,449.98,473.29
21.90736,451.42,471.58
21.92754,449.57,471.22
21.94879,450.81,468.61
21.96705,450.32,470.56
21.98885,452.44,468.87
22.00888,449.03,469.80
22.02871,451.23,469.64
22.04739,452.05,471.67
22.06860,452.33,472.04
22.08827,452.05,469.41
22.10670,450.20,469.78
22.12828,450.39,472.90
22.14934,450.52,473.46
22.16894,455.08,472.67
22.18896,454.04,473.31
22.20964,455.80,472.78
22.22888,453.47,476.14
22.24826,454.63,473.25
22.26800,452.57,474.67
22.28932,450.92,472.03
22.30981,450.90,474.98
22.32862,449.89,473.94
22.34805,451.79,472.52
22.36887,451.06,473.12
22.38825,450.37,475.06
22.40879,449.09,472.92
22.42945,449.04,473.37
22.44936,451.36,472.74
22.46926,449.28,472.25
22.48954,450.09,473.25
22.50895,449.87,473.80
22.52904,450.13,472.63
22.54920,450.34,473.10
22.56886,450.73,474.56
22.58761,450.10,471.77
22.60950,450.99,474.11
22.62948,449.55,471.51
22.64856,452.89,472.27
22.66782,451.88,471.62
22.68804,450.52,472.93
22.70892,452.61,473.03
22.72825,451.60,469.71
22.74934,450.91,473.46
22.76924,449.86,470.85
22.78951,452.06,471.03
22.80973,450.89,471.03
22.82897,450.27,471.56
22.84942,451.50,469.29
22.86888,452.63,471.36
22.88783,453.58,467.84
22.90837,452.78,469.93
22.92964,450.69,467.98
22.94803,450.28,471.56
22.96937,449.62,472.03
22.98884,449.04,471.95
23.00789,451.46,471.36
23.02873,449.17,468.28
23.04864,452.69,471.18
23.06931,450.62,471.99
23.08905,453.88,468.05
23.10856,452.89,472.90
23.12798,451.99,470.31
23.14790,451.82,471.12
23.16897,452.16,472.01
23.18814,453.76,474.18
23.20872,452.77,481.58
23.22837,454.56,496.66
23.24958,455.16,508.29
23.26953,454.69,523.55
23.28819,455.71,527.31
23.30953,459.11,536.29
23.32908,458.35,541.40
23.34892,458.62,539.37
23.36939,461.14,540.31
23.38868,462.13,532.79
23.40921,462.69,534.92
23.42851,461.46,534.68
23.44987,462.62,529.69
23.46865,464.13,527.30
23.48940,464.60,526.16
23.50792,461.96,523.35
23.52888,462.22,518.51
23.54928,463.69,513.91
23.56880,465.04,516.09
23.58962,465.41,511.10
23.60790,464.37,511.15
23.62923,464.51,504.97
23.64998,463.17,506.24
23.66908,462.09,503.46
23.68970,460.45,499.58
23.70975,460.41,498.53
23.72999,460.30,494.63
23.75028,459.24,495.34
23.76936,456.86,492.04
23.79030,457.76,487.26
23.80922,455.32,488.90
23.83045,456.12,487.16
23.84969,456.34,480.77
23.86904,455.17,482.11
23.88887,456.19,481.01
23.90979,454.99,484.19
23.93014,454.69,481.19
23.95025,452.14,481.84
23.97078,451.50,483.21
23.99036,454.03,483.29
24.01068,454.44,481.11
24.03070,451.47,479.08
24.05099,453.16,477.65
24.07079,452.03,478.14
24.09081,454.43,477.64
24.11119,453.14,479.43
24.13093,455.10,478.73
24.15277,452.55,476.15
24.17231,452.64,474.76
24.19237,453.55,476.24
24.21097,454.99,469.42
24.23096,454.06,456.02
24.25208,450.60,443.08
24.27191,448.41,426.22
24.29272,444.38,414.27
24.31118,441.24,403.63
24.33241,438.04,391.44
24.35185,435.82,384.97
24.37103,435.67,381.14
24.39214,437.33,376.77
24.41114,439.09,375.38
24.43123,439.12,382.95
24.45261,439.42,388.96
24.47148,441.47,390.57
24.49181,440.52,396.77
24.51131,440.67,401.56
24.53200,444.07,407.67
24.55269,443.87,412.91
24.57159,443.46,419.01
24.59121,446.12,423.18
24.61207,444.47,428.72
24.63178,447.89,434.43
24.65252,446.34,437.74
24.67186,448.74,442.06
24.69246,447.88,443.11
24.71230,447.51,449.99
24.73220,447.53,455.09
24.75154,447.27,455.76
24.77192,450.20,459.26
24.79064,450.25,464.05
24.81124,451.64,466.09
24.83161,453.86,470.26
24.85098,459.56,472.59
24.87274,458.84,474.11
24.89191,458.19,474.45
24.91274,462.72,477.02
24.93169,460.04,475.11
24.95239,460.26,474.44
24.97090,460.70,473.67
24.99092,457.25,475.75
25.01192,459.26,472.96
25.03145,456.77,472.61
25.05211,457.58,473.63
25.07273,455.93,469.86
25.09129,455.75,471.22
25.11159,454.83,469.27
25.13172,454.31,469.84
25.15156,455.70,468.20
25.17271,451.35,467.90
25.19089,452.14,471.50
25.21155,452.80,471.04
25.23119,452.89,472.71
25.25133,454.48,469.83
25.27190,452.69,473.99
25.29133,453.24,474.17
25.31088,453.50,470.41
25.33099,449.53,470.46
25.35250,451.95,471.85
25.37218,451.33,469.50
25.39184,450.37,473.48
25.41099,449.58,470.40
25.43190,451.50,470.11
25.45178,449.76,467.07
25.47260,451.40,467.25
25.49270,451.06,467.35
25.51203,452.18,467.86
25.53171,450.76,469.52
25.55132,450.57,471.95
25.57139,451.80,470.71
25.59250,451.72,468.31
25.61242,451.73,470.08
25.63243,453.24,469.41
25.65145,452.76,471.49
25.67235,451.16,470.29
25.69131,451.94,468.56
25.71138,451.33,471.59
25.73234,452.39,471.90
25.75173,452.70,471.63
25.77143,453.42,473.23
25.79090,454.27,474.37
25.81147,452.91,471.78
25.83123,452.82,473.73
25.85095,450.86,472.51
25.87198,449.37,474.64
25.89114,452.36,472.44
25.91186,450.02,474.23
25.93081,452.14,472.36
25.95107,451.95,471.42
25.97259,453.40,472.89
25.99179,451.29,471.90
26.01210,453.06,469.70
26.03167,452.10,469.94
26.05092,451.46,467.84
26.07111,451.97,467.99
26.09167,454.06,468.24
26.11061,452.41,470.73
26.13103,449.80,468.23
26.15084,449.38,470.33
26.17198,450.40,469.13
26.19192,450.90,469.57
26.21224,450.02,472.90
26.23236,448.83,471.87
26.25124,446.88,472.11
26.27187,449.26,470.97
26.29065,449.67,473.76
26.31178,451.25,472.25
26.33092,449.48,471.06
26.35114,450.73,472.89
26.37074,451.00,469.78
26.39134,446.98,471.25
26.41077,449.64,468.77
26.43173,447.37,472.52
26.45220,450.04,471.92
26.47241,448.16,469.69
26.49320,448.65,469.74
26.51166,444.18,471.10
26.53313,443.34,471.14
26.55266,445.47,470.88
26.57196,446.96,471.00
26.59225,445.13,471.50
26.61374,447.35,470.00
26.63198,449.22,474.42
26.65276,446.46,472.63
26.67257,446.74,474.55
26.69306,448.10,471.28
26.71151,449.43,471.99
26.73236,448.51,474.41
26.75249,447.89,474.59
26.77309,446.99,474.46
26.79174,448.58,474.16
26.81350,448.20,471.66
26.83358,448.88,473.70
26.85310,448.08,472.65
26.87205,449.96,474.14
26.89380,446.92,473.21
26.91190,448.55,470.11
26.93347,446.45,472.82
26.95300,444.99,468.96
26.97318,447.96,470.27
26.99197,447.18,473.39
27.01325,446.37,472.58
27.03248,447.96,469.17
27.05267,446.48,470.42
27.07282,444.47,473.20
27.09209,446.09,472.53
27.11273,447.17,470.49
27.13231,444.17,469.62
27.15280,445.12,471.00
27.17294,442.99,466.96
27.19181,446.16,468.49
27.21284,446.39,488.19
27.23208,447.10,513.92
27.25268,446.45,542.83
27.27263,449.25,559.95
27.29344,451.00,573.83
27.31168,450.92,574.85
27.33272,448.17,576.17
27.35333,448.69,570.98
27.37339,451.97,563.86
27.39369,449.82,558.19
27.41309,448.87,549.53
27.43349,450.39,544.81
27.45235,450.46,536.62
27.47229,452.11,527.28
27.49351,452.01,527.56
27.51204,453.45,519.83
27.53309,454.42,512.65
27.55207,454.58,508.76
27.57339,453.28,503.98
27.59242,453.29,499.94
27.61213,454.62,498.10
27.63259,453.85,496.77
27.65363,452.96,493.81
27.67202,450.88,490.86
27.69190,448.86,484.43
27.71232,448.89,485.75
27.73367,445.14,479.72
27.75323,446.72,480.28
27.77348,448.47,479.63
27.79327,444.39,480.79
27.81354,444.34,479.46
27.83194,444.62,480.70
27.85343,445.19,479.49
27.87175,445.35,476.49
27.89345,444.85,478.39
27.91305,446.65,475.35
27.93242,445.54,476.57
27.95301,444.23,473.82
27.97294,445.09,473.85
27.99153,443.77,471.77
28.01175,445.74,473.75
28.03327,444.94,471.78
28.05198,445.68,470.07
28.07187,443.98,468.97
28.09213,443.06,469.30
28.11261,446.07,471.80
28.13225,444.05,470.82
28.15214,446.03,471.29
28.17345,444.85,472.34
28.19244,440.17,472.08
28.21270,443.29,473.18
28.23185,440.18,481.10
28.25288,443.47,488.08
28.27260,444.32,489.75
28.29173,444.91,477.44
28.31341,440.19,453.58
28.33323,439.43,418.14
28.35265,432.96,390.59
28.37359,431.35,370.02
28.39363,431.33,361.07
28.41368,433.03,360.67
28.43357,432.23,361.30
28.45424,431.87,365.90
28.47353,434.20,371.68
28.49366,433.86,379.81
28.51442,431.99,387.55
28.53276,431.42,395.05
28.55417,434.87,404.53
28.57370,435.30,410.81
28.59522,432.32,420.19
28.61477,436.00,423.49
28.63362,431.47,433.22
28.65383,424.09,440.52
28.67382,420.23,443.93
28.69546,416.21,451.70
28.71390,417.27,454.29
28.73513,416.12,455.19
28.75434,418.09,458.19
28.77499,415.39,459.44
28.79406,416.20,459.43
28.81421,419.80,462.64
28.83545,420.81,464.55
28.85458,422.65,462.01
28.87458,423.35,461.13
28.89401,426.25,463.71
28.91405,425.06,464.26
28.93509,428.54,464.06
28.95532,428.60,462.87
28.97437,431.10,465.73
28.99506,431.32,465.60
29.01553,432.06,467.76
29.03419,430.59,467.69
29.05426,434.31,470.37
29.07538,432.33,469.69
29.09429,434.91,469.15
29.11398,434.79,469.41
29.13391,434.35,466.80
29.15395,436.53,466.90
29.17518,437.34,467.76
29.19458,434.35,466.39
29.21488,434.20,466.78
29.23549,434.70,468.13
29.25365,434.38,467.37
29.27540,434.83,467.04
29.29402,434.29,471.08
29.31549,436.32,469.90
29.33446,435.48,471.24
29.35494,439.62,469.89
29.37496,447.45,467.58
29.39418,451.20,468.42
29.41517,453.54,469.57
29.43396,457.58,467.11
29.45513,453.48,468.92
29.47436,452.41,464.41
29.49506,453.68,464.79
29.51494,453.10,467.42
29.53423,452.71,466.44
29.55404,451.87,463.90
29.57375,449.11,465.84
29.59511,447.17,464.20
29.61523,448.19,464.20
29.63527,444.75,466.31
29.65506,444.72,466.50
29.67542,440.66,468.16
29.69448,437.10,467.08
29.71375,436.48,466.64
29.73415,437.11,468.17
29.75449,437.41,468.00
29.77529,436.04,467.46
29.79454,437.24,469.98
29.81482,437.66,467.72
29.83526,438.65,469.66
29.85474,437.55,466.49
29.87423,439.33,469.09
29.89383,437.44,465.13
29.91464,437.74,465.69
29.93473,439.30,466.70
29.95440,436.10,466.11
29.97526,438.01,468.96
29.99464,438.33,467.50
30.01532,436.27,466.43
30.03522,436.00,468.74
30.05388,438.33,466.63
30.07431,434.88,465.81
30.09359,437.69,466.57
30.11470,435.22,465.55
30.13384,435.76,467.46
30.15415,435.06,469.11
30.17370,435.12,467.35
30.19441,433.81,469.28
30.21479,433.66,469.72
30.23542,436.71,467.04
30.25441,433.23,467.68
30.27412,434.91,468.25
30.29359,433.25,467.85
30.31537,435.12,466.17
30.33417,435.91,468.36
30.35422,436.19,467.77
30.37478,434.61,467.49
30.39489,436.35,466.14
30.41500,433.15,465.61
30.43424,435.40,469.71
30.45439,436.74,468.65
30.47355,434.76,469.10
30.49364,435.20,469.07
30.51484,436.65,470.83
30.53402,435.93,468.21
30.55455,437.38,467.88
30.57422,437.67,466.00
30.59444,436.71,467.64
30.61447,433.79,465.51
30.63381,435.62,467.60
30.65457,434.34,467.63
30.67531,438.13,466.86
30.69515,435.26,467.37
30.71395,437.64,466.27
30.73520,438.07,466.54
30.75448,437.44,469.89
30.77452,436.91,468.80
30.79497,435.11,469.47
30.81535,437.18,470.33
30.83412,433.92,467.20
30.85495,433.80,469.41
30.87530,432.42,467.96
30.89402,434.38,467.33
30.91454,433.65,468.58
30.93437,434.17,465.25
30.95503,432.82,467.68
30.97467,434.32,466.17
30.99379,432.62,465.78
31.01402,433.64,467.28
31.03445,433.73,468.65
31.05479,433.61,468.48
31.07456,434.50,465.37
31.09404,433.93,467.10
31.11513,433.19,467.07
31.13434,433.97,468.19
31.15553,432.34,467.23
31.17363,435.11,465.73
31.19464,433.85,466.38
31.21520,432.01,465.33
31.23541,431.77,466.30
31.25552,434.85,465.54
31.27463,434.73,464.22
31.29398,434.59,464.89
31.31410,433.72,466.27
31.33472,432.84,462.20
31.35538,434.99,457.51
31.37454,434.91,465.35
31.39558,434.11,479.14
31.41454,435.67,496.99
31.43409,435.19,512.38
31.45427,437.13,533.77
31.47495,436.27,551.77
31.49543,435.94,564.60
31.51426,434.68,569.72
31.53497,438.01,571.56
31.55432,438.32,571.02
31.57529,438.22,567.57
31.59538,441.01,558.90
31.61541,441.56,549.32
31.63414,443.11,542.13
31.65410,443.24,530.83
31.67344,444.13,520.58
31.69432,445.86,512.14
31.71453,443.69,508.76
31.73433,444.90,499.73
31.75510,443.17,494.27
31.77559,443.80,488.20
31.79654,444.32,486.49
31.81683,444.01,484.20
31.83633,441.63,480.95
31.85837,441.54,478.93
31.87835,443.49,480.10
31.89901,444.71,477.89
31.91865,445.06,475.42
31.93990,444.67,473.79
31.95998,447.95,472.79
31.97882,447.29,474.15
31.99888,448.57,472.95
32.01957,448.44,471.65
32.03971,449.82,471.63
32.05899,449.35,470.59
32.08010,448.48,472.29
32.09989,449.70,473.53
32.11996,449.58,473.33
32.13897,450.61,471.47
32.15905,451.19,471.05
32.18034,450.56,470.33
32.20054,449.95,471.81
32.22135,449.38,470.79
32.24082,449.22,471.36
32.25954,448.85,469.72
32.28041,448.52,470.98
32.30003,447.70,470.57
32.32052,450.47,472.99
32.34070,450.92,472.44
32.36126,451.61,472.18
32.38063,448.48,470.40
32.40128,450.80,473.18
32.42088,451.49,473.40
32.44123,452.35,472.77
32.46119,452.20,462.42
32.48113,446.58,442.16
32.49978,446.67,419.18
32.52038,444.33,396.36
32.54050,442.06,381.81
32.56006,437.19,370.27
32.58156,441.57,365.92
32.60083,439.83,366.30
32.62206,440.97,371.42
32.64103,442.30,377.39
32.66089,443.04,384.58
32.68185,445.04,394.05
32.70202,447.42,399.43
32.72129,446.08,404.65
32.74089,448.44,413.39
32.76234,448.20,420.63
32.78120,448.91,424.28
32.80214,450.66,432.29
32.82266,452.66,436.53
32.84451,449.30,443.43
32.86580,451.37,447.79
32.88560,452.68,448.49
32.90697,450.02,451.87
32.92620,451.83,457.43
32.94642,451.20,459.17
32.96639,448.46,459.83
32.98685,448.60,463.60
33.00712,448.62,465.14
33.02703,447.96,464.35
33.04794,445.15,463.32
33.06739,445.09,466.49
33.08690,446.90,465.35
33.10720,445.75,465.92
33.12685,447.90,467.92
33.14681,448.89,466.87
33.16680,446.28,469.70
33.18829,444.98,469.77
33.20755,445.39,469.99
33.22794,444.79,470.34
33.24761,444.86,469.33
33.26949,443.51,471.04
33.28909,443.25,469.65
33.30880,441.83,469.56
33.32794,443.74,469.44
33.34929,441.79,470.41
33.36759,444.24,467.93
33.38741,444.38,468.06
33.40777,444.78,469.60
33.42869,443.56,470.85
33.44969,441.94,471.34
33.46864,441.91,469.61
33.48786,443.20,469.18
33.50809,443.04,470.49
33.52868,443.65,469.26
33.54961,444.32,472.11
33.56835,443.87,475.39
33.58880,439.81,474.19
33.60858,439.11,475.32
33.62818,439.05,472.37
33.64876,438.08,473.04
33.66753,438.84,469.10
33.68795,441.17,472.74
33.70901,438.32,469.12
33.73023,439.49,471.04
33.74958,437.65,471.58
33.76965,438.25,466.88
33.79017,437.06,470.37
33.81104,437.53,466.63
33.83067,436.98,470.94
33.84933,434.49,469.68
33.87036,435.49,470.48
33.89155,431.99,470.31
33.91286,434.53,471.29
33.93309,432.63,468.08
33.95313,433.72,470.29
33.97342,433.66,469.69
33.99315,435.02,470.35
34.01248,433.10,468.61
34.03256,434.61,467.24
34.05263,435.83,469.00
34.07318,433.84,467.37
34.09264,433.09,466.89
34.11389,432.54,467.30
34.13301,431.83,468.42
34.15397,431.45,466.06
34.17349,434.13,465.14
34.19244,431.88,466.76
34.21338,432.20,466.47
34.23421,434.93,463.53
34.25337,436.20,465.85
34.27376,433.16,464.01
34.29392,433.03,464.85
34.31310,432.00,465.24
34.33323,435.69,463.16
34.35314,435.05,464.42
34.37348,433.88,462.93
34.39319,435.26,464.24
34.41300,436.59,459.82
34.43364,436.91,463.53
34.45336,437.75,459.93
34.47342,435.61,461.11
34.49280,437.42,462.06
34.51405,437.91,460.76
34.53356,437.17,461.96
34.55250,437.40,462.59
34.57241,437.99,462.37
34.59269,439.36,458.68
34.61400,438.29,461.54
34.63596,437.58,462.35
34.65610,440.49,462.62
34.67761,444.64,466.10
34.69789,445.74,465.78
34.71745,444.90,467.00
34.73782,444.40,464.71
34.75711,447.16,464.57
34.77771,448.08,468.18
34.79824,446.30,465.06
34.81851,448.00,467.27
34.83891,449.38,467.82
34.85837,448.71,466.97
34.87782,452.69,467.74
34.89837,450.18,469.74
34.91779,453.09,468.05
34.93927,450.50,469.35
34.95755,452.26,466.58
34.97949,451.06,468.57
34.99933,449.97,468.63
35.01805,453.75,469.33
35.03822,451.64,470.44
35.05916,451.79,468.25
35.07833,451.66,470.59
35.09749,452.12,470.21
35.11931,449.90,468.21
35.13912,452.65,468.22
35.15924,451.44,468.61
35.17749,452.36,467.60
35.19770,452.32,469.71
35.21788,450.76,469.54
35.23815,450.14,470.39
35.25881,451.66,469.48
35.27806,451.78,471.77
35.29875,450.90,469.30
35.31900,452.02,469.12
35.33775,453.03,470.04
35.35749,452.02,473.50
35.37927,452.00,473.93
35.39810,453.61,470.38
35.41922,451.98,470.18
35.43817,451.37,470.26
35.45835,454.41,470.66
35.47861,452.97,470.41
35.49805,453.38,473.35
35.51851,454.18,472.07
35.53930,455.48,472.44
35.55795,453.96,472.39
35.57858,455.71,471.84
35.59800,456.00,472.20
35.61930,453.01,472.90
35.63897,452.48,472.09
35.65752,455.10,471.54
35.67876,454.23,471.86
35.69814,452.59,471.93
35.71792,456.10,471.16
35.73800,453.79,472.78
35.75817,455.53,470.87
35.77754,454.88,471.73
35.79886,456.03,471.03
35.81880,455.44,471.34
35.83933,456.65,481.59
35.85871,456.09,496.21
35.87922,455.99,520.67
35.89764,457.20,542.60
35.91915,460.41,559.70
35.93779,458.88,567.21
35.95795,460.62,570.83
35.97868,459.72,571.85
35.99891,460.10,564.13
36.01887,457.97,557.40
36.03928,458.19,545.40
36.05879,460.48,541.09
36.07915,459.29,534.01
36.09822,457.95,526.12
36.11876,459.00,519.41
36.13882,460.42,513.02
36.15783,460.18,507.08
36.17885,457.91,502.58
36.19877,459.93,495.48
36.21846,459.94,491.42
36.23801,456.58,488.49
36.25787,455.82,486.86
36.27765,458.69,484.79
36.29759,454.48,487.78
36.31873,454.27,483.50
36.33874,457.43,481.94
36.35872,456.01,479.85
36.37779,456.90,478.45
36.39811,456.17,480.16
36.41894,454.47,480.26
36.43771,457.75,481.41
36.45807,456.72,479.28
36.47921,454.89,475.83
36.49884,457.14,478.58
36.51766,459.94,479.58
36.53774,457.51,475.66
36.55915,456.91,476.59
36.57742,456.26,477.85
36.59788,458.98,479.19
36.61807,456.29,477.09
36.63881,457.68,474.18
36.65889,454.34,473.73
36.67807,457.15,476.27
36.69755,454.98,471.95
36.71754,455.42,475.61
36.73760,454.96,473.67
36.75769,453.49,475.07
36.77794,456.49,476.21
36.79804,456.95,476.67
36.81786,456.52,478.66
36.83839,456.08,471.61
36.85840,454.02,450.50
36.87858,451.45,423.94
36.89890,451.61,403.49
36.91955,450.04,385.86
36.93945,450.00,379.90
36.96002,447.08,376.46
36.97909,446.74,378.25
37.00038,448.68,380.52
37.01987,448.02,388.21
37.03908,449.44,391.56
37.05900,449.49,401.28
37.08006,450.74,407.17
37.09872,449.28,415.83
37.11928,449.28,422.39
37.13938,452.43,427.77
37.15985,451.35,434.38
37.17966,452.54,440.37
37.19856,454.62,443.25
37.21938,453.04,449.21
37.24019,452.73,453.14
37.26014,454.21,457.68
37.27975,452.73,459.40
37.29853,454.07,460.75
37.32001,454.26,465.01
37.34016,453.74,465.73
37.35917,452.52,467.32
37.37971,454.71,468.65
37.40021,455.39,468.24
37.42017,453.65,468.86
37.43845,454.09,472.06
37.45994,450.30,473.17
37.47908,451.11,471.50
37.49989,451.98,473.33
37.51867,450.93,474.72
37.53886,450.48,473.35
37.55938,449.16,474.48
37.57997,450.19,474.60
37.59926,451.20,472.21
37.62003,453.01,473.98
37.64013,452.86,473.65
37.65837,454.41,474.83
37.67979,454.84,475.67
37.69907,451.26,472.16
37.71907,454.00,475.57
37.74032,452.01,475.49
37.75981,454.91,472.94
37.77936,453.14,472.41
37.80131,451.14,474.69
37.82042,452.85,476.06
37.84022,451.81,474.83
37.86109,452.31,472.34
37.88041,454.02,475.65
37.90111,453.85,474.65
37.91995,452.92,474.78
37.94095,453.31,472.24
37.95969,451.97,474.92
37.98114,448.07,471.27
38.00060,449.89,470.51
38.02113,447.57,469.15
38.04031,447.27,473.12
38.06118,450.37,473.54
38.08031,447.45,472.71
38.09975,449.28,471.87
38.11966,448.73,473.84
38.14106,446.43,474.66
38.15937,445.41,472.77
38.18228,446.62,474.46
38.20183,446.38,472.41
38.22157,447.16,475.11
38.24057,450.20,474.28
38.26112,447.69,475.31
38.28135,446.27,474.20
38.30106,449.41,475.19
38.32165,446.71,471.46
38.34236,448.71,471.53
38.36110,445.43,474.67
38.38125,449.79,473.94
38.40074,447.89,474.95
38.42114,447.84,475.00
38.44164,448.39,473.59
38.46038,449.63,472.01
38.48133,448.20,474.63
38.50181,446.94,471.89
38.52037,448.36,471.08
38.54158,446.23,472.28
38.56172,450.59,472.14
38.58094,450.20,473.31
38.60180,448.35,472.21
38.62033,450.64,473.27
38.64217,450.23,470.75
38.66104,448.50,472.87
38.68226,449.71,474.66
38.70197,449.68,474.20
38.72129,447.73,471.48
38.74123,448.69,474.13
38.76160,449.38,473.34
38.78147,448.87,471.86
38.80077,446.17,474.51
38.82132,446.48,472.17
38.84253,448.63,474.36
38.86194,449.65,470.69
38.88136,448.35,472.12
38.90253,447.92,471.95
38.92198,446.90,474.40
38.94223,448.11,473.10
38.96106,446.35,473.45
38.98107,448.20,472.13
39.00080,446.91,471.29
39.02130,448.11,474.66
39.04089,447.76,474.60
39.06093,447.05,470.92
39.08204,446.88,470.81
39.10138,448.12,471.57
39.12067,445.23,471.69
39.14119,445.85,469.43
39.16202,445.32,473.03
39.18112,443.47,471.42
39.20114,444.24,470.66
39.22136,446.13,471.61
39.24041,445.51,472.08
39.26168,446.86,471.58
39.28225,445.02,472.60
39.30079,447.53,472.33
39.32117,445.90,470.83
39.34194,443.73,471.75
39.36073,444.82,473.21
39.38218,445.78,470.60
39.40079,446.35,471.49
39.42162,443.61,471.04
39.44177,444.02,474.18
39.46092,446.27,475.34
39.48170,444.72,472.49
39.50214,447.16,471.30
39.52080,446.55,472.71
39.54142,443.66,474.76
39.56196,446.00,472.00
39.58146,446.68,475.50
39.60133,444.98,473.01
39.62211,444.48,475.90
39.64061,443.73,473.04
39.66225,443.30,471.24
39.68183,445.00,472.60
39.70060,443.43,472.13
39.72193,444.31,472.03
39.74171,443.98,474.02
39.76162,445.15,471.19
39.78060,445.48,473.92
39.80067,442.63,475.10
39.82117,445.10,473.52
39.84083,445.40,472.30
39.86202,442.17,470.71
39.88133,443.33,477.57
39.90226,443.30,488.45
39.92161,444.89,508.03
39.94042,446.25,528.35
39.96146,449.89,545.44
39.98134,448.31,561.50
40.00122,449.77,569.69
40.02152,453.54,567.61
40.04210,451.86,565.54
40.06131,454.87,558.28
40.08066,453.98,554.69
40.10041,452.14,546.74
40.12192,451.28,538.65
40.14046,450.69,535.71
40.16156,450.72,529.92
40.18176,452.12,522.02
40.20101,451.30,514.70
40.22057,452.78,507.52
40.24175,452.72,502.51
40.26155,448.02,499.51
40.28330,449.21,494.61
40.30157,445.74,493.00
40.32194,446.74,491.69
40.34265,443.11,487.21
40.36171,442.10,483.98
40.38311,443.80,480.61
40.40151,443.04,480.34
40.42230,443.50,482.56
40.44253,442.42,477.58
40.46198,441.56,477.78
40.48328,443.97,475.39
40.50166,443.55,475.88
40.52268,439.48,478.02
40.54195,440.66,476.38
40.56294,441.34,476.32
40.58315,441.02,473.65
40.60171,439.79,473.31
40.62247,441.58,472.56
40.64152,442.14,471.51
40.66325,439.64,474.00
40.68297,442.63,474.36
40.70147,441.07,473.70
40.72172,442.26,470.04
40.74222,442.86,471.33
40.76297,441.62,469.89
40.78254,440.86,468.86
40.80200,439.27,469.85
40.82329,437.53,469.41
40.84273,439.99,472.01
40.86334,439.66,470.06
40.88276,438.60,473.46
40.90326,438.70,474.73
40.92207,438.92,478.75
40.94185,434.17,475.60
40.96228,434.69,465.48
40.98155,434.24,443.10
41.00133,432.31,423.98
41.02246,432.58,403.68
41.04206,430.38,388.45
41.06166,431.06,380.98
41.08186,431.65,379.10
41.10300,430.95,377.74
41.12295,431.32,378.64
41.14257,429.40,382.11
41.16344,433.96,388.93
41.18333,432.36,396.31
41.20183,434.10,403.37
41.22283,433.82,408.23
41.24302,436.46,415.95
41.26195,435.02,421.70
41.28233,436.15,423.77
41.30315,436.86,428.10
41.32177,435.81,436.13
41.34330,435.33,438.32
41.36178,435.73,439.67
41.38254,437.74,445.79
41.40258,434.08,445.51
41.42176,436.76,449.31
41.44253,436.88,453.88
41.46150,436.36,453.17
41.48248,438.88,456.21
41.50227,436.71,458.59
41.52306,438.79,458.51
41.54176,437.78,462.61
41.56208,437.91,463.18
41.58132,437.20,462.47
41.60251,436.21,463.69
41.62153,435.00,461.56
41.64259,434.58,465.24
41.66216,436.86,466.50
41.68285,436.50,467.80
41.70243,435.69,467.53
41.72180,438.27,466.61
41.74270,436.60,468.23
41.76138,437.22,466.33
41.78147,436.38,469.93
41.80139,437.02,468.76
41.82251,436.23,469.66
41.84319,435.48,466.74
41.86253,436.74,466.82
41.88242,437.65,467.67
41.90204,438.55,470.48
41.92174,434.33,468.75
41.94432,435.96,471.78
41.96262,432.29,468.99
41.98333,435.46,469.70
42.00301,432.35,466.18
42.02358,434.59,467.69
42.04236,434.50,467.69
42.06406,432.34,466.10
42.08353,433.00,466.29
42.10253,436.99,469.40
42.12324,437.14,470.21
42.14379,436.83,468.06
42.16265,438.01,468.35
42.18377,434.28,465.31
42.20354,437.30,465.96
42.22639,435.04,464.99
42.24506,435.72,465.67
42.26549,433.88,464.82
42.28560,432.56,465.60
42.30629,432.49,465.31
42.32535,434.06,462.25
42.34606,432.14,464.97
42.36600,435.18,464.03
42.38555,433.25,466.38
42.40460,435.59,465.72
42.42496,436.93,465.25
42.44598,436.27,464.14
42.46549,434.51,463.25
42.48440,434.55,467.68
42.50472,435.71,465.23
42.52488,434.03,467.77
42.54441,435.94,466.61
42.56521,435.56,468.83
42.58521,436.32,467.63
42.60508,435.16,466.94
42.62454,437.93,466.55
42.64632,438.34,464.59
42.66484,436.06,467.36
42.68536,438.23,463.80
42.70616,437.00,464.47
42.72583,440.15,465.41
42.74626,438.75,462.76
42.76557,437.91,462.93
42.78507,435.97,464.88
42.80484,436.13,465.96
42.82564,434.02,468.83
42.84577,435.05,471.58
42.86604,435.37,472.00
42.88466,439.20,473.37
42.90544,440.26,480.60
42.92449,442.80,486.02
42.94516,447.46,495.08
42.96527,448.09,499.89
42.98586,448.46,502.70
43.00424,447.25,497.84
43.02611,447.96,485.04
43.04559,442.78,462.87
43.06498,437.80,444.12
43.08536,436.20,425.71
43.10559,431.59,409.40
43.12560,431.59,399.93
43.14558,429.54,388.50
43.16583,427.01,382.20
43.18452,425.81,378.54
43.20503,425.65,376.95
43.22596,426.23,378.62
43.24437,425.02,381.08
43.26482,427.78,388.71
43.28615,426.41,396.81
43.30520,428.30,403.98
43.32465,429.88,411.55
43.34456,429.98,420.51
43.36548,432.37,427.42
43.38587,432.34,435.53
43.40466,434.39,440.17
43.42498,435.00,445.54
43.44529,433.60,450.16
43.46450,432.99,454.12
43.48596,435.61,459.78
43.50572,440.29,466.70
43.52616,443.74,472.80
43.54426,441.31,477.38
43.56474,445.73,479.83
43.58509,444.09,481.11
43.60587,445.99,484.59
43.62447,446.40,488.44
43.64497,447.89,503.10
43.66498,451.19,527.80
43.68542,454.87,565.05
43.70531,458.23,587.93
43.72467,458.12,595.39
43.74431,459.27,591.37
43.76457,455.10,578.69
43.78597,452.82,561.75
43.80426,450.31,546.14
43.82548,449.03,526.57
43.84462,443.08,510.68
43.86553,444.41,497.59
43.88540,442.89,489.62
43.90573,442.87,492.28
43.92526,449.04,504.70
43.94715,453.21,523.25
43.96674,458.50,543.28
43.98601,458.36,559.40
44.00562,461.95,569.48
44.02683,466.89,574.41
44.04703,466.17,581.21
44.06620,467.36,585.53
44.08685,466.08,582.35
44.10603,467.10,578.73
44.12648,467.60,574.72
44.14548,464.77,572.41
44.16686,463.50,567.29
44.18645,461.96,563.27
44.20531,459.47,560.66
44.22705,455.69,560.40
44.24591,455.95,555.21
44.26644,453.68,552.45
44.28583,452.69,549.61
44.30553,448.65,545.77
44.32686,450.54,546.14
