Program Time [s],data 0,data 1
5.96668,470.18,482.95
5.98531,470.99,483.46
6.00532,472.02,485.28
6.02526,474.85,482.57
6.04549,472.82,482.85
6.06640,474.06,486.20
6.08513,474.39,488.40
6.10636,471.16,488.16
6.12537,471.53,491.49
6.14611,472.13,493.13
6.16625,473.30,490.35
6.18541,471.94,491.26
6.20588,469.37,491.58
6.22674,472.72,487.71
6.24685,471.03,491.48
6.26624,476.07,491.04
6.28536,474.90,488.68
6.30665,474.60,488.62
6.32522,475.99,487.10
6.34618,475.78,487.58
6.36787,475.13,487.19
6.38647,473.33,483.04
6.40725,472.34,481.20
6.42713,471.45,483.43
6.44822,470.90,481.73
6.46679,471.06,479.69
6.48782,470.21,479.75
6.50652,470.90,482.62
6.52803,469.83,481.71
6.54630,470.10,480.30
6.56747,470.14,479.13
6.58797,467.23,482.13
6.60690,471.02,479.56
6.62670,470.15,477.80
6.64649,469.67,480.49
6.66604,468.99,481.90
6.68677,469.68,499.10
6.70760,469.02,520.09
6.72692,470.87,540.68
6.74658,470.66,558.27
6.76697,472.53,569.59
6.78789,473.80,573.42
6.80774,471.05,566.40
6.82658,470.38,567.35
6.84776,471.50,566.21
6.86612,471.03,557.22
6.88691,470.24,553.41
6.90729,471.81,546.83
6.92629,473.55,542.71
6.94674,472.38,537.79
6.96774,470.81,531.79
6.98652,472.65,525.81
7.00704,469.96,522.32
7.02780,470.71,517.30
7.04685,471.40,512.77
7.06752,468.19,507.59
7.08791,466.94,505.64
7.10760,467.12,502.45
7.12961,466.90,500.57
7.14849,465.35,499.75
7.16878,464.95,497.03
7.18840,466.39,493.73
7.20939,468.25,489.53
7.22927,467.47,486.40
7.24989,467.78,482.73
7.27031,467.28,484.15
7.29063,467.69,483.87
7.31019,464.55,482.45
7.33225,465.54,482.27
7.35104,468.35,482.18
7.37188,467.66,484.73
7.39119,466.39,480.58
7.41095,466.22,484.08
7.43166,463.40,483.07
7.45083,466.40,481.28
7.47252,462.99,479.68
7.49104,464.22,480.97
7.51264,465.46,481.57
7.53238,466.65,477.99
7.55158,465.73,478.25
7.57272,467.78,476.93
7.59173,468.70,480.00
7.61188,466.72,480.37
7.63121,467.16,479.72
7.65276,464.96,479.08
7.67299,467.19,464.43
7.69249,466.07,444.43
7.71211,465.52,414.52
7.73157,464.11,394.29
7.75316,462.85,378.58
7.77338,460.30,376.78
7.79338,460.21,377.19
7.81289,460.86,379.55
7.83411,460.60,383.85
7.85395,461.78,390.15
7.87364,462.74,398.93
7.89235,463.24,405.57
7.91300,464.17,411.57
7.93321,464.55,417.34
7.95409,467.93,425.98
7.97460,465.91,429.93
7.99318,470.66,438.97
8.01483,473.98,444.16
8.03345,473.45,449.54
8.05486,472.96,453.67
8.07410,473.28,459.44
8.09439,470.61,462.73
8.11296,472.99,462.76
8.13439,473.01,466.53
8.15348,471.91,469.78
8.17426,470.95,471.94
8.19438,474.65,471.43
8.21327,470.59,471.31
8.23398,471.53,470.31
8.25380,471.30,473.34
8.27525,472.82,474.41
8.29378,472.77,473.44
8.31394,472.14,475.07
8.33460,473.84,479.52
8.35470,474.93,476.02
8.37417,473.09,476.83
8.39353,472.53,480.37
8.41503,475.05,478.78
8.43302,476.05,479.96
8.45432,474.92,478.10
8.47379,474.84,480.37
8.49384,475.79,474.81
8.51392,475.36,479.22
8.53376,475.12,477.71
8.55347,474.58,478.13
8.57399,472.33,478.98
8.59412,474.62,480.08
8.61427,475.74,480.74
8.63376,475.57,477.93
8.65336,475.29,475.88
8.67434,474.51,478.50
8.69308,476.54,480.59
8.71480,474.45,481.64
8.73329,475.57,477.75
8.75329,472.77,477.76
8.77328,473.76,480.91
8.79313,473.11,480.04
8.81462,475.13,482.63
8.83462,475.74,481.78
8.85413,475.52,480.05
8.87388,475.78,479.17
8.89484,475.20,481.60
8.91389,474.32,482.52
8.93487,475.88,482.03
8.95350,473.65,479.06
8.97494,475.84,481.59
8.99298,474.86,482.05
9.01422,474.22,479.69
9.03484,478.32,481.07
9.05482,475.85,480.48
9.07332,474.14,481.99
9.09384,475.28,480.16
9.11355,477.03,480.50
9.13444,474.72,481.94
9.15417,475.53,482.90
9.17485,476.40,481.95
9.19352,476.23,479.16
9.21508,475.56,479.65
9.23493,473.97,478.98
9.25355,475.55,480.95
9.27358,472.37,479.00
9.29393,472.20,481.05
9.31404,473.01,484.36
9.33529,474.74,482.90
9.35581,477.56,481.90
9.37656,476.69,482.92
9.39652,479.52,485.95
9.41529,480.45,485.25
9.43647,480.09,487.99
9.45596,482.85,486.29
9.47625,481.46,488.84
9.49695,484.31,486.54
9.51534,483.39,488.49
9.53497,481.91,487.13
9.55587,480.24,486.73
9.57594,482.47,485.63
9.59545,481.05,487.78
9.61686,481.34,488.11
9.63541,484.05,484.64
9.65580,483.08,485.74
9.67692,481.36,485.79
9.69699,482.67,485.16
9.71687,483.72,486.05
9.73683,484.48,484.58
9.75548,481.49,486.41
9.77604,482.86,484.47
9.79713,482.72,485.00
9.81673,480.94,482.06
9.83561,480.23,483.45
9.85665,480.18,482.30
9.87678,482.23,484.14
9.89566,482.06,483.12
9.91642,481.03,483.36
9.93688,478.67,481.36
9.95508,478.05,481.41
9.97548,481.94,482.26
9.99615,480.56,481.23
10.01656,479.63,482.53
10.03693,481.30,480.78
10.05542,480.50,482.43
10.07658,479.33,478.40
10.09608,480.65,478.41
10.11564,483.17,479.21
10.13618,482.10,488.99
10.15611,487.28,516.06
10.17670,489.64,538.55
10.19624,492.91,564.95
10.21534,495.19,588.58
10.23702,496.70,601.18
10.25659,496.46,604.90
10.27562,497.23,604.46
10.29677,492.90,589.57
10.31515,495.30,586.56
10.33658,495.68,577.23
10.35617,491.78,563.85
10.37552,493.20,551.41
10.39700,489.65,541.13
10.41663,488.11,532.98
10.43559,486.98,525.65
10.45493,488.99,521.73
10.47620,486.98,515.36
10.49647,490.51,513.79
10.51530,491.16,511.14
10.53539,490.72,507.84
10.55662,487.29,509.71
10.57615,489.16,508.94
10.59676,489.82,507.08
10.61659,487.03,500.72
10.63637,485.54,497.17
10.65754,484.24,496.82
10.67714,483.82,501.23
10.69732,487.30,499.56
10.71619,485.65,495.61
10.73765,486.96,493.12
10.75623,486.55,490.26
10.77729,485.22,490.65
10.79818,484.03,488.33
10.81747,483.75,489.28
10.83714,485.94,491.67
10.85783,485.60,490.34
10.87752,487.61,489.83
10.89639,486.55,488.07
10.91692,484.86,486.90
10.93741,483.13,487.72
10.95647,486.22,488.24
10.97725,484.77,489.39
10.99632,483.84,488.36
11.01754,485.24,488.38
11.03690,486.44,486.48
11.05797,483.01,483.97
11.07746,484.49,484.94
11.09629,485.56,483.10
11.11803,486.15,485.97
11.13692,483.96,484.30
11.15716,483.55,491.75
11.17798,486.51,504.25
11.19656,488.06,520.01
11.21767,494.38,545.27
11.23795,497.03,556.55
11.25681,497.67,555.95
11.27751,497.68,537.02
11.29628,493.13,503.19
11.31709,487.28,461.02
11.33610,484.76,423.47
11.35805,483.86,396.87
11.37715,481.14,376.94
11.39699,478.43,361.58
11.41658,478.31,359.37
11.43734,477.31,358.71
11.45763,474.82,362.05
11.47746,477.89,369.14
11.49667,478.85,379.09
11.51635,478.10,382.94
11.53706,477.38,394.33
11.55774,480.21,401.12
11.57643,477.79,411.43
11.59711,481.17,418.99
11.61613,480.08,428.02
11.63621,480.88,432.61
11.65770,479.76,438.62
11.67793,481.93,448.10
11.69689,485.03,449.52
11.71779,484.65,454.74
11.73642,483.55,461.33
11.75740,484.19,463.32
11.77796,485.00,466.93
11.79752,488.41,470.96
11.81660,487.74,470.49
11.83685,487.72,476.36
11.85652,484.11,478.46
11.87627,486.08,478.30
11.89657,486.29,480.75
11.91761,484.41,478.03
11.93599,485.36,479.11
11.95627,484.74,480.89
11.97637,487.59,482.28
11.99620,487.49,482.66
12.01681,487.32,483.36
12.03640,487.47,480.94
12.05784,485.18,486.61
12.07684,486.15,484.92
12.09651,486.45,483.79
12.11640,483.57,487.23
12.13745,485.62,486.54
12.15840,484.66,484.34
12.17736,484.38,486.62
12.19894,486.73,485.48
12.21788,484.92,484.74
12.23849,484.82,486.18
12.25895,483.89,489.66
12.27858,485.74,488.24
12.29901,481.97,489.24
12.31890,485.15,486.38
12.33790,484.06,487.66
12.35866,482.87,485.69
12.37828,486.83,485.27
12.39729,485.18,486.09
12.41742,484.63,488.90
12.43734,487.30,485.23
12.45817,484.60,486.09
12.47838,486.32,486.11
12.49830,486.96,487.37
12.51740,489.23,483.26
12.53735,489.79,487.39
12.55708,488.46,486.11
12.57823,485.33,484.56
12.59879,485.78,483.67
12.61838,486.30,482.98
12.63786,483.58,485.06
12.65840,483.86,486.94
12.67797,484.02,486.20
12.69831,485.92,486.76
12.71865,484.66,485.43
12.73813,486.75,488.51
12.75843,487.66,487.66
12.77691,486.47,484.78
12.79804,484.84,485.00
12.81722,485.22,485.77
12.83803,486.62,484.61
12.85751,484.11,486.37
12.87740,483.00,487.66
12.89794,485.17,485.81
12.91707,483.48,485.57
12.93866,484.26,486.29
12.95862,487.66,484.11
12.97820,486.77,485.13
12.99844,485.06,486.34
13.01813,485.43,487.21
13.03711,485.18,484.51
13.05875,484.89,484.47
13.07806,487.18,486.35
13.09807,485.69,486.77
13.11737,484.47,489.08
13.13899,486.96,488.21
13.15782,484.65,485.43
13.17847,485.39,488.34
13.19748,484.13,484.60
13.21752,484.32,487.44
13.23822,487.14,485.84
13.25793,483.26,488.37
13.27872,487.12,486.73
13.29821,487.53,488.16
13.31874,485.51,489.98
13.33784,484.77,485.89
13.35850,483.81,487.24
13.37889,484.01,486.31
13.39802,487.34,484.60
13.41876,484.53,486.15
13.43724,485.17,485.91
13.45876,485.14,488.03
13.47842,483.78,486.19
13.49727,483.59,486.57
13.51832,484.49,486.44
13.53807,485.64,487.62
13.55798,485.20,487.54
13.57895,487.97,488.01
13.59696,486.70,484.76
13.61797,485.06,484.81
13.63846,486.29,484.12
13.65714,487.46,484.65
13.67721,489.34,486.34
13.69888,486.51,488.66
13.71833,484.96,485.89
13.73797,483.81,486.02
13.75805,486.12,486.63
13.77798,485.53,487.36
13.79814,487.56,486.04
13.81804,486.10,488.94
13.83785,484.32,486.22
13.85756,483.75,487.09
13.87854,483.78,486.61
13.89734,485.69,488.09
13.91736,488.11,485.45
13.93877,488.58,485.90
13.95699,489.63,487.84
13.97744,488.24,489.07
13.99766,487.35,488.19
14.01807,488.82,484.67
14.03678,490.55,487.35
14.05855,486.43,486.19
14.07817,488.02,484.61
14.09731,487.97,482.80
14.11747,487.79,482.88
14.13718,484.32,490.98
14.15847,485.19,504.59
14.17730,485.52,525.58
14.19882,488.14,550.03
14.21732,491.31,574.24
14.23788,490.96,590.95
14.25753,492.45,598.21
14.27819,495.46,595.05
14.29862,496.05,589.31
14.31852,494.93,575.43
14.33876,495.32,570.87
14.35892,495.79,560.42
14.37741,493.81,549.84
14.39702,495.59,538.32
14.41879,491.71,529.48
14.43895,491.37,519.18
14.45792,491.26,515.30
14.47722,489.26,511.61
14.49745,491.33,504.97
14.51680,487.95,500.21
14.53812,486.50,500.94
14.55897,485.59,499.74
14.57820,485.30,494.33
14.59812,486.35,495.61
14.61815,484.37,496.61
14.63834,487.90,494.40
14.65784,487.03,490.58
14.67760,484.70,491.26
14.69782,483.35,492.05
14.71725,484.00,491.40
14.73798,484.11,490.43
14.75780,484.08,492.93
14.77844,481.12,490.74
14.79755,483.07,488.57
14.81695,484.71,490.22
14.83845,483.19,487.42
14.85812,480.87,487.31
14.87852,482.20,485.63
14.89881,482.33,489.08
14.91765,482.09,487.87
14.93897,484.42,486.62
14.95847,481.97,487.41
14.97687,484.32,490.51
14.99790,483.88,488.92
15.01846,484.53,487.60
15.03698,484.84,488.62
15.05864,485.26,487.87
15.07878,482.69,489.38
15.09799,484.37,487.64
15.11735,485.99,487.34
15.13768,483.28,489.77
15.15824,483.50,488.85
15.17753,485.32,484.51
15.19706,483.77,470.07
15.21769,479.77,445.89
15.23759,477.18,423.33
15.25787,476.94,406.76
15.27756,475.21,396.09
15.29729,474.01,392.19
15.31860,470.42,396.27
15.33725,472.07,399.09
15.35811,471.54,401.25
15.37731,474.70,410.88
15.39741,474.32,418.82
15.41710,475.22,426.09
15.43767,476.40,429.87
15.45813,480.44,436.85
15.47807,481.65,443.49
15.49749,481.13,446.62
15.51877,482.63,453.56
15.53776,481.04,458.57
15.55837,481.73,461.48
15.57877,483.46,465.27
15.59810,484.43,467.04
15.61809,485.14,471.61
15.63891,485.00,474.11
15.65796,483.23,476.39
15.67722,482.93,478.30
15.69868,486.60,483.69
15.71728,484.12,484.29
15.73807,483.74,483.14
15.75734,486.69,484.25
15.77752,485.52,488.25
15.79826,483.31,489.53
15.81974,483.79,486.93
15.83804,485.46,487.73
15.85897,483.51,490.41
15.87923,483.76,489.33
15.89884,480.40,487.76
15.91855,479.87,485.28
15.93894,481.97,484.68
15.95820,478.00,484.81
15.97913,477.99,483.75
15.99969,477.82,483.60
16.01940,481.76,485.35
16.03887,480.71,485.82
16.05848,480.08,484.60
16.07813,481.63,485.62
16.09918,478.61,486.38
16.11847,479.45,485.61
16.13926,481.39,485.45
16.15947,480.30,488.15
16.18021,480.05,485.98
16.19804,481.87,486.69
16.21938,482.40,484.71
16.23795,480.62,487.06
16.25959,482.38,482.93
16.27933,480.72,485.00
16.29881,480.17,483.75
16.31863,481.41,483.67
16.33871,480.24,487.60
16.35936,480.91,486.17
16.37957,479.08,485.38
16.39940,482.65,486.96
16.41959,481.42,487.47
16.43827,479.25,482.61
16.45852,481.91,484.76
16.47956,479.19,483.98
16.49885,478.29,481.91
16.51930,477.41,483.76
16.53974,478.77,483.42
16.55939,479.24,484.73
16.57793,479.60,486.26
16.59928,475.75,487.84
16.61882,480.13,488.91
16.63864,478.73,488.78
16.65948,479.80,489.03
16.68004,479.61,489.24
16.69904,480.40,487.01
16.72081,480.23,489.02
16.73908,478.74,488.67
16.76054,478.61,487.15
16.77942,479.37,482.88
16.80057,477.26,485.15
16.82042,476.89,485.00
16.84022,478.18,484.52
16.85996,475.09,484.23
16.87994,477.76,483.22
16.89982,475.98,481.18
16.92034,474.64,482.68
16.94023,477.65,484.12
16.95937,474.52,484.27
16.97972,475.07,485.71
16.99943,478.42,482.24
17.02030,477.29,481.08
17.04026,474.98,481.83
17.06085,477.69,484.45
17.08039,473.54,483.14
17.09995,476.82,482.04
17.11929,474.23,485.34
17.13929,475.96,485.18
17.16015,478.29,484.45
17.17897,479.35,485.00
17.20005,480.33,487.38
17.22006,476.11,485.88
17.23893,476.05,483.58
17.26011,474.66,484.97
17.27905,474.26,486.02
17.30004,476.19,485.08
17.32075,473.51,485.29
17.33969,474.88,483.52
17.36050,473.99,484.43
17.37948,475.69,485.45
17.39964,474.67,486.07
17.42046,472.87,483.05
17.43925,475.53,485.63
17.45953,475.86,483.80
17.47959,471.62,484.63
17.49988,471.99,485.61
17.51922,470.89,484.16
17.53910,472.38,484.05
17.55964,475.42,485.80
17.57986,474.05,486.29
17.59910,476.34,485.40
17.61913,473.18,488.62
17.63923,476.26,484.79
17.65963,473.52,486.92
17.67981,471.69,486.26
17.70022,472.66,482.62
17.71928,472.99,484.11
17.74001,475.35,484.00
17.76017,471.87,483.71
17.77904,469.64,484.10
17.80049,469.82,486.79
17.82007,470.07,486.18
17.84060,471.78,484.37
17.85930,472.73,485.40
17.88052,472.89,485.45
17.90024,472.08,486.45
17.92036,470.87,486.32
17.93974,469.27,486.29
17.96019,471.48,485.45
17.98067,472.33,484.92
17.99947,470.40,486.16
18.02077,470.35,485.33
18.04007,472.14,485.35
18.05897,471.17,482.20
18.08079,471.87,486.36
18.10084,472.05,484.03
18.12054,474.01,486.52
18.14038,471.76,485.88
18.15983,472.75,484.85
18.18027,474.52,484.86
18.20031,472.36,483.58
18.22047,472.73,483.98
18.23898,472.21,483.00
18.25935,473.90,483.40
18.27939,470.73,484.51
18.30003,472.76,484.34
18.32035,472.26,485.36
18.33891,472.64,484.96
18.35987,472.92,485.34
18.37914,472.63,484.02
18.39973,468.56,483.03
18.42040,470.78,483.77
18.43931,468.76,483.63
18.45904,468.81,482.56
18.48014,469.24,482.66
18.49927,470.40,485.27
18.52011,469.00,485.20
18.53926,471.46,484.56
18.55973,472.68,482.79
18.57959,473.52,483.90
18.60084,469.48,481.61
18.61960,470.26,483.39
18.64019,472.65,482.00
18.66083,473.06,480.80
18.67991,472.89,481.87
18.69959,471.73,481.14
18.71965,470.79,481.89
18.73938,471.99,481.18
18.75915,472.84,481.54
18.78069,470.27,480.43
18.80047,471.53,481.37
18.82048,470.74,481.68
18.83917,473.64,478.65
18.85925,474.03,477.73
18.87965,472.15,476.06
18.89930,472.05,474.62
18.92002,470.94,472.93
18.93927,473.15,470.62
18.95884,472.11,472.66
18.98078,471.09,473.04
18.99889,472.14,473.09
19.02048,472.90,479.20
19.04027,472.03,495.07
19.06084,473.25,522.80
19.08268,477.80,546.54
19.10205,479.45,554.40
19.12285,481.68,563.41
19.14232,481.54,567.26
19.16162,480.27,563.19
19.18197,475.59,556.04
19.20201,477.31,549.04
19.22222,473.17,545.04
19.24177,470.68,537.36
19.26196,469.43,528.07
19.28275,467.96,523.42
19.30108,467.12,515.70
19.32279,465.67,508.81
19.34287,469.27,507.59
19.36265,468.14,500.62
19.38218,468.32,501.66
19.40216,468.38,498.50
19.42245,467.54,495.63
19.44224,464.91,489.48
19.46374,464.16,490.99
19.48204,463.33,490.51
19.50370,466.05,488.68
19.52381,463.43,486.23
19.54309,463.65,486.37
19.56206,464.48,484.61
19.58289,464.67,486.22
19.60376,464.84,487.31
19.62354,463.81,487.09
19.64371,464.42,486.98
19.66201,462.77,486.88
19.68273,462.86,484.37
19.70293,464.89,483.58
19.72329,465.17,484.82
19.74298,464.71,483.85
19.76241,466.27,485.37
19.78279,467.98,483.65
19.80211,463.26,479.43
19.82218,463.32,482.07
19.84233,465.73,484.01
19.86240,463.41,478.97
19.88245,466.47,480.98
19.90299,463.13,482.44
19.92333,464.04,477.25
19.94317,465.05,480.46
19.96318,464.69,483.81
19.98365,466.22,485.03
20.00366,466.14,484.08
20.02192,465.15,483.30
20.04319,466.51,484.61
20.06355,468.55,484.88
20.08277,466.14,479.74
20.10198,464.65,463.02
20.12384,461.61,442.25
20.14332,456.94,423.90
20.16222,453.71,409.41
20.18191,454.71,402.78
20.20195,451.62,403.01
20.22196,452.00,402.53
20.24327,455.50,403.19
20.26314,455.17,408.83
20.28319,453.88,412.40
20.30297,457.52,418.97
20.32237,456.87,422.75
20.34369,456.21,428.08
20.36199,456.00,434.84
20.38361,458.88,437.97
20.40254,460.52,443.51
20.42246,459.59,445.02
20.44337,461.72,452.88
20.46314,460.16,455.19
20.48386,463.31,459.55
20.50196,462.68,462.26
20.52332,462.72,463.87
20.54279,463.92,466.23
20.56179,464.29,466.87
20.58346,466.12,470.70
20.60214,466.06,470.35
20.62390,462.69,472.86
20.64369,462.26,473.49
20.66269,463.67,474.19
20.68185,465.46,474.36
20.70312,463.30,473.64
20.72250,463.28,473.42
20.74264,464.38,476.72
20.76373,464.67,473.80
20.78228,467.22,476.85
20.80371,464.79,476.28
20.82278,467.27,477.06
20.84267,463.94,476.29
20.86242,463.44,477.37
20.88198,467.66,478.66
20.90323,464.44,476.36
20.92277,467.14,479.28
20.94213,464.07,477.15
20.96240,465.84,479.72
20.98237,468.56,479.34
21.00256,467.91,476.21
21.02374,466.66,478.72
21.04304,467.03,479.19
21.06217,466.73,478.11
21.08222,465.70,477.43
21.10210,463.46,477.84
21.12321,467.46,479.20
21.14266,465.34,477.44
21.16263,463.19,480.60
21.18354,464.96,478.17
21.20432,465.58,481.02
21.22380,466.94,481.33
21.24447,464.52,478.98
21.26444,465.31,480.38
21.28535,466.91,481.83
21.30395,468.08,479.56
21.32483,469.07,480.55
21.34375,470.13,478.93
21.36619,469.99,479.62
21.38600,470.16,479.72
21.40625,471.60,479.86
21.42466,475.09,478.48
21.44603,475.62,478.38
21.46553,474.96,480.21
21.48542,474.75,480.85
21.50654,475.62,480.54
21.52662,476.94,479.42
21.54605,474.96,480.56
21.56616,475.02,480.50
21.58667,474.73,478.91
21.60742,474.64,479.78
21.62869,479.58,481.57
21.64705,478.42,480.95
21.66758,477.45,482.94
21.68758,479.35,481.77
21.70773,480.94,484.44
21.72792,480.77,484.13
21.74821,481.45,483.88
21.76704,480.23,483.85
21.78799,481.66,484.41
21.80730,480.78,485.58
21.82834,480.91,482.34
21.84846,479.53,484.12
21.86769,478.97,483.79
21.88743,480.05,486.71
21.90820,480.53,482.09
21.92848,481.73,481.78
21.94809,483.73,485.00
21.96837,482.05,484.70
21.98855,483.98,484.47
22.00855,481.01,483.87
22.02797,482.29,485.84
22.04832,482.44,484.90
22.06792,481.51,485.18
22.08825,481.34,482.59
22.10860,481.25,486.68
22.12720,483.61,485.60
22.14916,484.03,485.87
22.16871,485.89,485.12
22.18923,485.45,488.14
22.20976,486.43,488.05
22.22932,487.48,487.70
22.24828,486.51,488.58
22.26784,484.90,486.50
22.28858,482.83,489.08
22.30850,483.49,486.16
22.32782,484.96,487.24
22.34862,480.34,487.08
22.36868,479.56,488.40
22.38980,480.63,488.01
22.40823,479.67,484.74
22.42857,481.32,485.27
22.44966,482.51,482.91
22.46897,482.19,483.21
22.48937,482.85,485.52
22.50961,483.47,486.92
22.52937,482.84,485.32
22.54889,484.66,489.63
22.56801,482.41,484.92
22.58768,483.52,486.29
22.60938,480.35,485.53
22.62850,482.52,486.41
22.64853,483.18,488.33
22.66950,484.35,484.40
22.68886,485.48,486.32
22.70819,484.17,485.97
22.72957,484.54,483.40
22.74942,482.75,485.68
22.76958,482.48,485.36
22.78869,481.72,487.56
22.80913,482.27,484.36
22.82946,482.41,485.31
22.84805,485.11,484.65
22.86904,481.27,485.30
22.88799,481.90,483.17
22.90940,484.35,482.53
22.92785,482.86,483.15
22.94968,482.07,483.84
22.96817,482.60,484.76
22.98948,484.25,482.81
23.00785,482.46,482.42
23.02872,482.14,482.95
23.04955,484.30,483.06
23.06855,485.24,483.86
23.08863,483.38,483.49
23.10969,485.52,483.81
23.12961,485.25,486.86
23.14895,483.24,483.58
23.16931,482.44,485.22
23.18965,487.00,488.16
23.20828,486.52,497.37
23.22909,489.13,511.94
23.24868,488.55,525.94
23.26850,489.50,538.44
23.28880,489.73,546.34
23.30799,488.16,552.74
23.32926,491.60,558.03
23.34792,490.79,556.06
23.36882,492.44,556.21
23.38942,494.18,553.34
23.40963,493.20,552.01
23.42908,496.84,552.62
23.44799,496.91,549.81
23.46965,496.41,544.96
23.48953,497.04,544.54
23.50817,493.23,539.09
23.52833,494.07,535.62
23.54788,496.67,530.12
23.56844,497.17,533.21
23.58958,498.06,525.09
23.60925,496.07,527.26
23.62923,497.33,524.04
23.65007,494.78,521.47
23.66884,491.85,517.83
23.69001,492.95,514.33
23.70957,490.72,511.72
23.73058,489.50,512.82
23.75020,488.84,507.39
23.77016,490.14,506.01
23.78991,487.23,504.30
23.81055,490.69,502.91
23.82905,491.30,499.14
23.84904,488.95,494.46
23.87037,488.93,497.59
23.88869,484.38,496.15
23.91163,484.69,495.10
23.93191,484.82,496.53
23.95120,486.06,495.83
23.97100,483.67,498.59
23.99055,486.80,495.36
24.01039,485.55,495.95
24.03003,482.85,493.69
24.04973,485.38,492.79
24.07114,484.63,490.34
24.09068,487.27,491.22
24.11112,484.68,493.09
24.13081,485.50,491.39
24.15235,487.52,489.17
24.17182,486.08,487.43
24.19208,484.89,487.21
24.21252,486.85,482.33
24.23148,483.42,465.56
24.25158,479.52,450.99
24.27123,477.36,438.23
24.29134,476.31,422.62
24.31150,474.28,411.27
24.33131,469.96,398.66
24.35182,467.42,393.98
24.37221,467.63,385.50
24.39171,469.39,383.30
24.41165,468.58,382.94
24.43136,468.68,390.20
24.45215,469.74,394.95
24.47135,471.13,400.57
24.49124,471.75,406.82
24.51115,475.14,410.43
24.53190,475.60,417.87
24.55140,476.56,424.34
24.57174,475.10,430.53
24.59177,476.49,436.33
24.61112,476.22,440.53
24.63160,478.54,446.22
24.65262,478.31,449.46
24.67270,478.84,451.43
24.69181,478.33,455.37
24.71245,478.56,461.07
24.73089,479.78,465.23
24.75237,479.14,468.08
24.77238,479.20,472.59
24.79157,482.82,475.45
24.81258,484.77,480.06
24.83234,486.98,484.55
24.85182,490.87,486.13
24.87187,490.28,486.90
24.89195,493.77,488.71
24.91092,496.20,488.14
24.93263,494.85,489.98
24.95098,491.50,487.56
24.97088,493.58,487.20
24.99183,490.19,487.71
25.01130,489.49,485.59
25.03130,486.37,486.11
25.05237,486.37,485.24
25.07143,487.47,485.09
25.09144,489.00,484.86
25.11269,486.42,483.80
25.13188,488.16,481.80
25.15115,485.52,482.87
25.17174,485.93,483.03
25.19100,484.92,484.63
25.21183,484.31,484.69
25.23259,486.85,485.94
25.25242,483.59,486.14
25.27223,484.33,487.16
25.29266,485.54,487.39
25.31266,483.31,483.47
25.33212,483.78,486.76
25.35144,481.09,485.44
25.37087,482.02,483.40
25.39132,481.37,484.98
25.41141,483.87,484.39
25.43223,480.22,482.14
25.45125,482.33,482.58
25.47081,481.80,482.12
25.49089,483.00,482.15
25.51201,480.34,481.43
25.53120,481.39,484.46
25.55154,483.84,481.37
25.57106,482.03,484.65
25.59108,483.93,482.15
25.61126,483.50,483.19
25.63265,483.57,482.23
25.65197,485.72,481.74
25.67084,484.37,483.42
25.69119,482.61,483.32
25.71226,482.06,483.01
25.73202,485.05,484.96
25.75247,482.99,485.79
25.77155,483.67,486.77
25.79137,485.42,484.72
25.81087,482.91,488.36
25.83182,483.44,486.30
25.85251,482.20,484.85
25.87206,484.00,485.63
25.89120,481.82,486.07
25.91215,485.24,484.74
25.93150,482.19,486.58
25.95159,484.48,484.59
25.97219,484.37,487.15
25.99132,484.33,485.73
26.01239,481.66,483.07
26.03089,480.28,482.35
26.05092,482.71,484.56
26.07258,483.48,482.47
26.09089,483.59,482.69
26.11105,483.28,480.86
26.13108,484.62,480.13
26.15190,481.20,485.01
26.17214,480.56,483.80
26.19246,481.30,484.83
26.21119,478.62,483.39
26.23259,478.80,483.06
26.25221,481.52,484.18
26.27130,478.57,484.64
26.29246,482.74,483.90
26.31057,482.79,487.33
26.33184,482.63,484.09
26.35190,481.97,486.69
26.37132,481.09,482.49
26.39145,482.06,482.60
26.41100,480.16,484.61
26.43292,479.35,485.69
26.45175,479.64,484.46
26.47229,479.60,483.99
26.49269,479.67,486.28
26.51187,478.94,487.36
26.53357,474.36,483.70
26.55196,474.50,484.05
26.57200,478.28,485.49
26.59202,475.70,486.76
26.61225,476.52,483.71
26.63313,480.29,484.77
26.65225,479.14,486.41
26.67228,477.80,487.25
26.69228,480.65,488.24
26.71165,481.25,485.71
26.73285,477.75,485.17
26.75201,479.15,487.96
26.77320,479.50,486.07
26.79290,479.03,487.02
26.81321,479.53,487.41
26.83359,481.28,488.48
26.85300,480.00,487.97
26.87192,481.71,488.00
26.89375,480.22,484.89
26.91307,477.61,485.47
26.93311,476.24,487.14
26.95312,477.67,482.23
26.97360,478.91,485.81
26.99223,478.30,484.19
27.01335,478.39,482.45
27.03233,475.74,484.02
27.05260,478.76,483.66
27.07228,475.66,484.24
27.09232,476.60,486.48
27.11304,478.36,483.20
27.13249,477.05,481.76
27.15316,474.95,484.78
27.17327,474.88,479.94
27.19266,477.69,482.72
27.21171,475.43,499.87
27.23279,476.70,529.37
27.25251,476.86,560.25
27.27379,480.64,579.72
27.29363,482.20,594.01
27.31147,481.58,595.85
27.33280,481.88,594.38
27.35338,479.75,589.63
27.37304,481.89,584.46
27.39205,481.98,577.14
27.41317,480.39,566.87
27.43233,481.67,562.43
27.45231,481.85,552.14
27.47215,482.08,545.97
27.49298,484.44,543.40
27.51266,487.34,534.97
27.53226,488.70,531.00
27.55227,484.99,524.24
27.57278,487.24,521.60
27.59306,485.69,516.55
27.61173,486.36,511.86
27.63338,484.26,509.27
27.65288,482.90,509.43
27.67328,483.25,505.06
27.69287,481.36,500.34
27.71279,479.12,498.64
27.73199,476.55,494.63
27.75328,476.99,496.29
27.77289,477.52,495.84
27.79361,478.65,491.28
27.81302,475.88,491.18
27.83178,475.99,491.86
27.85198,477.06,494.54
27.87367,477.56,489.95
27.89317,477.67,493.13
27.91223,474.51,486.50
27.93286,473.39,489.01
27.95281,473.66,486.07
27.97277,476.93,485.74
27.99284,473.20,486.15
28.01232,476.76,484.91
28.03201,476.68,483.31
28.05178,476.89,485.77
28.07273,473.65,484.60
28.09236,474.49,483.00
28.11206,473.85,483.22
28.13325,477.01,483.79
28.15212,477.14,485.11
28.17256,473.14,485.77
28.19322,474.28,483.48
28.21358,473.47,488.86
28.23264,471.60,493.53
28.25244,472.99,502.22
28.27198,474.10,501.94
28.29216,473.44,494.66
28.31302,471.47,463.79
28.33322,467.72,430.56
28.35232,464.10,398.57
28.37317,461.76,378.94
28.39408,462.91,368.20
28.41299,462.58,365.78
28.43295,463.45,367.82
28.45331,463.54,370.80
28.47364,463.31,380.43
28.49427,462.79,385.34
28.51328,462.35,397.79
28.53423,464.72,404.68
28.55457,466.16,413.09
28.57400,465.73,421.42
28.59406,463.29,428.79
28.61570,465.80,435.66
28.63515,459.80,442.54
28.65380,451.34,452.55
28.67402,449.31,455.42
28.69434,446.74,461.73
28.71441,444.98,464.70
28.73412,445.54,467.91
28.75488,445.06,471.42
28.77507,447.42,470.26
28.79530,448.18,471.80
28.81560,449.56,473.19
28.83520,450.39,474.18
28.85467,449.43,477.16
28.87390,452.82,472.81
28.89525,453.80,477.75
28.91537,454.49,476.16
28.93416,456.27,476.56
28.95390,460.87,476.97
28.97352,460.90,476.91
28.99409,459.74,478.65
29.01461,463.28,480.15
29.03449,463.68,482.16
29.05530,464.82,484.48
29.07505,464.63,482.35
29.09454,464.85,483.87
29.11543,465.88,481.15
29.13425,464.26,481.56
29.15527,467.79,482.94
29.17436,466.22,480.21
29.19461,467.14,481.67
29.21508,466.50,479.77
29.23511,463.91,481.72
29.25393,465.00,482.39
29.27487,464.38,480.79
29.29385,465.51,485.71
29.31527,464.00,484.08
29.33404,462.21,485.67
29.35464,470.54,484.03
29.37422,479.95,481.48
29.39516,482.20,481.98
29.41539,487.20,480.13
29.43391,488.34,478.57
29.45515,486.58,479.90
29.47478,484.74,477.57
29.49538,484.75,476.84
29.51430,482.20,479.46
29.53388,484.57,478.11
29.55371,481.96,477.17
29.57427,481.34,478.96
29.59460,480.20,478.95
29.61385,477.24,479.17
29.63568,474.34,479.53
29.65410,473.72,479.16
29.67410,470.59,479.58
29.69381,471.54,479.87
29.71522,467.61,479.90
29.73431,466.67,479.81
29.75537,466.75,481.58
29.77382,468.54,479.37
29.79378,470.21,481.91
29.81377,466.60,482.03
29.83460,467.05,480.73
29.85466,465.42,479.82
29.87409,466.62,482.34
29.89355,470.19,478.97
29.91468,468.20,481.65
29.93492,469.40,482.53
29.95512,466.46,481.31
29.97558,467.24,479.08
29.99414,468.75,479.03
30.01399,469.74,480.32
30.03548,466.92,481.30
30.05495,468.30,478.94
30.07500,468.65,480.41
30.09410,467.56,479.61
30.11462,466.43,480.54
30.13357,465.19,479.13
30.15451,464.50,479.21
30.17494,466.73,483.01
30.19373,467.21,483.37
30.21402,465.42,480.13
30.23541,466.66,481.06
30.25393,463.95,481.54
30.27396,464.38,482.25
30.29483,463.98,481.01
30.31462,464.23,479.34
30.33399,463.85,478.80
30.35502,465.48,479.74
30.37496,463.23,479.98
30.39456,467.21,480.69
30.41495,463.14,480.93
30.43445,466.65,481.21
30.45373,464.07,482.54
30.47459,465.18,481.68
30.49468,466.16,480.75
30.51544,466.01,482.14
30.53427,466.30,482.40
30.55369,466.95,480.08
30.57439,468.45,479.54
30.59527,466.18,478.02
30.61561,464.42,481.67
30.63360,465.16,481.02
30.65532,466.14,481.54
30.67461,467.13,481.22
30.69390,465.42,481.51
30.71509,469.99,482.13
30.73393,469.37,481.58
30.75405,467.00,479.66
30.77538,465.41,481.90
30.79501,464.82,482.21
30.81436,466.71,482.68
30.83530,463.46,483.04
30.85483,466.26,480.49
30.87442,465.22,479.77
30.89438,462.75,482.47
30.91519,461.90,478.55
30.93494,465.34,481.48
30.95378,463.35,479.58
30.97482,462.50,480.64
30.99522,464.37,479.75
31.01559,464.89,478.98
31.03566,464.39,479.72
31.05488,463.13,479.76
31.07481,462.96,479.90
31.09342,466.98,480.61
31.11445,466.06,481.73
31.13498,464.81,481.33
31.15417,463.35,477.99
31.17486,463.14,480.83
31.19436,466.32,479.37
31.21528,463.03,478.08
31.23553,462.66,479.73
31.25473,464.95,478.77
31.27449,464.49,476.95
31.29441,467.27,475.86
31.31456,464.35,478.39
31.33522,463.51,475.61
31.35453,465.84,473.59
31.37503,466.13,480.02
31.39516,464.59,492.39
31.41450,465.66,508.73
31.43530,467.49,530.83
31.45401,464.39,551.23
31.47412,467.83,570.66
31.49373,465.07,582.55
31.51502,465.27,587.89
31.53465,466.30,593.74
31.55466,466.76,589.47
31.57533,469.18,585.68
31.59370,468.35,578.34
31.61560,471.22,568.09
31.63447,474.61,556.70
31.65430,473.81,547.32
31.67399,474.33,535.18
31.69412,476.04,528.68
31.71621,477.37,525.55
31.73507,476.92,515.04
31.75480,475.75,508.91
31.77508,474.54,505.16
31.79685,475.92,499.29
31.81690,471.98,497.49
31.83673,471.97,495.71
31.85656,475.22,495.96
31.87868,474.08,494.53
31.89861,474.38,491.12
31.91922,478.06,490.45
31.93879,478.69,488.93
31.95902,476.50,487.81
31.97982,479.63,483.84
31.99984,480.92,485.77
32.02045,479.91,484.03
32.03866,480.81,485.12
32.05947,480.43,486.68
32.08023,480.62,485.21
32.10003,481.89,485.97
32.11963,482.05,485.94
32.13950,481.73,486.00
32.16020,484.12,485.05
32.17927,481.76,482.64
32.20122,482.35,485.14
32.22004,483.08,485.95
32.23990,480.57,485.57
32.26099,481.50,485.53
32.27974,481.79,482.11
32.30079,479.54,484.75
32.32014,482.84,485.08
32.34046,480.14,485.20
32.36040,481.03,484.78
32.38025,481.75,485.93
32.40142,484.73,486.14
32.42005,481.84,484.83
32.44149,481.70,483.23
32.46050,484.07,476.26
32.48055,478.58,454.48
32.50100,478.26,430.51
32.52005,475.64,407.29
32.54045,473.25,386.72
32.56107,471.55,375.51
32.58059,468.66,374.00
32.60238,470.12,372.03
32.62255,472.37,379.44
32.64235,472.06,384.69
32.66168,475.42,391.85
32.68061,476.17,399.34
32.70169,478.35,408.01
32.72050,479.19,413.64
32.74062,479.33,422.38
32.76104,479.93,430.87
32.78173,480.46,437.41
32.80243,482.39,440.97
32.82411,481.58,447.35
32.84364,481.05,452.99
32.86629,483.42,459.26
32.88592,483.59,460.26
32.90713,481.44,467.11
32.92597,479.70,468.78
32.94668,480.85,471.72
32.96600,478.43,472.56
32.98700,478.04,475.39
33.00801,476.63,478.84
33.02830,479.28,476.74
33.04729,479.50,475.61
33.06781,476.40,477.66
33.08748,478.20,478.26
33.10830,477.07,478.40
33.12665,476.74,480.29
33.14664,477.19,480.67
33.16716,478.66,482.08
33.18649,477.45,480.75
33.20894,477.90,480.38
33.22833,476.25,483.54
33.24897,476.04,480.56
33.26820,474.89,484.04
33.28778,474.42,484.14
33.30795,472.69,481.45
33.32880,475.36,482.95
33.34788,474.99,481.20
33.36842,476.70,481.30
33.38916,477.07,483.74
33.40799,474.54,484.04
33.42809,474.43,482.86
33.44936,473.77,481.61
33.46920,474.17,481.41
33.48775,473.39,483.65
33.50882,471.83,485.64
33.52870,473.58,482.53
33.54892,473.54,485.03
33.56940,474.66,486.11
33.58840,471.69,487.10
33.60761,468.94,488.77
33.62938,468.86,485.31
33.64806,471.50,486.21
33.66732,470.33,484.86
33.68745,469.72,483.57
33.70968,469.30,483.08
33.73129,470.58,485.10
33.75039,470.84,483.96
33.77030,468.30,484.01
33.79063,470.04,483.07
33.81033,467.26,482.34
33.82972,466.73,483.27
33.84944,466.98,483.51
33.86981,464.08,483.67
33.89140,464.91,482.38
33.91152,464.77,483.30
33.93168,464.50,484.77
33.95429,465.85,480.78
33.97402,463.22,483.36
33.99396,463.92,482.28
34.01245,465.64,479.54
34.03327,464.06,481.27
34.05277,465.23,481.20
34.07297,467.03,481.96
34.09435,465.42,481.75
34.11307,462.41,479.03
34.13339,462.30,479.97
34.15356,463.31,479.16
34.17280,464.89,478.93
34.19350,464.65,477.77
34.21250,464.65,478.75
34.23378,465.43,477.99
34.25306,466.51,475.43
34.27311,466.36,479.76
34.29397,464.41,477.26
34.31433,465.14,476.02
34.33261,465.05,476.07
34.35253,466.38,477.75
34.37413,465.15,476.57
34.39297,465.95,474.80
34.41317,467.07,475.06
34.43251,464.64,476.66
34.45285,467.00,474.50
34.47251,468.62,475.00
34.49357,469.42,474.47
34.51443,468.63,474.91
34.53306,469.41,472.80
34.55346,467.31,475.14
34.57237,469.24,473.77
34.59398,469.02,472.24
34.61382,470.26,475.38
34.63548,468.56,474.47
34.65610,470.32,477.10
34.67829,475.59,478.65
34.69686,476.70,480.87
34.71740,475.28,480.00
34.73806,476.95,477.73
34.75807,478.63,479.54
34.77697,479.39,478.42
34.79742,479.31,478.94
34.81893,479.62,478.36
34.83875,481.13,479.64
34.85723,482.82,483.79
34.87755,483.91,482.13
34.89784,483.58,481.56
34.91875,484.25,482.54
34.93836,481.35,484.02
34.95837,481.30,481.12
34.97958,482.39,480.85
34.99770,481.56,482.45
35.01922,484.90,484.83
35.03792,487.03,484.42
35.05948,483.85,482.37
35.07870,483.30,482.67
35.09774,482.15,484.69
35.11811,482.54,482.48
35.13909,482.40,482.68
35.15762,482.33,480.92
35.17818,483.85,482.17
35.19873,481.81,481.99
35.21832,484.18,482.94
35.23865,484.87,483.88
35.25826,484.22,483.42
35.27786,482.66,482.84
35.29882,484.78,482.97
35.31926,484.37,481.62
35.33804,483.69,485.02
35.35886,483.24,485.66
35.37750,484.44,486.47
35.39903,482.34,486.02
35.41834,485.02,483.39
35.43765,486.23,484.43
35.45832,483.49,482.86
35.47825,482.93,484.88
35.49785,484.00,484.84
35.51796,487.10,486.45
35.53936,485.12,487.51
35.55873,484.58,486.71
35.57881,485.90,484.98
35.59828,485.89,484.02
35.61760,487.18,484.13
35.63792,484.42,484.79
35.65823,485.63,486.52
35.67915,484.72,485.06
35.69845,487.61,486.27
35.71856,488.06,485.24
35.73753,485.59,486.22
35.75822,485.09,485.49
35.77851,487.86,487.01
35.79800,486.67,482.89
35.81836,487.87,484.63
35.83798,486.86,492.57
35.85803,490.39,512.11
35.87864,489.23,537.55
35.89772,489.18,560.08
35.91859,490.95,579.27
35.93778,493.46,585.34
35.95911,490.33,588.03
35.97905,488.94,588.02
35.99721,490.32,584.16
36.01846,493.62,576.43
36.03871,490.07,564.94
36.05915,494.20,557.75
36.07881,491.12,554.09
36.09816,493.51,545.51
36.11761,491.91,533.45
36.13945,492.20,529.47
36.15834,489.41,521.85
36.17801,492.24,517.08
36.19807,490.17,511.08
36.21835,492.87,508.81
36.23856,491.51,504.18
36.25819,489.29,501.00
36.27752,489.02,501.49
36.29752,486.41,501.06
36.31819,488.79,499.41
36.33849,486.28,495.53
36.35740,485.31,495.78
36.37734,489.40,495.74
36.39925,488.69,492.96
36.41916,486.21,494.60
36.43800,487.73,492.55
36.45912,490.37,491.91
36.47829,489.12,491.43
36.49902,492.37,491.52
36.51849,490.04,490.85
36.53772,490.91,492.71
36.55900,490.92,491.35
36.57800,488.42,490.36
36.59833,492.42,492.40
36.61894,487.59,490.78
36.63867,487.97,488.59
36.65907,486.11,487.84
36.67897,488.28,487.31
36.69838,487.48,487.60
36.71836,486.79,489.46
36.73875,485.60,488.79
36.75784,484.71,489.40
36.77821,486.30,489.20
36.79738,489.39,491.04
36.81927,489.39,492.83
36.83950,486.80,484.32
36.85757,486.00,463.85
36.87766,483.78,437.51
36.89939,484.09,413.13
36.91913,482.49,393.63
36.93932,479.62,384.56
36.96007,481.08,381.65
36.97871,478.14,383.90
36.99994,478.10,387.40
37.02036,481.47,393.98
37.03921,482.55,402.10
37.05955,479.50,408.78
37.07967,482.32,418.02
37.09939,481.98,422.77
37.11992,483.72,432.53
37.13968,482.85,436.52
37.15968,484.81,446.74
37.17933,483.83,452.99
37.19857,483.77,457.22
37.21991,485.31,460.18
37.23826,486.25,464.34
37.25931,484.89,467.84
37.27887,483.40,472.00
37.29856,486.73,474.10
37.31955,488.09,477.95
37.33932,488.56,477.43
37.35972,486.77,482.59
37.37989,484.27,480.03
37.39967,484.10,480.85
37.41864,483.54,482.42
37.43956,486.22,482.66
37.45843,483.26,483.49
37.47950,483.49,486.84
37.49998,481.41,486.86
37.51916,481.91,486.98
37.54001,480.89,488.25
37.55877,482.40,487.88
37.58008,481.55,485.81
37.60018,481.76,484.66
37.61915,483.17,488.57
37.63954,485.58,488.05
37.65847,484.67,488.68
37.67983,483.10,489.15
37.70027,483.12,487.07
37.71962,486.12,488.36
37.73976,485.95,489.32
37.76013,487.39,484.41
37.77892,483.01,487.25
37.80038,483.96,486.37
37.81944,482.82,487.70
37.83998,484.53,486.67
37.86050,483.68,488.83
37.88040,484.71,486.90
37.90043,482.04,486.74
37.92081,485.55,487.64
37.94043,483.31,488.98
37.96098,480.64,488.98
37.98013,481.20,485.73
38.00094,481.51,484.50
38.01993,478.31,483.95
38.04139,479.62,484.25
38.05947,478.14,485.36
38.07989,481.58,485.20
38.10118,479.62,487.06
38.11989,479.69,484.83
38.14111,477.68,484.96
38.15979,478.53,488.02
38.18091,478.10,489.69
38.20073,476.90,485.74
38.22062,478.53,485.77
38.24197,481.76,486.01
38.26052,480.86,487.10
38.28071,480.71,486.86
38.30081,481.12,486.45
38.32086,480.52,486.98
38.34161,477.73,488.43
38.36188,477.93,487.01
38.38043,478.30,487.94
38.40113,478.71,486.75
38.42218,480.98,489.19
38.44225,480.51,488.63
38.46129,480.94,486.32
38.48192,478.72,487.62
38.50130,478.64,484.79
38.52118,480.22,484.32
38.54091,481.41,486.43
38.56092,482.13,487.54
38.58132,479.15,486.99
38.60092,478.94,485.61
38.62087,478.63,484.10
38.64194,481.05,485.38
38.66216,480.29,487.25
38.68145,477.94,485.25
38.70105,478.33,486.70
38.72056,477.68,486.31
38.74189,478.16,485.29
38.76059,479.59,486.97
38.78233,479.32,486.32
38.80161,481.03,488.34
38.82165,478.90,485.94
38.84138,479.86,487.71
38.86085,477.96,484.37
38.88125,480.33,486.99
38.90233,476.93,487.18
38.92187,478.50,485.73
38.94046,476.62,486.31
38.96113,477.25,486.09
38.98078,479.04,488.30
39.00145,478.11,486.28
39.02065,475.73,485.82
39.04079,478.46,486.96
39.06031,477.09,483.70
39.08073,480.36,486.84
39.10151,477.43,488.18
39.12049,478.00,486.18
39.14223,475.86,486.53
39.16177,477.81,484.12
39.18163,478.15,485.39
39.20053,477.43,486.68
39.22112,475.79,484.54
39.24206,477.96,484.15
39.26145,479.30,484.64
39.28162,476.70,485.94
39.30145,477.27,483.90
39.32226,476.63,486.96
39.34106,476.35,485.13
39.36215,474.85,484.93
39.38053,475.46,485.61
39.40102,477.03,485.15
39.42147,474.73,486.00
39.44146,476.96,487.99
39.46076,474.90,487.97
39.48208,476.86,487.60
39.50139,475.52,485.06
39.52202,476.14,488.31
39.54135,477.73,487.89
39.56135,475.06,486.09
39.58167,473.94,488.83
39.60107,473.71,486.00
39.62139,476.12,486.82
39.64211,475.37,487.82
39.66086,475.89,484.00
39.68077,477.86,486.95
39.70144,477.29,487.78
39.72145,475.25,484.62
39.74213,476.87,484.97
39.76144,475.20,485.83
39.78202,477.32,487.88
39.80220,476.72,487.27
39.82158,476.15,486.52
39.84155,473.14,485.50
39.86029,476.56,485.53
39.88202,476.22,491.51
39.90121,475.32,504.70
39.92073,477.79,520.48
39.94096,479.09,543.13
39.96197,477.82,563.51
39.98140,479.11,578.07
40.00172,483.51,587.97
40.02151,483.34,588.80
40.04074,482.75,585.25
40.06061,484.49,578.49
40.08096,485.46,571.40
40.10077,484.84,563.62
40.12171,485.11,559.28
40.14121,484.99,554.83
40.16126,483.29,545.78
40.18196,484.70,537.63
40.20206,482.97,531.43
40.22198,482.18,522.51
40.24220,481.57,519.04
40.26254,481.19,516.01
40.28321,478.36,510.52
40.30231,477.69,505.93
40.32280,475.56,503.98
40.34207,475.49,499.97
40.36212,472.38,498.77
40.38214,471.70,494.65
40.40172,474.12,495.10
40.42255,475.13,496.50
40.44266,474.83,494.39
40.46194,476.30,488.86
40.48203,473.87,490.78
40.50260,471.59,491.48
40.52313,473.35,490.93
40.54251,473.36,488.49
40.56138,471.07,488.53
40.58270,470.65,487.78
40.60327,470.85,488.34
40.62206,472.28,484.27
40.64245,470.53,485.08
40.66193,473.36,484.86
40.68258,473.31,487.75
40.70227,474.31,484.62
40.72300,472.36,486.38
40.74274,471.68,483.99
40.76279,473.29,481.40
40.78305,470.98,480.68
40.80215,471.79,483.41
40.82235,468.87,485.23
40.84199,467.71,486.23
40.86231,469.83,486.02
40.88255,468.20,484.42
40.90239,467.53,488.11
40.92140,467.45,491.38
40.94311,465.22,488.99
40.96170,463.52,475.58
40.98254,464.13,455.27
41.00293,463.65,432.42
41.02260,463.02,413.05
41.04177,462.26,395.08
41.06350,461.18,386.66
41.08219,460.53,386.15
41.10185,462.51,382.75
41.12211,459.79,385.77
41.14169,460.61,392.51
41.16267,461.66,395.98
41.18232,466.21,403.10
41.20265,465.41,410.36
41.22288,466.16,417.27
41.24290,465.75,423.54
41.26240,466.28,430.68
41.28187,465.15,436.12
41.30318,467.28,439.23
41.32236,466.16,446.13
41.34187,465.92,449.97
41.36336,466.54,453.06
41.38178,468.77,454.19
41.40160,466.27,458.40
41.42236,466.80,460.53
41.44245,465.27,465.26
41.46181,469.48,468.38
41.48286,468.70,468.81
41.50189,466.72,470.34
41.52201,466.69,473.53
41.54164,467.95,472.50
41.56212,468.92,476.67
41.58171,467.01,474.16
41.60261,465.19,476.10
41.62163,466.07,474.28
41.64186,465.16,477.52
41.66198,468.98,478.30
41.68195,465.95,480.73
41.70246,469.00,479.83
41.72268,466.83,480.18
41.74169,470.49,480.30
41.76162,466.44,479.98
41.78233,466.67,480.02
41.80298,465.36,479.88
41.82143,464.63,482.52
41.84220,467.56,481.07
41.86232,468.75,480.55
41.88189,466.92,483.85
41.90133,468.48,484.25
41.92307,468.36,482.22
41.94289,466.99,482.69
41.96409,465.73,481.20
41.98266,462.30,480.40
42.00282,465.30,478.38
42.02272,462.51,479.67
42.04302,464.28,478.64
42.06285,464.00,479.32
42.08316,466.23,480.44
42.10326,464.99,482.27
42.12284,465.87,483.69
42.14351,466.45,482.15
42.16313,466.99,482.92
42.18352,467.82,480.39
42.20480,466.23,479.01
42.22519,467.75,479.30
42.24457,466.80,480.06
42.26524,464.45,478.44
42.28461,463.88,476.65
42.30433,464.31,478.17
42.32586,463.57,478.92
42.34546,465.16,475.45
42.36452,465.50,476.86
42.38603,463.24,477.71
42.40463,466.80,481.52
42.42539,465.33,481.25
42.44557,464.97,479.84
42.46480,465.07,479.74
42.48625,466.76,479.08
42.50586,467.49,481.32
42.52570,464.49,481.33
42.54590,466.41,481.50
42.56608,463.85,479.82
42.58499,465.25,476.79
42.60455,464.67,478.78
42.62526,468.09,479.92
42.64601,467.83,479.40
42.66512,467.72,479.95
42.68543,465.83,478.12
42.70432,466.56,475.93
42.72541,467.41,479.44
42.74556,468.64,475.78
42.76493,469.57,475.94
42.78624,466.98,475.97
42.80543,464.44,477.63
42.82573,466.87,482.07
42.84496,465.62,483.18
42.86549,469.02,483.36
42.88533,469.71,489.12
42.90559,470.05,492.82
42.92415,475.46,501.40
42.94506,479.71,508.46
42.96524,479.47,514.33
42.98509,481.75,519.48
43.00601,478.86,511.16
43.02579,477.99,499.63
43.04602,475.70,479.56
43.06566,470.11,454.15
43.08624,466.65,435.09
43.10607,463.65,421.63
43.12560,459.93,409.25
43.14558,457.36,394.63
43.16611,457.80,390.04
43.18524,458.23,384.72
43.20580,455.56,384.80
43.22532,453.91,386.80
43.24619,456.53,387.69
43.26580,457.42,397.07
43.28617,457.78,403.79
43.30559,455.63,412.98
43.32474,459.08,423.18
43.34525,460.12,432.62
43.36615,459.73,440.04
43.38476,460.76,446.69
43.40453,461.06,451.65
43.42534,465.51,456.55
43.44431,464.60,460.69
43.46461,465.98,466.87
43.48626,465.22,472.80
43.50499,470.78,480.39
43.52490,473.02,486.22
43.54600,473.52,488.92
43.56487,474.49,493.27
43.58592,475.48,494.55
43.60548,477.34,497.49
43.62477,476.85,502.89
43.64475,479.30,515.57
43.66522,484.59,545.98
43.68490,485.41,583.23
43.70432,488.00,609.34
43.72561,492.67,620.08
43.74601,490.37,614.69
43.76488,489.02,600.76
43.78601,482.71,582.41
43.80433,480.17,562.23
43.82462,477.88,544.94
43.84570,477.47,524.70
43.86596,476.71,512.58
43.88515,474.87,506.82
43.90632,474.47,505.49
43.92568,479.70,519.90
43.94642,486.44,539.85
43.96632,488.29,560.72
43.98570,493.44,577.32
44.00659,496.89,588.77
44.02556,499.94,597.73
44.04594,498.81,600.64
44.06702,501.32,606.20
44.08597,497.98,605.33
44.10572,500.36,598.89
44.12646,500.09,594.46
44.14530,498.28,589.93
44.16661,496.20,588.01
44.18622,492.58,584.79
44.20684,488.63,581.68
44.22551,489.81,579.16
44.24727,485.65,575.34
44.26651,484.18,571.05
44.28521,484.67,568.85
44.30572,481.48,566.63
44.32549,479.82,564.52
