Program Time [s],data 0,data 1
5.23019,422.40,441.09
5.25117,422.40,442.32
5.27088,424.69,440.93
5.28981,424.21,443.26
5.31179,423.54,441.59
5.33080,422.45,441.48
5.35108,425.45,442.07
5.37062,424.39,442.75
5.39075,422.71,444.03
5.41014,422.65,444.14
5.42989,420.78,443.93
5.45010,422.20,444.71
5.47137,420.27,443.99
5.49171,420.34,444.48
5.51155,418.62,444.63
5.53248,417.46,444.76
5.55133,419.95,443.01
5.57195,418.92,442.25
5.59199,418.80,441.73
5.61197,414.87,441.93
5.63368,418.41,442.91
5.65374,416.34,440.96
5.67329,416.68,440.87
5.69394,417.28,440.23
5.71254,416.79,439.77
5.73245,416.29,440.07
5.75386,415.78,439.73
5.77250,415.04,439.25
5.79317,414.76,439.83
5.81338,413.78,435.90
5.83253,415.29,436.27
5.85303,414.26,435.27
5.87299,416.52,433.41
5.89373,417.55,435.38
5.91291,416.37,432.87
5.93216,417.59,432.65
5.95202,414.71,434.49
5.97274,413.92,432.62
5.99413,414.42,431.91
6.01238,414.45,431.64
6.03337,414.55,431.76
6.05291,415.82,431.77
6.07343,414.04,435.71
6.09216,413.52,451.24
6.11364,416.01,473.49
6.13277,416.80,493.87
6.15332,415.29,515.93
6.17391,418.33,521.66
6.19367,415.64,529.85
6.21370,415.74,529.42
6.23314,417.04,524.79
6.25258,417.27,514.23
6.27203,416.04,507.88
6.29283,419.15,501.15
6.31294,417.56,496.21
6.33207,418.60,490.09
6.35316,418.58,484.77
6.37197,418.38,479.38
6.39203,419.89,472.25
6.41348,420.15,471.25
6.43314,418.04,463.78
6.45369,416.16,464.23
6.47283,419.64,461.96
6.49304,417.24,457.23
6.51338,416.68,458.14
6.53279,416.56,454.31
6.55193,417.49,451.53
6.57319,417.13,453.59
6.59263,417.35,448.13
6.61273,418.62,450.46
6.63249,418.07,447.37
6.65217,418.14,447.25
6.67355,419.45,445.67
6.69275,419.59,448.44
6.71294,417.27,446.39
6.73292,419.46,445.80
6.75268,418.80,448.45
6.77356,417.96,447.79
6.79204,417.49,448.99
6.81218,418.82,443.50
6.83202,416.88,444.14
6.85388,416.38,444.18
6.87230,416.91,447.09
6.89211,417.05,441.60
6.91312,415.36,443.32
6.93238,416.84,445.34
6.95327,417.08,445.09
6.97218,418.82,443.76
6.99318,418.47,443.86
7.01378,418.18,444.26
7.03193,418.81,441.81
7.05236,418.27,442.40
7.07278,417.35,443.49
7.09264,418.46,441.55
7.11250,416.04,437.58
7.13334,416.23,430.63
7.15243,415.03,416.99
7.17281,414.55,399.80
7.19286,417.21,380.29
7.21270,417.59,362.59
7.23235,416.33,356.40
7.25342,416.58,352.15
7.27249,418.35,352.12
7.29201,415.39,354.36
7.31323,414.79,358.15
7.33223,416.50,364.53
7.35217,415.16,369.75
7.37292,417.09,374.33
7.39221,416.41,380.22
7.41194,416.64,385.52
7.43258,416.67,393.50
7.45294,415.99,396.01
7.47334,416.59,402.30
7.49491,420.47,404.97
7.51566,419.36,407.66
7.53558,422.78,413.17
7.55703,423.42,418.70
7.57746,423.77,424.46
7.59944,426.76,426.88
7.62019,428.58,429.75
7.63962,430.41,428.84
7.65978,429.57,429.51
7.67996,430.39,431.67
7.69995,434.04,434.57
7.71952,431.33,434.54
7.73908,434.91,433.49
7.76042,434.01,435.74
7.78083,431.49,436.19
7.79949,432.21,436.23
7.81971,431.92,437.08
7.83914,432.41,437.17
7.86034,434.02,434.85
7.88090,432.15,437.95
7.90041,430.99,436.55
7.92002,435.15,436.46
7.93963,435.62,440.67
7.96098,434.01,441.82
7.98002,436.82,441.80
8.00171,436.95,441.67
8.02059,436.31,444.17
8.04072,434.98,446.71
8.06148,435.95,446.67
8.08041,434.90,445.99
8.10176,436.76,444.10
8.12112,433.81,444.00
8.13979,436.35,447.40
8.16095,434.60,445.06
8.18169,433.76,446.02
8.20196,434.30,447.30
8.22265,435.14,447.12
8.24118,437.33,446.26
8.26264,434.81,445.31
8.28186,433.54,446.14
8.30086,434.41,444.30
8.32090,435.34,443.85
8.34187,435.00,446.65
8.36144,435.92,444.02
8.38268,432.94,444.51
8.40246,434.73,445.88
8.42270,435.06,443.18
8.44319,434.77,443.69
8.46270,434.07,445.43
8.48298,433.69,443.71
8.50365,433.24,443.49
8.52360,432.27,445.54
8.54447,434.31,445.89
8.56336,431.77,444.90
8.58489,434.49,443.94
8.60378,432.28,442.94
8.62396,433.20,444.29
8.64289,432.23,443.24
8.66668,432.24,444.09
8.68446,433.18,443.43
8.70292,431.93,442.21
8.72399,432.15,441.18
8.74397,430.86,441.46
8.76331,432.62,443.31
8.78441,431.36,440.92
8.80471,432.12,443.85
8.82471,430.78,441.33
8.84410,430.73,442.66
8.86292,432.94,441.41
8.88424,431.31,440.68
8.90481,429.47,440.57
8.92393,432.11,442.48
8.94351,429.53,440.59
8.96409,430.00,440.95
8.98397,433.51,439.88
9.00397,430.51,441.59
9.02388,431.34,440.63
9.04329,431.04,442.95
9.06301,431.75,439.30
9.08372,432.69,439.52
9.10333,432.25,441.38
9.12385,429.49,439.45
9.14319,429.88,440.60
9.16385,430.79,441.51
9.18451,428.69,441.78
9.20318,429.07,439.85
9.22455,429.46,438.51
9.24373,428.04,440.26
9.26474,429.95,439.45
9.28390,430.23,438.51
9.30414,427.29,440.66
9.32493,430.52,442.47
9.34373,431.20,441.77
9.36548,426.38,441.42
9.38575,425.97,440.62
9.40548,430.06,443.53
9.42589,427.63,439.69
9.44558,430.30,439.43
9.46493,426.22,442.47
9.48429,427.70,443.43
9.50448,426.11,442.61
9.52565,425.49,442.96
9.54429,427.80,441.88
9.56436,426.14,442.88
9.58536,425.64,441.44
9.60393,426.87,439.01
9.62456,426.21,443.17
9.64453,426.23,445.02
9.66512,429.08,442.38
9.68456,427.38,442.34
9.70499,426.51,443.65
9.72565,428.12,440.49
9.74523,426.53,441.05
9.76553,428.89,439.96
9.78509,429.63,443.27
9.80452,427.81,441.40
9.82568,426.55,443.14
9.84557,428.48,442.15
9.86427,425.25,443.38
9.88419,427.99,441.41
9.90455,426.28,441.04
9.92532,424.33,441.14
9.94460,423.54,442.96
9.96524,424.72,440.96
9.98416,424.81,441.69
10.00445,421.58,442.50
10.02505,424.99,437.32
10.04414,425.59,437.95
10.06461,424.69,442.20
10.08465,423.99,446.16
10.10444,422.03,459.05
10.12484,424.79,477.97
10.14388,425.93,504.10
10.16442,424.27,523.00
10.18517,426.21,541.49
10.20533,423.68,551.76
10.22518,422.79,558.78
10.24556,422.74,556.66
10.26488,424.48,546.94
10.28418,423.49,538.83
10.30507,426.99,528.98
10.32475,425.15,519.29
10.34528,423.67,507.06
10.36560,425.94,498.53
10.38476,424.52,490.48
10.40391,425.35,477.08
10.42509,425.08,474.50
10.44689,424.88,469.20
10.46644,424.52,465.84
10.48735,427.17,459.30
10.50689,424.47,455.22
10.52672,427.19,454.68
10.54621,426.96,450.94
10.56636,425.33,451.81
10.58657,423.07,449.79
10.60676,422.71,444.59
10.62579,421.19,445.26
10.64638,416.71,446.09
10.66588,416.56,445.02
10.68624,418.67,444.22
10.70702,417.16,444.04
10.72681,417.12,443.41
10.74790,418.47,443.07
10.76849,420.72,441.96
10.78800,420.00,442.43
10.80778,418.62,441.81
10.82741,419.88,442.97
10.84770,418.06,442.06
10.86703,417.28,442.73
10.88843,417.53,440.88
10.90698,415.40,441.94
10.92807,417.33,441.18
10.94797,418.00,438.21
10.96708,415.91,438.12
10.98804,419.43,438.42
11.00832,420.37,440.14
11.02889,416.88,439.02
11.04851,417.15,438.69
11.06812,419.00,435.44
11.08861,422.41,429.76
11.10852,422.40,413.75
11.12912,419.54,392.98
11.14964,420.07,369.63
11.16895,416.95,354.66
11.18918,415.61,346.76
11.20835,415.28,343.38
11.22798,413.94,340.99
11.24815,411.87,345.76
11.26871,412.06,350.79
11.28830,413.56,355.51
11.30867,413.75,362.97
11.32806,414.63,371.45
11.34954,412.15,378.22
11.36865,413.54,380.59
11.38929,416.05,388.04
11.40806,417.51,393.45
11.42968,415.63,396.37
11.44917,415.81,399.61
11.46966,416.82,405.37
11.48848,415.46,406.35
11.50919,416.48,407.90
11.52861,418.52,414.10
11.54812,417.98,415.51
11.56891,420.19,421.23
11.58835,419.26,419.08
11.60813,417.00,425.87
11.62853,418.71,428.26
11.64914,419.07,426.03
11.66952,419.01,428.32
11.68820,418.23,431.55
11.70927,419.72,431.42
11.72916,418.05,433.35
11.74811,419.48,433.02
11.76856,418.67,436.04
11.78920,417.81,435.86
11.80764,416.57,435.53
11.82822,419.75,435.67
11.84784,416.46,433.82
11.86903,418.43,434.10
11.88954,418.59,435.90
11.90811,419.17,436.52
11.92798,417.07,433.47
11.94913,418.25,436.30
11.96779,419.17,434.93
11.98785,418.88,436.24
12.00930,418.06,434.69
12.02959,416.21,434.32
12.04780,418.63,436.47
12.06888,418.26,435.21
12.08821,418.90,436.81
12.10862,419.91,440.10
12.12878,418.00,439.51
12.14927,417.88,438.02
12.16863,418.35,437.80
12.18965,420.35,440.16
12.20865,419.92,438.93
12.22872,416.35,438.84
12.24945,416.98,437.04
12.26911,418.50,438.03
12.28910,421.25,436.54
12.30909,420.59,436.66
12.32913,420.72,436.13
12.34968,419.66,433.91
12.36965,420.23,435.28
12.38930,422.21,436.11
12.40945,420.32,435.93
12.42792,421.20,438.01
12.44848,421.96,438.28
12.46785,418.45,437.45
12.48839,417.09,436.09
12.50950,419.84,439.79
12.52898,420.95,437.90
12.54827,418.98,437.59
12.56948,420.26,435.68
12.58832,418.97,437.53
12.60857,421.29,438.09
12.62852,418.16,437.11
12.64805,419.26,436.64
12.66880,417.88,434.08
12.68843,417.96,437.35
12.70917,416.93,437.07
12.72824,420.85,434.76
12.74822,419.03,433.73
12.76864,420.45,436.49
12.78822,422.60,438.30
12.80960,421.66,436.42
12.82886,421.89,435.61
12.84811,418.77,437.16
12.86794,419.91,438.10
12.88868,417.72,438.98
12.90808,419.27,438.10
12.92820,419.59,435.50
12.94850,418.14,437.73
12.96933,420.10,436.47
12.98773,420.39,437.19
13.00942,420.93,436.48
13.02796,421.33,435.70
13.04873,422.45,435.90
13.06834,420.17,438.37
13.08965,422.82,438.29
13.10915,423.33,437.47
13.12949,420.94,438.82
13.14916,421.22,438.67
13.16792,420.96,441.37
13.18943,423.85,440.99
13.20851,422.70,439.08
13.22978,420.29,438.84
13.24848,421.41,438.87
13.26813,418.11,435.61
13.28790,421.30,434.87
13.30885,419.30,436.49
13.32860,420.82,435.70
13.34924,421.89,434.56
13.36779,422.07,435.12
13.38826,421.38,437.59
13.40861,419.90,434.61
13.42894,421.87,437.95
13.44863,423.16,437.76
13.46881,420.30,438.38
13.48806,419.82,437.37
13.50876,421.63,436.22
13.52946,422.20,435.29
13.54857,421.28,436.45
13.56793,418.87,440.34
13.58809,421.35,438.35
13.60845,419.78,437.31
13.62974,420.87,438.66
13.64882,421.06,436.64
13.66937,423.51,438.37
13.68860,420.25,438.01
13.70854,421.73,438.21
13.72818,420.68,438.16
13.74826,421.56,437.75
13.76808,419.83,439.50
13.78800,420.53,436.55
13.80800,420.78,437.90
13.82933,423.53,436.01
13.84831,421.10,435.36
13.86959,423.71,432.62
13.88923,421.56,436.19
13.90782,425.16,435.33
13.92879,424.20,434.03
13.94918,424.34,438.25
13.96803,426.03,434.46
13.98939,424.17,437.82
14.00933,424.85,437.45
14.02947,425.96,436.28
14.04830,425.80,435.46
14.06875,422.59,439.12
14.08943,423.96,439.92
14.10922,424.65,438.27
14.12854,422.87,439.51
14.14892,423.93,440.76
14.16817,419.76,441.66
14.18954,419.97,441.44
14.20869,422.40,442.37
14.22867,421.72,450.66
14.24921,427.18,464.16
14.26971,426.01,483.19
14.28862,428.89,495.65
14.30848,426.67,505.70
14.32832,426.53,509.57
14.34916,424.95,509.80
14.36936,425.30,506.64
14.38811,425.08,494.89
14.40877,422.66,485.06
14.42837,424.24,478.52
14.44785,422.52,478.45
14.46935,426.84,480.66
14.48930,425.85,489.47
14.50888,429.93,494.95
14.52812,430.76,503.22
14.54803,430.82,509.13
14.56879,432.08,505.18
14.58942,428.51,501.36
14.60897,429.03,497.71
14.62898,428.54,492.76
14.64884,430.29,486.64
14.66863,428.77,480.71
14.68854,430.26,472.90
14.70780,430.14,468.63
14.72845,426.69,466.82
14.74775,427.79,462.19
14.76810,428.99,459.11
14.78931,426.61,459.85
14.80891,428.99,453.07
14.82810,427.10,450.61
14.84814,425.91,450.12
14.86951,426.06,452.13
14.88896,427.92,447.89
14.90845,428.23,447.89
14.92860,427.49,446.84
14.94892,425.32,445.66
14.96872,426.98,445.11
14.98933,426.01,444.85
15.00841,426.33,442.95
15.02789,426.95,440.60
15.04825,430.30,441.48
15.06939,428.90,440.40
15.08883,427.46,441.02
15.10876,428.60,439.39
15.12823,427.68,441.66
15.14839,427.70,439.93
15.16916,428.12,442.58
15.18912,428.58,441.43
15.20879,425.86,444.03
15.22870,425.24,434.30
15.24947,425.63,416.45
15.26867,421.68,391.49
15.28811,420.65,367.50
15.30857,419.53,346.54
15.32799,417.92,334.87
15.34924,419.05,328.07
15.36823,417.28,329.20
15.38931,418.76,331.66
15.40833,419.74,338.64
15.42810,423.63,343.62
15.44936,420.76,351.53
15.46810,422.09,362.15
15.48944,422.20,367.57
15.50883,424.52,377.47
15.52929,424.93,382.58
15.54860,423.99,390.09
15.56855,425.30,397.82
15.58817,425.75,402.06
15.60890,427.75,406.67
15.62918,426.63,411.93
15.64784,428.37,417.96
15.66807,428.65,421.79
15.68947,429.31,423.16
15.70836,430.03,426.74
15.72823,430.72,427.53
15.74963,427.03,431.13
15.76955,427.69,433.42
15.78938,428.77,434.71
15.80821,426.49,435.12
15.82918,427.12,437.06
15.84774,429.28,438.47
15.86817,428.96,436.23
15.88852,429.15,437.65
15.90894,429.50,436.21
15.92830,428.36,436.67
15.94804,431.88,438.92
15.96880,431.62,438.92
15.98805,430.52,437.44
16.00969,429.44,440.25
16.02827,428.87,440.95
16.04970,431.45,439.48
16.06942,429.49,440.58
16.08914,431.25,440.22
16.10917,427.67,441.44
16.12922,430.42,436.14
16.14854,429.01,439.33
16.16791,429.60,436.63
16.18849,427.84,438.10
16.20856,429.13,438.28
16.22835,429.43,436.58
16.24911,429.22,435.77
16.26903,432.20,436.65
16.28877,430.20,436.63
16.30813,433.30,436.96
16.32802,433.51,439.40
16.34867,431.17,437.90
16.36956,430.65,439.21
16.38961,430.36,436.08
16.40790,429.28,437.66
16.42830,432.93,437.38
16.44851,433.37,438.23
16.46910,431.91,440.17
16.48825,433.69,439.04
16.50800,431.46,439.24
16.52820,433.04,440.38
16.54969,431.00,437.57
16.56898,431.38,437.34
16.58872,431.13,439.69
16.60894,429.02,440.79
16.62905,429.07,438.09
16.64802,428.83,436.99
16.66811,431.80,439.61
16.68942,431.18,438.85
16.70863,430.06,437.81
16.72929,431.76,439.17
16.74969,432.38,442.05
16.76885,432.52,441.51
16.78787,431.47,439.87
16.80811,432.36,442.90
16.82909,434.83,440.73
16.84898,434.51,442.45
16.86939,432.59,442.91
16.88771,432.82,443.23
16.90948,434.09,442.96
16.92946,434.45,442.31
16.94891,432.30,443.46
16.96920,436.16,441.57
16.98918,435.11,440.84
17.00938,435.64,440.94
17.02814,434.73,439.25
17.04779,437.47,442.42
17.06929,434.55,440.90
17.08824,435.23,440.56
17.10761,433.84,440.15
17.12830,432.61,440.27
17.14960,434.93,440.28
17.16808,432.47,442.40
17.18861,432.70,438.84
17.20780,433.72,440.80
17.22875,434.93,439.12
17.24919,432.49,438.41
17.26850,432.48,435.56
17.28957,434.76,436.74
17.30905,432.09,436.66
17.32774,435.63,437.57
17.34962,436.31,436.89
17.36831,436.84,437.67
17.38963,435.73,438.59
17.40958,436.11,436.46
17.42902,436.90,436.06
17.44789,436.28,435.63
17.46797,436.69,436.54
17.48847,434.87,437.84
17.50765,435.94,437.59
17.52912,435.24,438.20
17.54862,433.55,439.70
17.56806,434.55,438.90
17.58771,437.09,439.13
17.60824,436.33,440.96
17.62885,436.39,439.21
17.64904,434.91,437.42
17.66849,434.29,438.22
17.68876,438.13,441.88
17.70943,437.91,438.71
17.72844,437.19,439.59
17.74865,436.43,437.26
17.76814,436.94,436.70
17.78788,434.30,437.55
17.80817,435.90,438.68
17.82898,434.56,439.08
17.84767,437.45,437.60
17.86957,435.60,438.19
17.88901,435.13,441.61
17.90881,436.95,439.20
17.92906,437.39,441.54
17.94943,433.45,443.31
17.96800,435.66,441.84
17.98942,434.88,440.86
18.00833,434.84,442.08
18.02820,439.50,439.96
18.04781,438.43,441.65
18.06836,436.29,441.04
18.08901,435.43,441.32
18.10964,438.49,439.42
18.12939,436.97,440.00
18.14856,437.81,440.72
18.16762,434.64,439.26
18.18831,435.00,448.44
18.20807,434.36,463.24
18.22882,435.23,479.35
18.24766,433.78,494.99
18.26778,434.21,505.76
18.28798,433.86,515.98
18.30977,433.18,521.18
18.32888,435.86,521.75
18.34921,437.45,519.82
18.36819,437.07,516.79
18.38939,435.95,510.17
18.40849,437.49,501.35
18.42792,438.56,494.26
18.44775,436.33,488.98
18.46879,436.12,480.74
18.53271,436.35,473.82
18.53273,433.58,469.40
18.53233,435.10,467.36
18.54889,433.21,463.49
18.56870,435.38,458.10
18.58896,435.54,458.25
18.60931,434.07,455.29
18.62779,433.91,455.51
18.64801,433.38,451.39
18.66938,435.92,450.59
18.69006,436.19,447.89
18.70847,438.09,447.97
18.72796,439.31,446.94
18.74936,438.69,447.91
18.76957,435.71,444.28
18.78859,436.20,447.84
18.80845,433.57,443.92
18.82968,435.35,446.69
18.84788,435.95,445.89
18.86928,433.80,446.93
18.88885,432.08,446.19
18.90924,432.33,446.70
18.92969,435.05,445.22
18.94960,433.42,442.75
18.96785,434.55,444.42
18.98945,434.88,445.43
19.00865,433.25,443.22
19.02907,433.38,445.26
19.04782,436.66,444.31
19.06795,436.05,443.40
19.08825,435.68,442.91
19.10800,434.50,444.09
19.12871,432.65,443.70
19.14815,432.62,446.52
19.16927,434.94,443.53
19.18955,432.34,441.93
19.20835,435.71,440.05
19.22882,435.19,440.24
19.24809,435.66,443.76
19.26900,433.21,441.70
19.28870,435.66,440.71
19.30911,434.89,439.84
19.32853,432.76,440.64
19.34959,432.67,440.41
19.36870,434.24,439.12
19.38921,433.48,442.93
19.40943,435.76,443.22
19.42894,432.56,443.63
19.44975,434.38,444.43
19.46895,432.40,442.45
19.48974,433.92,441.85
19.51031,435.61,446.54
19.53088,435.51,440.81
19.54964,429.78,425.64
19.57149,432.02,401.63
19.59114,428.12,382.42
19.61055,426.82,365.71
19.63038,425.84,360.06
19.65131,427.76,358.80
19.67124,427.27,361.29
19.69132,427.07,363.95
19.71070,429.96,371.50
19.73052,430.22,377.91
19.75080,430.36,381.99
19.77028,428.17,387.26
19.79029,429.94,394.54
19.81083,429.24,402.33
19.83059,429.59,406.54
19.85135,428.52,408.74
19.87067,431.65,413.97
19.89052,429.41,420.22
19.91007,430.21,422.30
19.93033,432.93,425.40
19.95013,429.98,427.50
19.96991,431.00,429.78
19.98998,432.32,432.23
20.01099,431.85,433.20
20.03061,430.35,434.14
20.05058,433.67,436.23
20.06986,433.52,438.51
20.09097,433.22,436.04
20.11070,432.33,436.29
20.12995,431.90,438.07
20.15027,432.27,438.86
20.17109,434.58,441.70
20.19034,434.45,439.80
20.21147,434.77,438.79
20.23072,434.88,442.30
20.25025,432.23,441.94
20.27012,430.64,440.74
20.29102,433.47,440.31
20.31075,430.41,439.60
20.32962,433.11,440.45
20.35097,430.85,440.74
20.37123,431.68,443.44
20.39066,433.99,441.20
20.40964,432.76,440.67
20.43039,431.29,440.51
20.45064,432.11,443.33
20.47131,432.63,443.03
20.49134,435.15,443.52
20.50970,434.36,443.63
20.53147,430.45,441.77
20.55121,429.62,441.04
20.57010,431.77,442.88
20.59065,428.56,443.58
20.61113,428.69,443.57
20.63034,430.49,440.11
20.65012,430.20,439.37
20.67134,429.21,440.26
20.69062,429.32,439.60
20.71105,428.55,441.89
20.72997,426.09,442.64
20.75053,429.08,441.44
20.76990,430.42,443.16
20.79159,429.78,441.31
20.81094,429.12,440.17
20.83068,429.83,438.92
20.85010,428.25,442.29
20.87116,427.84,440.43
20.89083,429.79,439.65
20.91012,432.40,441.12
20.92992,429.18,442.92
20.95137,430.76,443.39
20.97051,429.46,442.95
20.99028,431.67,441.38
21.01073,427.94,443.96
21.03097,429.82,444.42
21.04999,429.47,441.74
21.07027,432.18,440.74
21.08990,430.92,441.31
21.10975,431.54,437.93
21.13069,430.03,436.83
21.15073,431.05,439.35
21.17014,427.98,438.16
21.19014,427.92,439.04
21.21078,429.42,439.79
21.22976,427.32,440.26
21.25118,427.96,441.93
21.27121,429.16,441.97
21.29004,429.44,439.64
21.31103,430.41,438.71
21.33067,430.02,440.30
21.34964,428.42,439.47
21.36970,427.08,440.14
21.39025,428.62,439.78
21.41052,428.85,439.52
21.43044,426.97,439.90
21.45023,428.55,441.78
21.47108,425.67,439.37
21.49063,428.58,441.43
21.51005,428.32,440.51
21.52962,425.49,440.26
21.55000,427.48,440.08
21.57139,426.49,442.81
21.59126,428.55,442.33
21.61034,425.64,443.51
21.63143,427.04,442.05
21.65007,426.53,442.73
21.66960,427.66,441.69
21.69094,427.63,441.59
21.71125,427.04,443.25
21.73036,428.43,443.34
21.75035,430.04,441.25
21.77149,427.33,443.95
21.79053,429.35,441.85
21.80978,429.02,443.30
21.83055,429.47,441.85
21.84943,427.72,442.15
21.87104,429.08,439.34
21.88970,428.24,439.13
21.90999,426.57,438.06
21.93054,426.78,440.10
21.95117,428.01,439.06
21.97013,424.47,442.62
21.98966,424.18,441.77
22.01039,424.16,440.66
22.03085,424.57,439.85
22.04956,426.11,442.91
22.07056,423.48,440.32
22.09072,424.74,442.69
22.10953,425.46,442.73
22.13111,422.15,438.88
22.15117,422.13,438.94
22.17140,423.84,439.62
22.19012,423.36,439.18
22.20985,426.71,441.66
22.22943,425.80,440.58
22.25065,428.29,443.05
22.27094,424.26,440.91
22.29036,426.79,442.27
22.30978,422.94,440.68
22.32997,426.81,438.84
22.34998,425.87,440.73
22.36941,427.62,448.62
22.38991,424.33,460.91
22.40963,424.34,480.63
22.42963,423.17,496.64
22.45097,424.64,508.09
22.46971,421.47,517.54
22.49003,422.15,522.40
22.51082,419.59,518.40
22.53003,420.22,514.16
22.55135,420.17,506.74
22.57052,422.58,501.89
22.59071,422.58,495.25
22.61124,424.43,487.57
22.62950,423.95,481.29
22.65075,425.55,474.14
22.66952,426.91,472.85
22.69027,425.44,470.52
22.71030,425.54,466.80
22.73029,425.02,464.40
22.75125,426.47,461.31
22.77036,426.60,457.78
22.78993,424.72,457.00
22.81034,425.02,453.58
22.83069,422.83,454.38
22.84974,421.49,453.42
22.87004,419.08,452.17
22.89131,419.63,452.12
22.91084,419.78,448.50
22.93071,421.11,447.78
22.95060,422.65,446.98
22.97115,422.90,447.97
22.98954,421.20,448.47
23.01083,422.09,449.48
23.03126,423.54,446.80
23.05066,423.94,446.54
23.07068,424.37,443.94
23.09070,423.74,446.42
23.11133,424.37,445.22
23.13009,420.88,446.54
23.15134,420.75,446.79
23.17149,419.24,445.33
23.19021,418.17,447.42
23.21136,419.27,446.74
23.23041,420.45,448.60
23.24979,418.74,447.69
23.26976,422.82,446.68
23.28960,421.37,446.39
23.31046,422.57,446.67
23.32989,423.29,443.91
23.35072,422.90,445.72
23.37141,421.00,445.35
23.39111,422.09,443.22
23.41121,424.13,446.98
23.43064,423.93,445.41
23.45084,421.89,444.46
23.47017,422.00,443.14
23.49065,421.07,443.91
23.50982,420.64,442.31
23.52969,423.87,439.93
23.55036,422.62,441.32
23.57068,420.92,445.63
23.59121,421.35,448.21
23.60967,421.13,444.18
23.62966,419.32,432.19
23.65027,418.73,412.44
23.67138,418.84,391.29
23.69098,416.02,369.86
23.71048,416.21,360.99
23.73020,415.99,354.61
23.74994,416.07,352.60
23.77066,414.92,352.54
23.79086,415.12,356.09
23.81078,418.18,365.52
23.82977,414.71,367.37
23.85087,415.21,375.21
23.87089,415.81,384.19
23.89032,417.70,390.13
23.90973,416.23,393.75
23.93097,418.25,400.43
23.95107,416.51,406.13
23.97003,418.60,410.04
24.07946,417.77,413.82
24.08096,416.98,419.84
24.08100,417.15,423.91
24.07976,420.46,422.62
24.07988,420.68,427.94
24.10101,423.61,430.61
24.11991,425.38,430.58
24.14049,424.48,434.64
24.15991,426.50,433.76
24.18040,427.70,432.90
24.20107,430.04,434.98
24.22012,433.29,436.62
24.24005,433.79,436.47
24.26089,432.27,438.77
24.28042,432.44,438.78
24.30122,432.87,438.10
24.32007,431.75,438.30
24.34112,432.30,439.90
24.36022,432.00,440.22
24.38131,432.49,438.39
24.40142,432.61,440.82
24.42028,433.97,441.17
24.43986,432.89,441.22
24.45962,435.25,438.94
24.48135,432.40,437.24
24.49969,432.00,437.84
24.52026,432.60,438.51
24.54014,436.26,440.69
24.56095,433.85,440.28
24.58035,436.12,439.32
24.60039,436.82,438.99
24.61971,438.04,439.03
24.63975,438.51,439.30
24.66102,437.77,440.61
24.68020,436.91,441.12
24.69944,436.32,440.64
24.72071,436.00,442.67
24.73936,435.74,442.21
24.76050,438.48,443.15
24.77941,437.66,443.63
24.79981,438.26,442.25
24.81978,435.97,443.67
24.83958,434.55,441.11
24.86114,433.73,443.62
24.87973,436.98,443.06
24.90078,435.13,443.73
24.92015,436.20,446.25
24.94047,435.53,443.34
24.96123,435.39,442.87
24.97925,434.30,443.45
25.00001,437.33,442.05
25.02124,433.97,442.53
25.03987,437.24,441.33
25.06105,437.28,443.04
25.08089,434.63,442.41
25.10009,436.36,442.57
25.12084,434.87,441.07
25.13934,437.65,441.17
25.16063,434.56,444.46
25.17946,434.50,443.75
25.19950,436.35,440.36
25.21977,435.61,439.99
25.24100,436.49,440.61
25.26025,436.82,441.11
25.28028,435.79,442.73
25.30165,436.54,441.63
25.32064,435.97,444.57
25.34203,438.34,443.11
25.36124,436.12,441.79
25.38271,434.53,442.57
25.40296,437.40,440.92
25.42359,435.54,442.81
25.44410,435.23,442.02
25.46360,433.96,442.50
25.48576,434.16,444.05
25.50618,432.60,441.89
25.52473,429.10,441.61
25.54582,430.52,443.24
25.56536,431.59,443.70
25.58449,432.27,441.48
25.60599,430.22,441.61
25.62445,429.84,442.88
25.64592,428.02,442.17
25.66520,427.26,442.91
25.68605,427.96,444.54
25.70616,426.54,442.23
25.72422,428.88,441.39
25.74500,429.66,441.45
25.76542,430.42,441.35
25.78432,428.52,443.57
25.80510,429.04,442.83
25.82559,426.47,443.05
25.84607,427.56,443.35
25.86499,425.74,442.77
25.88612,428.16,445.44
25.90510,427.68,444.91
25.92626,426.11,443.66
25.94599,424.41,441.58
25.96586,427.10,442.97
25.98708,426.02,441.41
26.00584,424.02,443.64
26.02573,422.60,441.37
26.04627,422.26,442.70
26.06545,423.08,440.16
26.08587,423.76,441.98
26.10643,422.07,441.74
26.12750,422.10,441.71
26.14665,421.09,440.52
26.16604,422.13,440.68
26.18678,423.76,438.80
26.20797,421.20,439.30
26.22643,421.01,439.14
26.24725,424.32,440.41
26.26735,420.20,441.64
26.28796,422.87,441.88
26.30701,424.17,440.27
26.32770,421.66,441.60
26.34729,421.01,441.72
26.36717,420.35,441.13
26.38812,420.89,437.07
26.40652,419.07,440.03
26.42633,417.64,437.81
26.44699,415.99,438.95
26.46787,417.87,437.38
26.48763,414.30,437.31
26.50745,416.82,437.25
26.52817,416.85,440.97
26.54662,414.61,440.97
26.56822,415.12,439.53
26.58770,419.44,436.59
26.60690,416.27,439.76
26.62781,416.58,438.43
26.64776,418.48,439.26
26.66805,420.16,437.79
26.68642,418.10,434.90
26.70768,419.02,434.51
26.72716,418.43,437.72
26.74755,417.66,452.53
26.76714,415.88,473.34
26.78769,416.55,491.75
26.80816,418.17,504.70
26.82813,417.07,514.83
26.84720,417.67,514.05
26.86736,415.56,513.61
26.88624,417.56,511.29
26.90724,419.18,505.51
26.92711,421.41,500.82
26.94700,421.23,492.84
26.96796,421.50,486.70
26.98776,419.37,478.35
27.00643,419.08,476.81
27.02734,421.66,470.65
27.04777,420.49,467.36
27.06707,418.55,462.24
27.08664,419.45,459.02
27.10786,419.27,458.10
27.12659,417.89,454.26
27.14719,419.85,450.87
27.16809,419.38,450.41
27.18811,419.21,448.64
27.20683,417.61,449.58
27.22790,418.78,445.85
27.24655,419.29,447.33
27.26681,416.67,445.82
27.28697,416.11,444.92
27.30759,419.21,443.89
27.32693,415.64,444.88
27.34748,416.79,442.55
27.36751,415.54,444.89
27.38690,417.71,442.46
27.40689,417.80,442.60
27.42736,417.25,440.93
27.44741,420.82,441.04
27.46786,420.45,444.25
27.48768,421.75,439.89
27.50802,421.16,441.13
27.52812,419.41,438.54
27.54792,419.54,438.37
27.56697,419.81,437.69
27.58810,416.61,438.14
27.60685,416.51,440.88
27.62673,416.02,437.22
27.64822,418.75,437.00
27.66644,417.22,437.89
27.68773,419.67,438.89
27.70635,418.80,437.93
27.72666,417.08,437.95
27.74662,418.98,439.85
27.76723,420.81,437.88
27.78663,419.97,435.80
27.80790,418.35,421.93
27.82702,414.77,405.18
27.84759,415.42,385.97
27.86739,414.03,366.65
27.88805,415.16,359.41
27.90820,411.66,355.08
27.92687,413.75,353.20
27.94766,412.61,357.19
27.96754,413.98,360.18
27.98693,414.64,367.12
28.00637,413.68,369.97
28.02823,412.27,379.11
28.04722,412.03,384.44
28.06757,412.96,389.09
28.08786,414.51,395.78
28.10709,414.37,400.13
28.12762,417.97,404.05
28.14763,419.52,407.27
28.16713,419.69,412.67
28.18731,421.80,415.74
28.20710,419.76,418.83
28.22808,418.89,422.94
28.24709,421.76,425.18
28.26728,421.07,425.92
28.28789,417.53,428.09
28.30675,420.75,431.89
28.32834,420.08,431.08
28.34668,419.33,431.49
28.36716,419.63,432.23
28.38654,420.24,435.63
28.40764,418.42,436.17
28.42793,420.09,433.56
28.44738,421.09,435.65
28.46805,420.93,436.29
28.48643,418.73,434.66
28.50646,418.62,437.71
28.52796,417.21,438.91
28.54723,417.10,436.81
28.56786,417.10,441.20
28.58779,416.15,441.58
28.60706,418.65,440.51
28.62631,415.67,439.98
28.64801,417.10,440.88
28.66797,415.47,440.84
28.68715,417.45,442.11
28.70928,419.28,438.77
28.72850,418.80,439.59
28.74848,421.49,441.49
28.77019,419.44,441.57
28.78934,419.29,440.03
28.81001,418.14,439.78
28.83017,418.82,437.71
28.84933,419.23,440.04
28.87121,421.31,439.78
28.88928,420.51,439.66
28.91049,422.18,438.64
28.93014,420.69,437.99
28.95079,421.58,441.39
28.97025,419.77,439.88
28.99089,419.47,437.55
29.01038,421.70,438.66
29.03077,419.07,437.05
29.05135,421.72,440.66
29.06930,424.08,441.77
29.09094,420.92,440.91
29.10966,425.43,437.51
29.13110,423.58,438.67
29.15107,422.34,438.49
29.17018,422.91,436.80
29.18989,423.40,438.79
29.20930,423.89,437.98
29.23114,424.40,437.23
29.25083,424.33,437.40
29.27095,423.92,437.01
29.29094,424.42,438.70
29.30945,422.40,438.34
29.33045,421.92,439.79
29.35035,423.65,440.68
29.37145,427.48,441.55
29.39270,426.73,440.34
29.41289,429.10,442.52
29.43347,431.93,443.35
29.45221,429.90,440.05
29.47397,433.27,438.98
29.49350,432.06,440.22
29.51239,433.92,442.54
29.53269,434.24,441.97
29.55223,431.67,439.03
29.57539,433.92,438.65
29.59409,434.19,441.40
29.61407,434.02,439.55
29.63429,434.89,442.23
29.65521,435.39,440.11
29.67415,434.50,441.39
29.69392,436.63,439.69
29.71348,437.88,440.60
29.73507,437.38,443.79
29.75463,435.94,444.36
29.77493,440.12,445.08
29.79522,435.11,443.49
29.81788,436.57,444.15
29.83721,434.65,444.23
29.85844,436.93,444.72
29.87883,432.28,443.84
29.89963,432.48,443.48
29.92102,431.28,443.82
29.94020,430.72,441.92
29.96029,432.41,443.25
29.97990,429.99,441.72
30.00061,428.28,441.80
30.02053,428.87,442.75
30.03956,427.26,444.11
30.06049,429.08,441.84
30.07956,427.25,443.00
30.10130,429.61,443.34
30.12003,429.16,442.88
30.14009,429.32,445.80
30.16007,428.01,442.69
30.18123,428.79,444.97
30.20092,427.13,444.44
30.21965,429.97,444.23
30.24041,426.74,443.53
30.26150,426.47,442.50
30.28163,425.43,441.59
30.30104,424.96,442.80
30.32065,427.15,442.00
30.34120,425.12,443.23
30.36292,423.37,440.92
30.38300,420.57,444.59
30.40341,421.84,442.76
30.42340,421.45,442.97
30.44365,419.06,441.95
30.46423,420.54,442.80
30.48521,420.65,442.08
30.50707,419.47,439.93
30.52657,421.01,438.98
30.54623,420.21,437.49
30.56700,419.51,436.75
30.58584,418.30,438.13
30.60534,417.54,434.91
30.62613,416.29,435.07
30.64673,416.09,434.22
30.66657,420.02,435.16
30.68539,417.33,432.59
30.70546,416.92,430.92
30.72586,418.30,431.15
30.74708,417.70,427.75
30.76581,417.04,435.34
30.78707,419.31,450.22
30.80595,420.78,477.09
30.82659,421.42,509.58
30.84668,424.71,537.56
30.86688,425.84,558.79
30.88562,429.90,563.50
30.90515,429.33,562.80
30.92625,429.70,556.84
30.94743,430.75,543.59
30.96671,430.03,529.93
30.98701,425.19,516.84
31.00677,423.13,502.78
31.02622,422.67,488.62
31.04620,422.91,477.62
31.06615,418.40,468.48
31.08624,417.19,461.34
31.10548,419.24,455.18
31.12575,415.50,452.99
31.14688,416.94,446.99
31.16720,418.48,445.24
31.18672,419.08,443.59
31.20598,419.55,444.11
31.22636,417.64,439.92
31.24643,418.00,441.59
31.26546,417.99,439.79
31.28615,417.60,441.25
31.30553,418.92,440.15
31.32541,420.70,441.86
31.34622,418.70,440.53
31.36645,420.08,442.95
31.38608,419.25,442.79
31.40681,419.73,439.44
31.42731,418.23,444.11
31.44650,419.49,440.25
31.46632,417.32,441.19
31.48538,420.94,440.88
31.50628,417.72,442.93
31.52574,419.19,444.11
31.54537,420.30,441.71
31.56672,421.67,441.16
31.58705,421.18,435.51
31.60659,422.49,427.21
31.62635,418.59,414.46
31.64681,416.93,397.02
31.66694,417.14,376.70
31.68653,418.01,361.69
31.70522,416.18,350.57
31.72564,414.18,344.86
31.74729,414.62,341.86
31.76716,415.16,344.94
31.78637,414.48,348.86
31.80637,415.39,354.14
31.82652,417.76,361.57
31.84666,416.54,367.76
31.86656,419.65,376.36
31.88672,418.98,384.01
31.90539,415.94,389.95
31.92683,415.70,392.77
31.94611,419.08,397.09
31.96691,420.60,402.35
31.98637,421.27,406.83
32.00522,420.78,410.40
32.02589,422.71,416.28
32.04538,419.33,419.42
32.06595,421.07,422.62
32.08729,420.92,423.54
32.10700,419.41,425.52
32.12733,419.74,425.36
32.14724,422.62,426.82
32.16645,420.81,431.07
32.18637,423.05,432.16
32.20630,421.48,432.16
32.22716,423.92,431.62
32.24641,421.94,432.52
32.26660,425.08,431.57
32.28658,422.94,433.01
32.30532,423.15,433.91
32.32636,423.91,434.03
32.34674,424.39,433.08
32.36581,421.72,434.76
32.38637,423.33,433.71
32.40673,422.22,435.92
32.42698,424.29,436.43
32.44715,424.37,436.49
32.46776,421.86,438.81
32.48756,424.51,438.21
32.50640,425.14,438.27
32.52785,426.26,437.81
32.54721,426.23,440.49
32.56801,424.76,440.20
32.58694,427.21,440.39
32.60623,427.83,441.89
32.62671,426.52,440.10
32.64784,429.05,441.06
32.66688,426.26,438.81
32.68646,428.97,440.66
32.70752,428.26,440.69
32.72804,425.92,440.66
32.74707,425.33,441.36
32.76785,427.06,437.15
32.78748,424.58,439.14
32.80763,427.51,439.21
32.82740,427.31,439.57
32.84768,427.17,437.70
32.86650,429.49,439.96
32.88676,426.47,438.11
32.90689,428.55,440.53
32.92681,426.67,441.67
32.94784,429.28,438.16
32.96658,427.16,437.89
32.98742,428.94,440.19
33.00689,431.63,440.75
33.02648,430.20,439.19
33.04686,431.70,441.58
33.06783,429.56,440.91
33.08653,428.79,437.38
33.10781,430.43,435.65
33.12654,429.89,436.44
33.14758,427.59,436.01
33.16629,430.37,438.67
33.18699,430.51,439.57
33.20780,426.69,439.22
33.22615,425.41,441.66
33.24685,428.10,441.34
33.26739,428.50,440.35
33.28674,426.61,439.86
33.30774,426.92,438.84
33.32661,426.22,441.12
33.34768,427.55,438.12
33.36726,429.14,440.19
33.38656,426.72,438.28
33.40674,427.09,439.38
33.42805,429.27,439.14
33.44739,426.71,440.01
33.46782,428.91,440.22
33.48753,429.79,438.92
33.50727,430.04,440.56
33.52666,429.71,438.64
33.54689,430.25,438.97
33.56685,430.28,441.20
33.58810,430.29,443.08
33.60643,428.25,442.39
33.62705,427.71,443.18
33.64789,427.48,440.21
33.66658,431.10,442.11
33.68673,431.18,441.24
33.70633,432.13,442.12
33.72724,430.15,439.02
33.74755,428.98,440.15
33.76766,429.63,442.94
33.78765,430.47,439.50
33.80771,428.33,442.26
33.82649,428.02,442.00
33.84657,429.85,440.95
33.86823,431.73,441.43
33.88764,427.99,440.00
33.90695,430.58,439.50
33.92641,429.82,440.27
33.94652,426.72,439.25
33.96626,426.89,439.68
33.98750,429.27,438.45
34.00630,426.65,437.41
34.02662,427.67,438.25
34.04669,428.84,439.76
34.06636,427.64,439.88
34.08804,427.57,439.15
34.10793,430.27,437.51
34.12780,426.71,437.06
34.14664,428.31,438.63
34.16818,428.30,440.22
34.18682,430.72,439.22
34.20819,431.41,438.75
34.22792,430.35,436.01
34.24786,432.29,436.33
34.26871,432.71,436.95
34.28922,433.94,438.05
34.30752,434.99,439.59
34.32751,431.54,439.65
34.34868,432.20,441.32
34.36840,436.65,440.47
34.38788,436.50,441.58
34.40861,434.16,441.17
34.42835,434.85,439.64
34.44722,436.80,441.41
34.46735,435.22,440.83
34.48848,434.00,439.11
34.50769,434.97,437.53
34.52907,431.40,438.88
34.54876,433.75,438.43
34.56815,434.78,437.78
34.58773,435.68,437.93
34.60724,434.55,436.48
34.62850,438.40,438.57
34.64798,438.83,435.59
34.66796,434.68,439.01
34.68722,436.52,438.39
34.70792,436.24,438.15
34.72719,434.39,437.49
34.74757,438.11,438.70
34.76744,437.28,436.30
34.78987,438.49,440.25
34.81065,434.58,438.81
34.82929,436.06,440.49
34.84950,436.43,441.14
34.87060,436.09,439.05
34.89040,434.51,438.10
34.91011,434.22,447.87
34.93056,435.69,468.39
34.95023,435.87,488.08
34.96926,437.09,506.37
34.99112,438.98,520.83
35.01147,438.44,531.68
35.03122,437.38,533.50
35.05010,438.25,532.71
35.07120,439.09,528.60
35.09168,436.49,520.14
35.11088,436.36,512.94
35.13107,437.55,502.70
35.15027,436.47,497.18
35.17060,436.65,487.80
35.19005,434.75,480.95
35.21141,432.53,475.85
35.23056,433.44,472.35
35.25134,432.01,468.25
35.27184,432.31,465.76
35.29185,432.42,463.03
35.31022,432.33,460.31
35.33124,431.97,456.25
35.35083,433.53,454.59
35.37030,431.75,455.85
35.39068,434.18,453.26
35.41038,431.30,451.16
35.43201,432.28,447.79
35.45205,430.56,447.78
35.47044,431.82,449.89
35.49086,433.36,449.23
35.51144,433.96,446.39
35.53144,433.55,445.02
35.55053,431.50,445.49
35.57026,432.92,445.72
35.59184,432.04,445.23
35.61019,431.45,445.03
35.63175,431.63,447.62
35.65048,434.46,445.62
35.67191,434.62,445.43
35.69082,430.78,445.49
35.71198,430.43,445.50
35.73144,433.93,444.81
35.75177,431.56,444.30
35.77189,432.18,442.98
35.79053,434.56,441.90
35.81051,431.35,444.44
35.83101,430.52,444.80
35.85026,431.67,445.36
35.87064,431.09,441.28
35.89074,429.27,444.28
35.91207,430.00,443.65
35.93113,431.83,441.93
35.95087,429.79,441.98
35.97074,433.28,442.54
35.99058,430.38,445.42
36.01082,429.84,447.05
36.03186,432.05,447.12
36.05196,431.03,444.97
36.07173,432.02,430.05
36.09091,434.59,409.60
36.11024,431.50,384.86
36.13034,431.20,367.18
36.15132,429.75,357.99
36.17112,432.39,355.04
36.19066,431.34,352.28
36.21137,431.99,354.71
36.23174,431.26,361.54
36.25025,427.83,365.44
36.27183,428.89,368.65
36.29102,429.24,374.89
36.31126,427.05,382.25
36.33135,428.26,391.93
36.35081,430.97,398.21
36.37202,428.88,405.61
36.39156,428.17,411.06
36.41184,429.11,415.82
36.43028,430.13,421.42
36.45191,428.89,423.49
36.47126,429.83,426.68
36.49184,427.88,425.90
36.51029,430.47,430.80
36.53174,429.02,429.48
36.55220,431.19,432.62
36.57140,430.48,434.72
36.59135,429.86,438.29
36.61120,429.94,438.05
36.63034,430.95,441.97
36.65070,429.60,441.56
36.67140,430.36,439.26
36.69200,427.60,440.91
36.71014,427.70,442.84
36.73154,429.79,442.77
36.75113,431.21,441.98
36.77127,430.54,444.44
36.79098,428.78,446.00
36.81138,430.43,445.59
36.83172,430.67,447.24
36.85076,428.99,444.10
36.87163,430.07,444.12
36.89205,428.31,444.45
36.91103,429.43,443.51
36.93143,427.23,443.71
36.95062,429.33,444.35
36.97062,426.80,441.67
36.99087,427.02,441.41
37.01160,427.44,441.91
37.03095,429.04,440.29
37.05097,426.02,439.54
37.07206,429.74,442.08
37.09125,426.27,440.41
37.11093,426.27,439.78
37.13159,427.07,437.52
37.15166,426.08,440.50
37.17115,425.50,441.81
37.19218,427.71,441.19
37.21133,427.84,444.01
37.23142,427.08,443.82
37.25095,425.25,443.93
37.27081,427.07,444.22
37.29163,427.61,441.19
37.31127,426.31,444.28
37.33161,427.79,444.31
37.35182,425.39,444.01
37.37021,428.11,441.66
37.39061,427.11,442.40
37.41064,429.03,441.00
37.43165,428.46,440.17
37.45056,428.61,443.03
37.47079,426.09,440.94
37.49149,426.02,439.89
37.51112,424.56,442.25
37.53295,427.27,442.46
37.55124,422.99,440.95
37.57266,423.28,442.43
37.59295,423.45,442.74
37.61183,424.10,443.92
37.63305,424.67,443.11
37.65190,422.87,445.51
37.67202,423.10,442.72
37.69259,423.50,443.11
37.71260,423.48,440.71
37.73141,424.34,443.35
37.75305,424.40,441.81
37.77251,421.86,443.92
37.79247,421.98,443.54
37.81143,423.53,444.84
37.83234,423.15,440.29
37.85152,422.54,442.15
37.87295,421.03,439.67
37.89142,419.55,440.97
37.91188,421.05,443.60
37.93185,421.73,440.35
37.95120,421.79,442.49
37.97280,422.53,441.28
37.99184,421.94,442.93
38.01306,420.07,441.44
38.03313,423.19,439.82
38.05274,420.61,441.67
38.07104,420.25,441.18
38.09212,420.82,440.32
38.11135,419.45,440.66
38.13262,420.08,440.89
38.15161,418.84,438.76
38.17145,422.90,441.56
38.19232,420.63,441.55
38.21101,421.19,442.33
38.23283,421.69,439.92
38.25128,419.29,441.74
38.27208,420.10,443.72
38.29269,419.18,442.27
38.31276,417.86,440.39
38.33216,416.45,441.74
38.35297,414.53,442.01
38.37297,417.04,441.49
38.39174,418.68,443.69
38.41127,418.80,442.30
38.43163,419.37,443.21
38.45207,418.55,442.60
38.47272,418.15,439.79
38.49253,419.19,443.15
38.51124,418.57,444.05
38.53298,417.45,441.26
38.55145,418.66,441.85
38.57159,420.18,442.36
38.59159,417.98,440.31
38.61158,419.28,441.61
38.63106,419.37,441.12
38.65273,418.33,441.26
38.67183,419.60,441.66
38.69147,418.46,441.61
38.71168,418.93,441.30
38.73303,421.29,438.26
38.75182,419.29,439.10
38.77194,420.01,438.19
38.79170,419.05,438.94
38.81283,416.37,439.12
38.83210,418.08,437.33
38.85145,417.42,439.39
38.87244,416.00,439.60
38.89199,418.18,437.41
38.91255,418.02,438.24
38.93233,419.51,440.47
38.95236,419.17,439.22
38.97162,421.50,438.29
38.99326,420.75,438.12
39.01282,419.23,439.55
39.03356,416.70,440.49
39.05266,419.29,439.01
39.07235,415.99,436.14
39.09440,414.41,436.85
39.11493,414.85,436.87
39.13345,415.48,435.87
39.15361,414.81,438.28
39.17368,416.84,435.84
39.19433,415.63,437.82
39.21350,417.51,435.68
39.23362,417.36,437.68
39.25425,417.44,436.82
39.27436,416.27,434.11
39.29412,417.39,435.35
39.31489,416.84,434.10
39.33394,417.35,435.32
39.35451,414.14,434.91
39.37289,414.43,435.50
39.39453,414.81,436.22
39.41357,418.61,433.36
39.43505,416.57,432.77
39.45485,417.23,436.39
39.47315,418.93,444.27
39.49382,419.50,460.23
39.51312,420.97,485.10
39.53441,420.07,505.43
39.55430,421.77,517.14
39.57302,420.86,527.24
39.59473,419.89,525.40
39.61463,420.98,526.79
39.63508,421.93,519.01
39.65325,422.29,509.48
39.67454,421.18,501.77
39.69455,420.35,493.17
39.71406,420.71,481.66
39.73513,421.44,477.56
39.75339,421.71,469.24
39.77408,421.10,464.41
39.79397,416.54,462.64
39.81419,417.98,460.13
39.83474,417.63,456.20
39.85331,415.56,453.85
39.87491,416.28,452.88
39.89439,415.88,447.75
39.91435,416.65,448.43
39.93379,414.12,444.69
39.95462,412.87,445.02
39.97483,415.47,443.99
39.99392,415.80,443.55
40.01392,417.21,442.93
40.03369,416.16,440.62
40.05427,418.40,440.01
40.07319,418.96,439.10
40.09329,419.26,440.47
40.11358,419.25,439.78
40.13482,420.22,439.56
40.15434,420.30,438.75
40.17434,420.53,439.27
40.19435,418.15,439.38
40.21507,420.05,438.93
40.23419,419.67,440.75
40.25407,421.02,441.05
40.27436,418.78,439.87
40.29480,418.67,437.98
40.31458,420.12,440.99
40.33495,417.29,437.83
40.35341,421.01,439.32
40.37512,420.83,437.45
40.39349,419.64,437.14
40.41341,420.82,437.35
40.43454,421.15,437.22
40.45447,419.10,434.55
40.47393,420.48,436.08
40.49377,419.41,434.78
40.51320,420.17,435.80
40.53498,418.28,437.21
40.55414,419.47,439.54
40.57423,420.14,437.87
40.59381,417.36,440.54
40.61392,420.65,440.20
40.63304,420.56,441.26
40.65491,418.40,441.54
40.67444,417.62,440.06
40.69350,419.84,439.52
40.71441,418.36,437.30
40.73447,420.00,434.55
40.75320,422.73,424.03
40.77486,419.59,409.67
40.79365,421.20,390.18
40.81389,420.76,371.23
40.83325,420.02,358.66
40.85508,418.97,353.82
40.87455,418.25,350.62
40.89500,417.54,351.31
40.91433,415.30,357.00
40.93475,416.37,359.03
40.95437,415.50,367.28
40.97398,416.53,373.01
40.99292,419.42,379.42
41.01397,419.25,383.48
41.03396,423.51,390.88
41.05334,422.06,393.34
41.07356,421.79,397.15
41.09353,420.52,402.80
41.11403,420.99,406.77
41.13466,421.38,410.63
41.15568,421.75,415.25
41.17552,422.38,418.79
41.19453,425.62,423.35
41.21625,427.19,423.54
41.23690,427.15,427.40
41.25709,429.37,431.60
41.27650,428.24,431.37
41.29787,427.50,433.99
41.31721,431.03,434.36
41.33732,431.52,433.61
41.35685,430.59,437.30
41.37771,429.82,437.37
41.39685,432.21,436.86
41.41790,433.16,436.01
41.43679,432.04,436.78
41.45722,433.31,435.83
41.47618,431.67,437.53
41.49656,430.25,435.28
41.51775,429.84,437.46
41.53847,429.38,438.61
41.55795,432.42,437.49
41.57805,429.90,438.78
41.59862,429.53,439.78
41.61813,431.79,442.41
41.63871,433.11,441.58
41.65951,431.94,443.08
41.67853,433.14,439.98
41.69842,430.73,442.85
41.71912,433.05,441.45
41.73950,431.75,441.57
41.75967,434.36,440.16
41.77990,431.49,438.90
41.79882,432.86,440.38
41.81882,432.53,441.11
41.83912,432.75,439.16
41.85890,433.94,438.83
41.87910,431.77,439.87
41.89811,432.81,440.09
41.91981,433.22,441.85
41.93948,433.96,442.16
41.95926,433.19,442.42
41.97935,435.17,443.14
41.99917,435.71,440.74
42.01801,434.91,439.90
42.04023,436.11,443.09
42.06051,436.16,440.70
42.08012,437.40,443.79
42.09891,435.26,441.77
42.12045,435.93,439.63
42.14050,435.48,440.94
42.15925,436.12,440.58
42.18015,435.13,441.98
42.20048,435.21,440.43
42.22030,436.49,442.78
42.24058,435.75,445.66
42.25987,434.20,444.70
42.27907,433.22,441.82
42.29952,432.38,442.60
42.31903,435.48,442.73
42.34095,430.82,442.51
42.36140,431.91,441.47
42.38003,434.69,443.96
42.40080,434.88,441.94
42.42004,434.13,443.12
42.44111,433.56,444.14
42.46036,435.02,443.69
42.48121,432.25,439.57
42.50116,430.71,441.48
42.52127,431.54,443.38
42.54040,433.11,442.24
42.56112,431.60,444.72
42.58063,435.89,451.32
42.60032,438.80,460.82
42.62094,439.27,469.73
42.64104,443.76,484.68
42.66049,447.42,501.91
42.68104,447.47,517.19
42.70183,449.02,527.62
42.72165,452.01,535.66
42.74043,451.33,541.06
42.76055,450.53,538.55
42.78162,450.90,530.79
42.80032,452.39,514.93
42.82015,449.87,496.95
42.84273,448.72,476.20
42.86275,446.60,454.89
42.88115,443.29,434.35
42.90169,441.25,419.22
42.92136,437.82,400.20
42.94140,432.78,382.44
42.96259,425.12,368.57
42.98275,423.95,357.89
43.00150,420.62,357.91
43.02133,420.60,362.01
43.04191,423.87,381.55
43.06252,424.93,411.31
43.08314,428.74,444.76
43.10284,433.60,477.99
43.12227,437.52,500.70
43.14345,442.36,518.88
43.16250,444.94,529.88
43.18362,446.18,536.57
43.20244,448.56,545.19
43.22347,451.48,548.18
43.24371,450.16,547.76
43.26282,451.75,548.87
