Program Time [s],data 0,data 1
5.46089,488.37,573.72
5.47997,488.38,556.42
5.50094,486.32,534.85
5.51916,485.07,518.75
5.53998,482.39,502.61
5.55956,479.99,488.92
5.58032,482.01,477.24
5.60062,477.66,470.99
5.61901,481.12,465.51
5.64151,478.98,464.91
5.66159,479.10,466.55
5.68114,480.31,466.42
5.70066,479.22,467.77
5.72217,479.48,472.06
5.74162,482.87,471.78
5.76086,483.32,477.35
5.78283,483.84,479.40
5.80294,484.34,480.46
5.82214,485.94,483.85
5.84245,483.77,485.15
5.86099,485.74,488.74
5.88190,484.36,488.95
5.90144,483.70,495.37
5.92236,484.74,498.41
5.94110,485.44,500.23
5.96337,487.65,502.57
5.98197,487.52,504.18
6.00309,486.66,508.76
6.02265,485.38,512.01
6.04370,484.49,509.02
6.06341,488.66,508.37
6.08333,486.55,511.00
6.10287,485.82,510.68
6.12250,486.18,510.28
6.14380,488.01,508.45
6.16242,489.75,508.37
6.18357,487.83,508.74
6.20246,488.32,508.25
6.22343,490.69,509.75
6.24353,489.23,507.30
6.26381,489.17,506.88
6.28253,489.50,513.91
6.30206,490.73,525.19
6.32302,491.87,550.32
6.34214,494.06,570.67
6.36351,494.34,592.76
6.38343,497.22,603.30
6.40307,494.16,612.02
6.42279,495.62,611.97
6.44379,495.38,604.57
6.46391,493.72,611.53
6.48352,493.32,607.91
6.50228,494.73,605.69
6.52341,492.62,590.41
6.54275,494.24,583.33
6.56258,496.19,578.17
6.58293,494.40,571.12
6.60224,494.66,561.08
6.62336,494.12,552.57
6.64263,496.56,548.70
6.66221,496.53,545.35
6.68325,494.52,541.30
6.70268,490.67,535.51
6.72329,490.25,529.56
6.74203,492.10,523.11
6.76294,489.91,522.04
6.78246,487.46,514.69
6.80192,490.24,516.40
6.82355,488.74,512.22
6.84218,491.04,512.71
6.86285,489.42,515.10
6.88195,490.01,517.09
6.90366,491.69,515.14
6.92246,491.97,513.36
6.94247,491.08,515.55
6.96283,491.05,515.05
6.98239,490.28,512.08
7.00339,490.88,510.38
7.02337,488.69,513.72
7.04379,488.74,508.39
7.06337,490.43,512.13
7.08422,491.25,505.81
7.10482,491.24,505.82
7.12291,489.40,504.00
7.14565,490.33,505.41
7.16430,490.59,503.82
7.18546,488.25,506.54
7.20460,487.14,506.27
7.22523,487.42,502.19
7.24420,490.95,506.07
7.26455,488.52,502.19
7.28395,489.03,502.97
7.30487,489.69,505.11
7.32447,487.08,508.33
7.34505,487.92,505.75
7.36394,489.74,503.54
7.38428,489.21,505.65
7.40401,489.27,506.08
7.42398,487.67,505.76
7.44573,488.04,506.47
7.46565,486.54,507.13
7.48528,487.12,494.12
7.50439,489.06,472.18
7.52535,486.68,446.75
7.54399,484.96,423.32
7.56429,483.68,410.26
7.58506,484.40,404.29
7.60547,484.28,404.81
7.62488,482.83,409.80
7.64415,484.58,415.12
7.66473,485.03,417.86
7.68497,485.47,427.31
7.70392,484.60,433.95
7.72525,485.75,442.62
7.74514,485.14,446.88
7.76415,486.71,453.93
7.78468,486.32,460.30
7.80553,486.68,465.50
7.82411,486.87,468.37
7.84491,487.29,475.53
7.86547,487.38,481.12
7.88497,487.75,484.79
7.90527,487.06,484.82
7.92738,486.79,488.57
7.94723,486.17,491.24
7.96732,482.99,493.78
7.98622,485.34,494.30
8.00595,481.20,497.16
8.02647,481.26,497.21
8.04719,482.67,499.14
8.06688,483.55,500.86
8.08709,481.11,501.77
8.10724,481.92,499.70
8.12788,484.50,501.94
8.14757,482.94,505.48
8.16777,482.20,504.65
8.18730,482.45,505.54
8.20588,483.45,503.85
8.22652,482.20,505.46
8.24648,485.43,505.34
8.26610,484.51,507.29
8.28688,482.35,507.13
8.30632,482.97,507.87
8.32609,484.97,509.17
8.34682,484.17,510.58
8.36652,485.42,508.03
8.38661,482.84,508.54
8.40713,484.52,506.86
8.42673,484.56,504.90
8.44663,484.00,508.99
8.46705,483.60,505.81
8.48656,483.66,506.08
8.50727,486.32,505.80
8.52604,486.66,507.43
8.54601,486.12,505.15
8.56705,485.22,506.72
8.58666,485.16,507.37
8.60656,485.72,506.31
8.62726,485.64,507.56
8.64681,482.60,509.02
8.66588,485.61,509.88
8.68720,486.34,506.72
8.70589,482.97,508.30
8.72734,480.91,508.45
8.74757,484.34,510.42
8.76753,481.95,506.76
8.78722,485.45,506.21
8.80639,486.03,507.37
8.82760,482.81,505.90
8.84780,484.32,507.82
8.86607,483.32,508.89
8.88631,482.13,508.55
8.90629,483.47,507.44
8.92689,483.98,510.33
8.94745,483.76,509.11
8.96612,484.25,508.26
8.98615,483.57,509.18
9.00672,483.12,508.33
9.02675,485.77,507.54
9.04782,483.75,507.82
9.06705,480.67,507.73
9.08639,484.25,508.26
9.10644,480.73,509.00
9.12737,481.64,506.49
9.14671,483.33,505.36
9.16720,481.28,508.78
9.18803,482.16,506.57
9.20725,479.83,504.91
9.22773,479.90,505.45
9.24651,480.10,509.41
9.26774,480.94,506.68
9.28658,482.84,510.12
9.30639,480.37,505.19
9.32651,480.66,509.56
9.34598,484.24,507.38
9.36692,484.35,506.99
9.38612,483.98,507.37
9.40673,483.42,509.38
9.42716,480.59,507.47
9.44747,483.13,508.77
9.46601,485.54,507.51
9.48765,484.34,509.63
9.50598,482.79,509.60
9.52685,484.65,507.49
9.54778,482.81,506.78
9.56687,481.07,507.93
9.58727,482.89,505.06
9.60753,482.75,505.62
9.62779,483.21,504.68
9.64628,484.14,507.91
9.66768,484.65,504.58
9.68716,484.10,505.00
9.70662,481.63,501.36
9.72650,483.34,505.44
9.74712,480.75,505.27
9.76724,484.93,503.29
9.78649,482.43,506.14
9.80622,483.06,505.99
9.82600,483.90,507.96
9.84595,483.14,508.92
9.86644,481.07,507.43
9.88638,484.62,508.86
9.90656,484.25,507.46
9.92693,480.90,506.66
9.94774,481.63,508.99
9.96620,483.75,509.41
9.98594,481.95,511.01
10.00677,481.96,508.09
10.02732,481.69,507.34
10.04654,481.75,509.95
10.06642,482.98,509.43
10.08628,481.07,510.22
10.10743,482.28,511.32
10.12682,482.03,510.21
10.14739,481.79,509.86
10.16618,483.52,509.23
10.18716,481.07,508.84
10.20720,480.71,507.96
10.22746,482.19,507.32
10.24585,480.19,508.43
10.26645,482.29,509.01
10.28605,479.81,508.32
10.30701,481.90,507.55
10.32825,478.33,508.77
10.34759,482.17,506.88
10.36866,479.10,509.69
10.38791,479.57,508.14
10.40852,478.72,505.78
10.42696,477.40,505.35
10.44845,475.26,503.60
10.46833,477.73,503.76
10.48848,477.50,505.05
10.50957,474.24,502.39
10.52818,475.38,499.93
10.54943,472.75,502.85
10.56821,474.28,500.79
10.58805,475.04,501.38
10.60910,474.10,503.30
10.62933,474.65,509.54
10.64973,474.60,519.50
10.66798,472.48,531.41
10.68898,476.37,547.37
10.70947,474.24,561.62
10.72892,476.16,580.82
10.74934,476.57,594.28
10.76905,478.73,607.62
10.78807,479.19,614.33
10.80806,481.00,615.16
10.82797,479.78,613.47
10.84921,482.31,608.09
10.86884,478.14,598.59
10.88882,479.31,589.66
10.90956,479.76,579.23
10.92831,480.89,566.89
10.94960,480.10,556.11
10.96861,478.63,546.40
10.99023,479.01,543.69
11.00895,474.64,540.09
11.03040,475.97,534.19
11.05038,476.35,530.48
11.07010,474.20,528.26
11.09033,474.25,521.91
11.11129,475.47,521.16
11.13069,471.56,519.31
11.15167,472.44,521.05
11.17184,474.00,518.34
11.19169,473.67,515.20
11.21097,470.98,514.26
11.23193,474.19,514.80
11.25088,471.89,514.97
11.27173,471.56,510.02
11.29232,473.22,509.88
11.31217,473.60,507.53
11.33272,474.08,513.06
11.35105,472.15,512.11
11.37236,474.73,508.87
11.39215,472.45,509.46
11.41258,469.95,508.67
11.43122,473.91,505.91
11.45094,471.87,505.71
11.47099,474.18,506.45
11.49100,471.91,506.25
11.51181,472.42,504.09
11.53190,473.23,503.73
11.55135,469.46,503.40
11.57090,471.56,502.89
11.59183,472.06,504.16
11.61219,475.77,503.31
11.63221,476.32,507.77
11.65210,477.89,514.57
11.67315,477.32,512.55
11.69259,478.10,506.25
11.71344,478.53,482.35
11.73373,478.25,455.98
11.75283,475.05,429.96
11.77301,471.52,410.39
11.79252,469.84,396.13
11.81300,468.92,389.35
11.83197,465.30,388.43
11.85192,467.44,393.04
11.87217,465.91,400.25
11.89198,466.36,405.45
11.91235,466.76,416.17
11.93209,467.14,425.58
11.95174,467.13,434.02
11.97364,468.38,442.21
11.99171,471.41,448.61
12.01205,472.03,457.30
12.03206,472.36,462.24
12.05230,473.26,464.07
12.07368,474.96,469.61
12.09294,474.33,474.98
12.11469,479.22,476.75
12.13425,478.37,479.35
12.15454,476.32,481.54
12.17478,477.99,485.06
12.19413,480.36,488.61
12.21408,478.16,486.62
12.23394,479.61,488.11
12.25376,479.23,489.37
12.27386,480.00,491.74
12.29396,479.95,494.56
12.31342,477.33,491.74
12.33318,480.02,492.33
12.35411,479.51,494.82
12.37396,477.36,495.89
12.39320,477.89,496.45
12.41451,478.37,498.15
12.43455,476.90,496.47
12.45308,478.51,499.10
12.47300,479.91,496.04
12.49292,477.24,498.50
12.51290,480.13,497.30
12.53441,480.50,498.94
12.55393,479.03,499.96
12.57426,480.62,496.61
12.59391,479.50,495.86
12.61334,480.79,498.45
12.63433,480.47,499.89
12.65288,481.14,500.22
12.67385,481.68,500.07
12.69294,481.59,501.46
12.71311,482.07,502.31
12.73318,480.35,501.79
12.75417,482.13,499.84
12.77345,477.96,499.56
12.79421,479.15,497.86
12.81377,480.20,499.50
12.83363,480.83,498.37
12.85467,481.66,498.20
12.87301,483.13,500.01
12.89306,481.65,502.07
12.91324,484.28,504.14
12.93371,482.13,501.44
12.95440,481.34,500.30
12.97449,480.07,503.49
12.99316,481.80,504.41
13.01437,480.76,501.64
13.03346,479.23,503.59
13.05352,479.22,502.14
13.07277,482.27,502.88
13.09442,484.02,501.43
13.11316,484.07,503.97
13.13293,483.06,505.29
13.15417,482.82,504.81
13.17348,481.47,505.55
13.19310,483.01,504.25
13.21429,483.17,502.52
13.23366,482.63,502.13
13.25368,479.34,502.01
13.27428,480.17,504.65
13.29282,482.49,501.31
13.31278,480.79,504.14
13.33367,482.39,502.76
13.35392,482.84,501.65
13.37381,483.53,500.68
13.39408,482.57,501.34
13.41286,481.07,503.58
13.43396,483.97,504.51
13.45371,480.21,505.66
13.47380,479.75,504.69
13.49456,481.04,505.10
13.51294,481.78,502.70
13.53344,482.75,503.18
13.55447,484.22,506.23
13.57385,484.12,503.93
13.59295,486.48,504.97
13.61443,486.34,505.65
13.63307,483.83,504.29
13.65375,485.88,504.26
13.67368,484.60,507.34
13.69319,484.32,506.51
13.71354,481.82,505.00
13.73434,480.87,506.34
13.75375,481.45,503.82
13.77380,481.66,503.92
13.79353,484.20,505.95
13.81293,481.94,504.98
13.83308,481.16,503.56
13.85384,483.49,503.86
13.87393,483.98,502.52
13.89372,484.40,502.67
13.91289,483.98,501.60
13.93300,481.83,501.43
13.95352,484.05,501.97
13.97284,483.09,501.13
13.99331,481.74,504.56
14.01451,481.07,501.74
14.03360,480.36,505.30
14.05374,485.25,503.07
14.07306,483.41,501.68
14.09411,483.08,502.61
14.11328,486.53,500.86
14.13404,485.06,501.99
14.15328,485.91,502.95
14.17308,484.34,500.90
14.19436,482.51,503.03
14.21259,485.42,500.27
14.23277,485.08,499.91
14.25413,486.16,502.71
14.27306,484.27,504.36
14.29414,485.17,506.93
14.31445,482.93,504.28
14.33342,483.96,509.56
14.35283,485.74,508.97
14.37332,485.65,507.31
14.39468,483.40,510.35
14.41413,483.40,510.06
14.43357,484.06,507.52
14.45417,484.47,507.74
14.47282,484.33,509.31
14.49393,486.11,509.21
14.51270,483.36,506.68
14.53308,484.99,507.64
14.55411,485.89,509.29
14.57351,486.53,509.40
14.59432,488.39,506.42
14.61411,488.90,509.52
14.63313,485.31,506.90
14.65421,486.13,507.03
14.67370,484.03,506.46
14.69384,488.36,504.33
14.71348,486.49,505.30
14.73444,484.59,503.89
14.75350,486.67,504.80
14.77412,486.55,507.14
14.79459,486.27,508.41
14.81361,485.00,505.86
14.83476,482.77,504.15
14.85382,483.92,505.43
14.87363,484.44,504.70
14.89366,484.93,505.36
14.91382,485.13,503.67
14.93438,484.84,502.28
14.95442,485.32,505.87
14.97305,487.44,504.17
14.99368,486.42,503.08
15.01379,486.23,499.97
15.03300,485.14,503.05
15.05461,485.07,501.23
15.07386,486.86,499.95
15.09457,485.97,499.61
15.11394,488.68,502.46
15.13378,489.85,500.95
15.15350,487.83,503.66
15.17442,490.21,503.75
15.19390,488.95,506.56
15.21407,488.58,503.88
15.23295,490.19,505.90
15.25273,486.78,507.61
15.27412,487.50,504.98
15.29302,485.98,505.69
15.31275,487.22,506.31
15.33406,486.63,506.76
15.35341,484.92,504.13
15.37270,486.20,502.47
15.39398,487.31,507.21
15.41427,486.71,515.37
15.43382,487.62,539.26
15.45401,491.20,572.74
15.47322,493.12,598.29
15.49392,494.79,615.45
15.51285,494.63,620.29
15.53327,493.26,625.02
15.55289,494.58,616.78
15.57451,495.44,606.75
15.59362,495.87,595.26
15.61384,492.12,579.32
15.63456,490.09,566.10
15.65475,489.61,553.45
15.67339,491.83,546.35
15.69441,491.95,542.38
15.71360,491.71,534.85
15.73310,488.72,530.68
15.75332,490.75,525.46
15.77311,488.67,522.66
15.79342,489.94,520.23
15.81350,488.71,517.34
15.83266,487.62,517.27
15.85416,485.93,517.05
15.87279,488.40,514.32
15.89397,487.26,516.26
15.91451,487.68,513.18
15.93323,486.75,515.44
15.95328,490.24,512.14
15.97349,490.30,510.78
15.99344,486.92,512.02
16.01262,488.64,512.12
16.03338,487.22,509.48
16.05445,489.12,512.05
16.07306,486.31,511.10
16.09467,486.51,510.20
16.11383,487.92,510.71
16.13369,488.25,509.06
16.15387,485.66,511.67
16.17466,483.53,511.40
16.19352,486.24,510.58
16.21394,484.34,511.43
16.23412,484.28,510.30
16.25429,483.95,509.47
16.27418,487.10,507.62
16.29462,485.38,509.51
16.31357,484.85,511.12
16.33294,484.13,508.05
16.35388,486.61,499.60
16.37398,485.47,484.35
16.39292,485.76,462.76
16.41509,485.94,444.10
16.43602,484.41,429.45
16.45642,483.57,422.24
16.47586,480.85,419.05
16.49498,482.59,420.73
16.51666,481.07,420.00
16.53489,479.28,424.74
16.55583,481.26,432.51
16.57522,480.97,437.52
16.59498,482.75,446.06
16.61622,485.26,450.41
16.63598,483.54,456.38
16.65668,486.47,460.69
16.67589,487.30,466.97
16.69529,485.17,472.48
16.71554,487.40,471.92
16.73486,485.20,476.89
16.75635,487.74,481.39
16.77605,488.20,481.83
16.79620,486.27,486.97
16.81482,487.96,485.47
16.83612,489.70,488.30
16.85649,491.89,491.14
16.87551,493.25,494.75
16.89593,490.01,493.84
16.91495,489.62,496.02
16.93522,489.91,496.29
16.95611,489.95,498.67
16.97514,491.76,498.59
16.99592,491.60,502.15
17.01539,490.60,503.66
17.03451,493.37,504.87
17.05522,489.73,503.97
17.07472,490.96,504.93
17.09493,489.40,506.55
17.11504,492.22,506.23
17.13596,489.71,504.57
17.15547,491.38,507.46
17.17517,492.22,508.99
17.19621,490.23,509.67
17.21602,490.14,508.98
17.23669,490.21,505.80
17.25501,493.27,507.28
17.27613,491.48,509.71
17.29546,493.09,508.54
17.31592,490.09,507.87
17.33486,489.30,508.72
17.35554,489.94,507.25
17.37640,491.00,507.28
17.39632,488.38,507.94
17.41556,488.70,509.49
17.43582,490.44,508.74
17.45640,491.48,506.64
17.47547,491.88,505.36
17.49604,489.88,507.95
17.51555,489.18,505.06
17.53466,490.52,507.69
17.55596,491.58,507.48
17.57620,491.97,506.03
17.59506,492.26,505.79
17.61530,491.70,506.64
17.63491,490.16,508.86
17.65515,492.53,510.31
17.67537,492.51,507.20
17.69549,491.83,506.78
17.71554,489.64,508.06
17.73592,491.14,506.51
17.75597,491.25,507.74
17.77663,488.12,509.69
17.79472,490.96,507.28
17.81527,490.88,506.23
17.83633,488.84,507.18
17.85509,488.05,508.00
17.87483,490.73,510.51
17.89563,492.26,507.19
17.91519,492.30,507.39
17.93533,492.01,507.64
17.95659,491.24,507.05
17.97615,490.29,509.73
17.99651,491.13,506.94
18.01579,492.84,508.28
18.03624,489.88,510.54
18.05643,489.00,508.99
18.07614,491.35,509.66
18.09557,492.81,509.74
18.11552,493.45,511.37
18.13472,494.91,511.51
18.15566,493.62,509.73
18.17668,493.03,510.67
18.19624,497.05,509.97
18.21482,496.92,511.11
18.23579,495.54,509.80
18.25696,494.71,512.22
18.27652,494.68,510.35
18.29546,490.33,510.51
18.31520,489.54,510.30
18.33636,491.15,509.80
18.35640,492.26,510.12
18.37476,491.89,512.73
18.39531,488.76,511.60
18.41661,490.18,511.93
18.43612,489.38,510.95
18.45634,489.49,513.19
18.47618,490.98,510.47
18.49660,491.95,510.74
18.51461,490.94,508.76
18.53665,490.24,512.15
18.55613,488.44,508.07
18.57551,488.17,509.86
18.59661,488.71,512.01
18.61582,488.28,511.90
18.63566,488.57,512.20
18.65489,486.37,513.85
18.67504,487.91,513.09
18.69556,486.80,513.89
18.71468,488.05,512.23
18.73471,489.07,512.76
18.75524,488.66,514.30
18.77551,487.50,514.67
18.79667,489.80,512.06
18.81513,489.25,512.05
18.83497,490.21,512.57
18.85645,490.11,515.09
18.87662,488.31,513.14
18.89668,492.56,514.19
18.91517,492.92,515.18
18.93481,491.53,510.53
18.95607,491.92,511.64
18.97537,493.03,511.69
18.99496,489.72,513.83
19.01619,489.77,513.57
19.03638,494.10,511.97
19.05517,490.70,510.61
19.07526,492.96,510.05
19.09560,491.70,510.97
19.11534,491.21,513.64
19.13490,490.50,513.05
19.15541,489.35,511.94
19.17573,489.58,513.99
19.19473,488.51,512.66
19.21605,488.23,516.32
19.23508,488.03,513.46
19.25578,488.06,514.05
19.27576,488.62,514.35
19.29578,488.34,511.74
19.31623,489.83,514.17
19.33630,487.03,509.90
19.35493,488.40,510.22
19.37633,487.76,508.17
19.39614,487.50,509.79
19.41502,488.35,510.45
19.43750,487.35,512.92
19.45632,487.43,511.95
19.47624,486.78,511.88
19.49651,489.10,512.41
19.51581,487.47,514.17
19.53606,489.98,512.82
19.55682,488.80,510.52
19.57605,489.32,512.22
19.59590,487.62,522.41
19.61560,487.35,545.55
19.63551,490.32,558.41
19.65526,489.69,579.40
19.67490,490.61,587.97
19.69670,491.90,598.81
19.71617,490.54,603.78
19.73475,491.49,602.05
19.75605,492.50,594.58
19.77628,492.77,591.48
19.79582,495.32,585.99
19.81535,493.86,576.89
19.83590,498.07,569.56
19.85503,498.03,563.15
19.87634,497.42,555.87
19.89483,494.66,555.32
19.91490,495.62,548.98
19.93547,495.13,543.40
19.95575,493.05,544.61
19.97631,492.64,538.50
19.99646,494.34,533.59
20.01633,493.12,531.37
20.03640,492.53,529.14
20.05480,490.17,528.26
20.07557,488.98,526.46
20.09592,490.39,528.62
20.11613,486.68,524.78
20.13550,490.72,523.61
20.15481,487.84,521.39
20.17592,488.64,523.80
20.19572,487.49,522.76
20.21611,487.77,522.09
20.23600,490.43,522.66
20.25596,489.25,522.79
20.27457,492.04,520.45
20.29554,491.71,517.90
20.31632,489.70,516.75
20.33610,492.57,516.66
20.35490,490.56,516.96
20.37497,489.04,515.87
20.39484,490.61,515.24
20.41580,486.78,515.78
20.43647,488.23,513.78
20.45498,488.53,513.67
20.47627,489.59,513.60
20.49649,490.71,513.64
20.51490,491.78,509.52
20.53637,490.13,510.21
20.55650,490.38,510.89
20.57574,490.10,517.88
20.59492,490.22,515.04
20.61536,487.50,517.35
20.63629,487.89,518.41
20.65648,488.42,517.29
20.67734,487.43,505.79
20.69742,482.40,485.27
20.71593,482.28,457.39
20.73691,478.03,434.59
20.75641,480.22,421.33
20.77698,476.77,414.45
20.79702,474.63,409.92
20.81775,474.01,410.23
20.83672,478.12,417.46
20.85862,474.86,423.02
20.87707,474.23,429.18
20.89729,476.32,435.96
20.91753,475.49,442.74
20.93670,475.07,449.21
20.95704,478.01,455.34
20.97785,478.07,460.20
20.99846,479.36,469.06
21.01760,480.52,471.57
21.03706,479.22,477.27
21.05681,482.63,477.05
21.07811,481.09,481.35
21.09793,478.38,488.15
21.12002,479.33,489.50
21.13954,476.66,490.84
21.15994,478.72,494.05
21.18025,476.04,495.63
21.19915,475.80,497.41
21.22063,477.70,498.56
21.23936,477.86,498.05
21.26040,477.26,499.11
21.27930,474.73,499.39
21.29938,471.99,500.89
21.32000,472.03,502.50
21.33982,475.98,500.95
21.35964,471.97,500.32
21.37972,473.21,502.71
21.40012,472.31,501.79
21.41893,474.37,503.94
21.44002,470.26,504.33
21.46109,473.40,504.49
21.47962,470.61,503.54
21.49951,470.30,502.39
21.52055,471.30,504.52
21.53964,471.19,502.16
21.56098,472.21,500.66
21.58165,472.16,501.34
21.59986,471.14,500.31
21.62065,471.88,501.03
21.64058,473.54,501.78
21.66159,471.33,499.73
21.68010,471.85,500.64
21.69983,473.51,500.36
21.72020,471.94,501.85
21.74004,473.42,502.18
21.76031,472.05,503.97
21.78082,474.84,505.51
21.80042,472.62,504.73
21.82006,473.61,502.96
21.83970,473.39,504.78
21.86009,471.48,504.03
21.88073,473.02,506.25
21.89976,471.82,503.42
21.92070,469.28,506.59
21.93970,471.01,504.37
21.96138,472.00,506.75
21.98098,470.31,504.13
22.00059,472.80,505.26
22.02062,473.09,504.61
22.04061,471.64,505.85
22.05965,471.15,502.21
22.07998,474.07,503.25
22.10023,473.37,504.24
22.12076,471.38,505.99
22.14065,473.66,504.93
22.16139,471.90,503.76
22.17973,472.47,507.37
22.20024,473.98,505.02
22.22024,472.75,500.81
22.24009,470.75,503.35
22.26134,473.91,499.28
22.27975,472.88,501.10
22.29983,471.99,500.95
22.32058,473.33,504.19
22.34155,472.61,503.25
22.36086,469.91,502.20
22.38020,470.66,502.63
22.39957,474.42,502.78
22.42067,471.65,503.00
22.44084,471.78,502.28
22.46075,472.72,505.70
22.47986,470.66,504.20
22.50021,472.05,501.71
22.52146,468.67,501.77
22.54067,470.14,502.66
22.56007,471.28,501.46
22.57963,471.19,503.42
22.60019,469.01,505.77
22.62260,472.33,501.70
22.64134,470.17,501.10
22.66226,468.91,501.44
22.68193,472.11,502.55
22.70084,469.20,500.31
22.72225,469.10,500.74
22.74128,472.84,499.95
22.76089,472.34,502.50
22.78140,472.58,500.07
22.80097,470.75,499.76
22.82189,470.87,501.31
22.84223,470.15,500.82
22.86085,472.10,502.32
22.88210,471.67,500.43
22.90232,472.78,500.22
22.92136,470.13,499.60
22.94084,471.20,500.15
22.96222,468.94,501.04
22.98102,470.93,500.90
23.00050,472.58,501.48
23.02148,469.38,499.54
23.04146,470.74,501.03
23.06104,472.47,500.16
23.08119,472.54,499.88
23.10083,470.90,499.50
23.12257,470.13,500.85
23.14238,472.75,500.48
23.16130,471.41,498.82
23.18166,472.24,501.42
23.20202,469.26,501.04
23.22070,471.25,502.38
23.24086,472.25,500.19
23.26191,470.81,501.69
23.28200,471.72,500.92
23.30237,472.32,497.90
23.32235,473.98,499.19
23.34207,473.84,500.53
23.36096,472.88,501.13
23.38209,474.76,499.46
23.40240,472.48,497.81
23.42164,473.38,501.08
23.44151,472.80,502.29
23.46212,471.01,500.82
23.48182,472.69,498.94
23.50092,470.94,496.87
23.52134,469.43,501.56
23.54255,470.40,501.27
23.56215,470.28,500.07
23.58116,469.42,500.94
23.60213,470.99,501.31
23.62171,470.03,497.63
23.64072,470.58,498.83
23.66073,471.94,497.42
23.68226,472.68,499.90
23.70241,472.36,497.78
23.72161,470.35,497.40
23.74240,469.45,501.11
23.76126,470.44,499.96
23.78137,471.64,500.14
23.80131,471.25,501.14
23.82195,471.33,498.66
23.84144,474.39,501.17
23.86126,472.40,500.14
23.88079,471.61,503.29
23.90192,473.12,503.50
23.92208,474.12,500.56
23.94096,474.86,503.71
23.96113,475.22,502.51
23.98090,473.99,502.21
24.00077,476.02,507.32
24.02252,474.25,524.24
24.04237,478.92,543.29
24.06167,477.31,566.04
24.08168,478.41,582.61
24.10034,478.37,591.12
24.12254,478.66,599.66
24.14087,477.39,600.71
24.16123,476.08,598.87
24.18232,477.54,593.43
24.20065,476.87,587.53
24.22115,477.80,576.85
24.24212,479.52,571.71
24.26073,476.03,561.96
24.28224,475.61,556.20
24.30104,477.97,547.40
24.32152,478.49,536.41
24.34231,476.82,528.51
24.36194,476.07,525.20
24.38179,476.85,523.40
24.40188,477.14,519.27
24.42196,477.79,520.01
24.44099,477.97,516.86
24.46197,477.07,516.58
24.48200,476.74,514.91
24.50093,473.33,515.42
24.52244,474.25,512.26
24.54184,471.82,512.96
24.56247,472.54,511.36
24.58308,475.17,509.13
24.60265,472.48,509.53
24.62336,472.96,510.91
24.64216,473.09,509.78
24.66160,476.25,510.63
24.68213,474.24,510.53
24.70198,475.13,507.75
24.72188,477.23,506.95
24.74349,476.73,507.46
24.76174,476.99,505.07
24.78344,479.34,506.59
24.80350,479.80,507.09
24.82294,479.47,504.19
24.84155,481.86,501.87
24.86179,480.92,502.29
24.88300,481.26,502.29
24.90233,479.70,503.02
24.92136,480.40,503.38
24.94241,480.78,506.35
24.96323,477.56,505.96
24.98341,480.76,507.62
25.00195,477.99,506.37
25.02360,478.09,506.08
25.04237,478.90,506.92
25.06161,478.89,502.92
25.08247,475.66,491.52
25.10219,473.50,470.63
25.12217,473.36,451.12
25.14193,473.34,432.78
25.16204,472.73,413.88
25.18349,471.49,403.02
25.20292,472.17,397.67
25.22172,469.86,397.21
25.24204,471.21,399.25
25.26305,472.14,404.04
25.28176,473.53,408.26
25.30217,474.31,414.46
25.32305,475.75,423.03
25.34297,472.73,432.81
25.36341,473.21,439.83
25.38200,474.65,446.90
25.40188,477.22,457.78
25.42181,477.32,462.76
25.44330,478.81,469.49
25.46256,478.42,476.16
25.48231,479.86,477.82
25.50256,479.83,482.86
25.52252,482.84,486.14
25.54345,478.71,486.65
25.56259,478.50,492.06
25.58177,477.97,491.13
25.60182,479.07,493.15
25.62283,481.32,494.51
25.64155,481.28,495.14
25.66205,480.60,496.07
25.68304,480.78,495.19
25.70165,477.05,497.94
25.72190,480.52,497.55
25.74194,478.96,497.64
25.76344,480.11,499.48
25.78296,480.67,501.86
25.80394,481.40,498.98
25.82291,480.66,501.82
25.84295,481.13,502.47
25.86377,482.32,500.96
25.88429,485.26,503.62
25.90333,484.43,505.70
25.92387,483.26,504.02
25.94270,485.94,505.42
25.96400,485.65,507.27
25.98333,485.79,503.97
26.00442,484.00,506.52
26.02309,484.03,508.03
26.04299,484.81,506.18
26.06325,483.87,508.72
26.08284,484.29,505.22
26.10392,484.14,504.78
26.12289,485.26,507.72
26.14399,485.98,504.52
26.16428,485.90,504.10
26.18278,482.63,506.17
26.20402,486.89,505.79
26.22441,485.55,504.78
26.24363,485.22,507.66
26.26375,487.94,505.37
26.28291,485.67,504.61
26.30286,486.73,503.82
26.32294,485.76,505.07
26.34422,488.45,506.56
26.36288,485.86,506.47
26.38327,489.23,505.23
26.40409,487.03,505.00
26.42412,487.06,504.10
26.44315,490.59,505.41
26.46437,486.99,507.80
26.48330,487.03,503.76
26.50296,489.77,505.86
26.52403,490.74,503.29
26.54499,489.07,503.48
26.56462,488.72,503.27
26.58513,487.01,506.89
26.60480,486.12,504.72
26.62397,487.50,507.26
26.64395,487.59,507.39
26.66412,487.43,509.95
26.68465,489.33,509.65
26.70459,488.69,508.47
26.72526,487.92,508.38
26.74477,490.01,506.83
26.76458,489.83,507.27
26.78438,489.04,510.31
26.80610,490.39,509.33
26.82652,490.54,509.21
26.84469,491.36,509.67
26.86542,490.38,510.09
26.88527,493.91,509.56
26.90480,491.06,511.69
26.92509,491.36,510.14
26.94520,489.31,512.85
26.96514,488.74,511.68
26.98511,488.79,512.71
27.00525,492.23,509.75
27.02450,491.10,509.57
27.04525,491.62,508.96
27.06643,492.49,511.99
27.08598,491.20,513.54
27.10516,491.64,510.65
27.12565,492.71,512.42
27.14632,491.87,510.74
27.16612,490.04,510.30
27.18487,489.42,509.01
27.20556,486.78,511.52
27.22530,490.15,510.55
27.24472,489.41,509.01
27.26514,490.57,509.08
27.28497,489.50,509.26
27.30507,487.43,505.34
27.32599,490.12,506.60
27.34510,487.59,505.21
27.36537,491.51,504.70
27.38536,490.34,505.71
27.40606,491.79,507.36
27.42537,491.80,508.56
27.44491,489.30,509.33
27.46584,490.00,508.52
27.48453,488.66,507.85
27.50530,491.21,506.86
27.52449,489.30,508.76
27.54594,489.24,506.34
27.56516,488.46,504.94
27.58600,488.34,505.69
27.60523,487.36,506.23
27.62607,486.04,507.03
27.64486,487.26,504.21
27.66438,488.94,504.83
27.68609,489.03,506.68
27.70551,490.67,506.82
27.72563,489.40,507.67
27.74475,489.06,509.95
27.76423,491.49,507.68
27.78580,488.93,508.56
27.80528,490.25,508.73
27.82594,491.44,510.68
27.84549,491.90,509.69
27.86496,491.84,508.95
27.88506,489.60,509.80
27.90619,493.41,509.75
27.92604,494.44,509.16
27.94556,491.17,507.89
27.96584,492.30,509.55
27.98439,489.86,505.59
28.00563,489.51,506.06
28.02586,490.75,507.24
28.04603,491.02,509.36
28.06552,490.70,505.81
28.08654,490.63,505.88
28.10489,489.90,507.83
28.12601,491.56,507.62
28.14559,490.33,506.90
28.16482,492.60,506.78
28.18592,488.70,506.47
28.20471,491.86,507.84
28.22582,490.05,507.72
28.24521,490.98,506.96
28.26434,491.38,505.87
28.28466,489.51,504.90
28.30576,491.00,505.90
28.32521,489.30,505.64
28.34558,489.57,506.09
28.36577,487.12,508.66
28.38454,485.94,512.10
28.40563,486.78,512.06
28.42606,488.09,518.32
28.44674,487.93,532.41
28.46556,484.63,545.69
28.48598,486.78,562.08
28.50714,482.51,571.58
28.52554,485.92,578.08
28.54592,484.00,584.06
28.56670,485.54,590.19
28.58630,484.15,589.67
28.60651,484.37,591.05
28.62562,486.07,587.98
28.64736,488.45,586.36
28.66584,488.67,584.43
28.68592,490.17,578.98
28.70571,494.15,577.83
28.72736,497.41,575.08
28.74551,496.36,570.06
28.76597,497.61,564.03
28.78668,501.88,561.46
28.80654,501.40,555.06
28.82774,500.41,550.08
28.84637,497.53,546.52
28.86693,501.24,538.83
28.88749,499.36,535.90
28.90804,497.78,531.72
28.92722,496.94,529.04
28.94765,494.49,523.38
28.96725,495.27,525.06
28.98689,494.16,521.36
29.00836,495.80,521.10
29.02717,491.23,518.07
29.04799,488.60,521.27
29.06644,489.19,517.94
29.08767,488.25,514.68
29.10777,487.70,515.53
29.12734,488.10,516.58
29.14727,489.76,513.77
29.16730,487.92,517.74
29.18771,488.60,516.97
29.20794,488.12,510.88
29.22653,488.77,512.67
29.24672,486.09,514.53
29.26702,484.69,511.99
29.28725,484.88,514.90
29.30675,486.51,513.73
29.32818,485.19,512.76
29.34654,483.97,507.11
29.36683,487.13,501.75
29.38737,483.53,485.24
29.40837,482.98,464.05
29.42808,482.69,444.28
29.44675,481.75,426.18
29.46814,479.08,408.74
29.48640,477.05,404.71
29.50805,479.33,403.53
29.52703,477.75,408.73
29.54690,479.19,414.69
29.56820,476.53,417.16
29.58661,478.16,424.78
29.60725,479.02,433.71
29.62814,478.73,440.12
29.64674,476.21,451.03
29.66808,478.37,455.66
29.68824,479.40,465.66
29.70787,481.94,471.36
29.72885,482.19,475.22
29.74916,483.27,481.93
29.76880,481.05,483.11
29.78793,481.07,487.31
29.80929,480.20,491.65
29.82930,481.30,491.03
29.84791,480.52,493.93
29.86843,481.39,494.14
29.88778,479.26,495.93
29.90932,479.11,498.22
29.92778,483.05,497.43
29.94865,480.13,496.53
29.96779,482.76,499.75
29.98925,482.63,497.99
30.00898,479.09,501.47
30.02807,480.24,499.68
30.04808,478.41,501.96
30.06834,477.70,504.24
30.08803,477.51,505.22
30.10795,478.08,503.51
30.12798,478.78,503.64
30.14865,476.35,504.60
30.16802,476.71,504.84
30.18792,475.75,507.63
30.20793,476.84,504.97
30.22780,477.76,506.83
30.24766,480.22,507.81
30.26772,481.89,508.79
30.28847,482.41,507.29
30.30923,481.48,505.87
30.32858,481.46,504.24
30.34883,477.39,505.24
30.36907,479.59,505.11
30.38824,479.03,507.04
30.40859,479.07,505.53
30.42817,476.74,508.53
30.44760,477.01,508.05
30.46782,475.71,509.48
30.48828,475.35,507.10
30.50871,478.07,507.93
30.52883,475.58,509.35
30.54818,475.73,508.70
30.56887,476.22,507.17
30.58912,475.13,505.80
30.60923,477.40,504.62
30.62844,477.60,505.42
30.64834,476.47,505.72
30.66898,477.38,507.83
30.68784,476.31,508.42
30.70892,477.27,505.58
30.72844,477.73,508.19
30.74812,474.87,507.72
30.76721,474.53,507.42
30.78824,478.04,507.51
30.80781,475.93,507.95
30.82746,476.58,505.76
30.84896,475.96,504.87
30.86879,475.96,507.46
30.88837,476.21,504.62
30.90849,474.59,507.63
30.92751,476.77,506.51
30.94854,477.02,505.85
30.96851,475.86,504.76
30.98770,474.48,504.41
31.00890,473.65,505.59
31.02872,474.14,507.22
31.04802,472.08,504.18
31.06886,475.86,504.35
31.08925,475.09,505.80
31.10843,474.59,505.49
31.12806,475.54,502.45
31.14731,475.60,504.73
31.16882,473.56,506.62
31.18887,476.69,506.17
31.20820,476.80,505.03
31.22852,474.76,508.78
31.24819,474.22,506.95
31.26845,474.22,509.06
31.28789,475.25,508.95
31.30887,475.54,506.08
31.32833,472.78,508.20
31.34755,474.21,506.64
31.36838,475.73,506.89
31.38873,474.22,504.99
31.40887,473.72,507.48
31.42876,474.92,504.68
31.44906,473.85,504.06
31.46882,473.01,506.43
31.48849,475.23,503.73
31.50872,477.08,504.78
31.52789,474.23,504.18
31.54870,475.43,504.40
31.56915,474.97,506.11
31.58809,476.58,506.51
31.60879,476.70,504.04
31.62843,474.19,506.70
31.64786,473.61,505.97
31.66891,478.26,505.78
31.68791,476.32,505.54
31.70830,476.05,508.17
31.72828,477.52,504.36
31.74823,476.44,504.43
31.76839,476.76,506.21
31.78837,473.46,505.38
31.80930,475.25,506.34
31.82825,473.73,506.91
31.84794,472.76,507.45
31.86760,473.40,505.06
31.88879,476.49,504.21
31.90800,472.80,506.58
31.92879,475.07,506.76
31.94740,474.79,505.24
31.96911,471.65,507.02
31.98859,474.96,507.36
32.00996,471.25,505.28
32.02879,474.40,502.71
32.04949,471.91,502.33
32.06933,472.00,504.46
32.08877,474.75,503.27
32.10902,473.06,505.77
32.12840,471.28,503.19
32.14999,473.02,504.69
32.16840,471.97,505.25
32.18990,472.11,506.58
32.20988,475.00,504.71
32.22987,472.20,507.31
32.24992,472.76,505.54
32.26859,471.55,503.75
32.29006,469.82,504.36
32.30992,469.40,503.00
32.32946,471.98,502.01
32.35008,471.13,503.93
32.36912,469.83,501.41
32.38860,468.91,501.03
32.40913,471.05,502.16
32.43008,469.91,501.04
32.44942,470.18,501.57
32.46948,471.46,501.68
32.48894,471.71,504.84
32.51011,469.32,515.59
32.52987,469.13,531.49
32.54811,469.34,544.96
32.56936,468.93,557.84
32.59024,469.08,567.89
32.60970,470.60,572.88
32.63084,472.67,578.73
32.65000,473.03,579.80
32.66994,474.04,579.56
32.69030,477.96,575.69
32.70986,479.08,573.28
32.73027,479.77,567.17
32.75015,479.68,564.23
32.77069,480.77,561.92
32.78943,479.99,555.73
32.81056,477.68,550.32
32.83205,476.05,547.00
32.85109,477.36,542.75
32.87111,477.70,535.59
32.89208,477.93,533.68
32.91144,477.54,530.23
32.93189,476.93,526.38
32.95220,475.92,522.34
32.97170,478.14,518.50
32.99126,477.04,516.84
33.01216,475.22,515.55
33.03176,473.51,515.00
33.05030,473.60,512.18
33.07130,473.60,511.63
33.09133,474.74,507.27
33.11169,473.95,506.71
33.13108,471.18,506.33
33.15119,474.17,507.21
33.17208,472.90,506.34
33.19102,471.01,507.47
33.21050,471.40,504.70
33.23229,474.89,504.33
33.25084,473.76,500.95
33.27184,475.45,502.47
33.29011,474.54,500.69
33.31156,472.92,501.17
33.33049,471.98,501.51
33.35102,470.72,504.72
33.37132,472.11,501.16
33.39160,473.09,502.29
33.41213,474.02,505.72
33.43079,472.66,503.77
33.45096,471.46,510.18
33.47078,473.45,511.05
33.49214,473.11,495.46
33.51131,471.38,466.77
33.53101,471.07,440.51
33.55053,469.38,416.90
33.57058,467.86,408.44
33.59186,467.10,401.20
33.61195,464.86,401.06
33.63050,463.73,403.03
33.65104,465.57,407.26
33.67042,464.71,415.33
33.69043,464.42,421.16
33.71169,465.08,429.41
33.73124,467.28,438.22
33.75062,468.08,445.38
33.77180,469.66,453.68
33.79043,470.04,458.85
33.81138,469.90,463.26
33.83139,468.52,467.17
33.85137,469.31,470.52
33.87038,469.64,476.72
33.89043,470.76,480.63
33.91100,473.01,484.51
33.93211,473.98,484.16
33.95050,471.87,486.71
33.97140,473.60,488.99
33.99060,473.69,492.01
34.01074,473.25,494.12
34.03198,472.77,497.56
34.05176,472.78,496.68
34.07229,472.35,498.97
34.09083,472.79,498.25
34.11091,471.23,501.86
34.13129,471.68,499.49
34.15084,473.97,501.17
34.17021,476.71,502.01
34.19194,476.66,502.97
34.21152,475.65,504.62
34.23278,478.17,502.88
34.25257,478.14,503.02
34.27260,477.80,502.77
34.29356,477.59,504.45
34.31332,480.26,505.40
34.33275,480.72,505.31
34.35282,479.50,506.31
34.37310,481.01,504.71
34.39384,479.84,504.84
34.41248,481.81,506.02
34.43395,482.01,506.18
34.45361,482.08,505.53
34.47397,481.17,501.44
34.49231,480.08,503.04
34.51268,481.83,502.17
34.53358,483.83,503.81
34.55298,485.67,502.94
34.57339,484.91,504.20
34.59307,485.80,502.44
34.61361,486.95,506.44
34.63371,484.47,504.43
34.65281,486.28,506.67
34.67324,483.41,503.33
34.69381,483.12,505.14
34.71384,483.64,506.63
34.73402,483.44,505.71
34.75321,481.14,507.06
34.77295,482.89,504.92
34.79234,481.77,507.59
34.81412,480.93,508.23
34.83272,482.35,507.98
34.85392,485.35,509.24
34.87251,483.29,508.57
34.89386,482.93,507.34
34.91393,485.70,507.62
34.93289,482.89,509.50
34.95308,483.92,507.97
34.97243,484.63,508.11
34.99424,482.79,507.06
35.01236,483.45,507.58
35.03403,486.54,505.76
35.05269,484.14,505.24
35.07392,484.50,504.20
35.09245,486.15,507.08
35.11395,484.21,505.25
35.13309,483.93,507.98
35.15365,484.42,506.57
35.17359,484.46,504.77
35.19338,483.91,507.64
35.21239,485.56,505.65
35.23249,482.63,507.18
35.25381,484.28,505.75
35.27255,483.34,506.72
35.29271,484.56,504.78
35.31381,481.57,505.30
35.33311,485.60,505.47
35.35393,484.18,508.11
35.37407,484.64,507.86
35.39246,482.65,506.46
35.41392,485.68,508.15
35.43312,485.53,505.85
35.45294,485.00,506.65
35.47333,486.83,505.06
35.49360,487.59,507.11
35.51370,483.15,508.04
35.53298,484.45,510.11
35.55217,484.06,508.85
35.57409,483.75,508.52
35.59299,485.75,505.82
35.61245,486.45,504.08
35.63383,482.78,507.62
35.65288,484.25,509.16
35.67391,485.24,513.29
35.69355,484.46,508.93
35.71342,483.21,512.44
35.73411,485.32,509.18
35.75330,484.95,510.34
35.77253,483.15,508.29
35.79245,486.81,510.11
35.81221,484.28,506.28
35.83354,486.00,506.20
35.85378,484.40,510.89
35.87354,483.96,507.20
35.89366,485.04,508.66
35.91413,485.37,508.23
35.93381,486.29,509.22
35.95255,487.10,507.24
35.97331,485.06,507.50
35.99343,488.32,506.23
36.01269,489.12,505.42
36.03362,486.04,507.47
36.05314,486.44,504.64
36.07334,487.14,505.89
36.09273,486.72,505.47
36.11403,486.43,508.93
36.13214,487.01,505.49
36.15338,486.70,505.92
36.17235,489.35,508.39
36.19318,486.91,508.90
36.21305,488.17,505.99
36.23389,487.17,508.78
36.25406,489.36,508.17
36.27255,487.68,508.24
36.29336,489.42,509.20
36.31237,489.52,507.24
36.33368,492.01,509.97
36.35340,491.15,504.72
36.37286,490.00,509.08
36.39251,489.51,509.81
36.41339,487.44,507.89
36.43322,489.07,508.23
36.45305,488.43,507.62
36.47308,487.25,508.08
36.49303,488.48,505.97
36.51349,491.68,504.44
36.53265,490.55,506.74
36.55245,491.84,515.32
36.57269,490.04,533.35
36.59303,492.58,561.74
36.61429,493.84,579.49
36.63264,492.61,594.07
36.65324,496.82,601.01
36.67236,497.52,599.08
36.69381,499.71,598.50
36.71515,499.15,596.18
36.73393,496.31,589.17
36.75397,497.77,582.15
36.77403,497.75,577.99
36.79397,496.84,570.58
36.81530,499.98,567.64
36.83357,496.15,560.64
36.85496,495.10,554.47
36.87576,495.35,548.63
36.89590,495.89,543.47
36.91539,494.41,539.27
36.93572,493.01,534.88
36.95722,490.32,529.78
36.97529,495.27,527.34
36.99550,491.32,525.64
37.01571,493.68,525.28
37.03539,491.47,522.40
37.05721,491.19,522.32
37.07576,491.99,523.17
37.09664,491.52,520.05
37.11646,492.97,517.57
37.13689,491.67,519.28
37.15662,490.26,520.19
37.17657,492.53,518.06
37.19564,494.19,518.65
37.21689,489.68,515.08
37.23561,492.14,517.08
37.25683,491.84,513.99
37.27683,491.73,514.85
37.29668,489.75,511.63
37.31585,488.69,512.45
37.33587,488.87,511.54
37.35561,489.38,517.38
37.37581,488.79,513.74
37.39611,491.10,514.53
37.41660,493.10,509.65
37.43606,492.91,493.73
37.45607,491.77,469.27
37.47707,487.80,444.03
37.49581,486.07,422.70
37.51602,485.11,411.07
37.53689,486.99,408.80
37.55527,483.77,405.30
37.57665,486.09,413.25
37.59662,485.27,415.81
37.61681,483.96,422.52
37.63666,485.00,429.38
37.65524,485.50,437.77
37.67573,487.51,444.07
37.69657,486.82,451.38
37.71683,487.36,458.56
37.73726,487.67,467.44
37.75693,487.89,470.55
37.77559,487.36,478.24
37.79775,485.76,482.07
37.81692,485.98,484.83
37.83632,489.41,489.04
37.85757,488.70,489.85
37.87724,486.08,493.51
37.89635,485.73,499.68
37.91776,487.65,498.18
37.93903,485.88,499.68
37.95775,483.71,501.74
37.97826,485.04,502.26
37.99769,484.89,504.60
38.01866,484.37,504.17
38.03737,484.34,504.96
38.05915,482.54,507.69
38.07904,482.83,508.58
38.09896,478.82,505.53
38.11743,479.37,509.66
38.13735,480.85,508.69
38.15787,478.22,508.99
38.17793,480.94,509.02
38.19872,480.99,510.24
38.21735,479.76,509.83
38.23809,482.51,509.79
38.25929,479.85,510.85
38.27893,480.79,509.09
38.29905,482.62,508.54
38.31868,478.62,510.42
38.33900,479.49,509.75
38.35767,480.94,508.27
38.37883,479.36,510.90
38.39874,481.24,508.08
38.41853,483.08,509.15
38.43711,481.19,509.05
38.45839,480.91,507.05
38.47884,482.04,509.72
38.49899,481.91,509.29
38.51722,484.19,510.09
38.53747,482.09,509.31
38.55802,484.18,509.62
38.57746,482.97,510.87
38.59864,482.97,509.41
38.61837,484.45,508.85
38.63751,481.16,508.00
38.65923,481.89,506.46
38.67793,480.88,507.23
38.69905,481.03,507.34
38.71715,480.09,507.27
38.73874,481.20,505.74
38.76017,480.09,504.84
38.77946,481.82,505.70
38.80003,480.38,507.74
38.81842,478.83,505.36
38.84007,481.69,506.29
38.85861,482.11,508.35
38.87845,478.28,505.42
38.89838,478.07,506.71
38.91850,480.43,506.09
38.93816,477.86,509.53
38.95850,479.09,509.40
38.97928,477.91,508.46
38.99827,478.23,509.21
39.01867,474.62,509.52
39.03994,475.09,508.52
39.05980,475.45,507.86
39.07957,476.60,509.80
39.09911,473.78,509.48
39.11963,477.82,509.02
39.13946,477.08,509.15
39.15865,476.10,508.21
39.17825,477.44,508.81
39.19953,478.06,509.11
39.21842,478.67,509.33
39.23829,475.98,510.67
39.25893,475.69,507.46
39.27883,477.58,507.35
39.29962,478.56,507.78
39.31832,475.95,506.11
39.33917,476.18,505.28
39.35827,475.02,503.41
39.38012,476.88,505.24
39.39898,477.41,504.24
39.41968,476.58,503.60
39.43995,476.08,504.93
39.45832,474.37,505.58
39.47960,475.53,504.42
39.49856,473.62,503.91
39.52005,476.30,505.79
39.54026,473.17,506.78
39.55861,472.60,502.66
39.57902,475.43,506.89
39.59877,475.13,505.23
39.61884,476.98,505.73
39.63850,474.98,505.19
39.66007,474.20,504.74
39.67924,473.95,507.67
39.69821,478.07,507.17
39.71833,474.08,506.32
39.73926,477.64,507.62
39.75845,474.58,506.86
39.77838,477.15,508.61
39.79824,474.96,508.43
39.81988,474.10,508.03
39.83918,474.55,507.79
39.85923,474.72,506.15
39.87966,476.80,502.74
39.89991,474.55,505.42
39.91944,474.30,505.58
39.93976,473.90,505.51
39.95897,473.40,501.92
39.97882,475.41,505.59
40.00025,475.95,506.17
40.01918,474.78,507.19
40.03896,474.83,505.19
40.05984,475.76,505.12
40.07946,478.56,508.12
40.09978,475.72,506.28
40.11828,476.70,508.62
40.13821,478.60,505.98
40.15876,479.10,505.61
40.17878,476.71,508.74
40.19886,476.19,509.33
40.21911,472.59,509.30
40.23838,472.26,508.61
40.25857,473.67,506.49
40.27855,472.93,506.89
40.29834,472.28,502.46
40.31924,471.67,503.62
40.33857,473.01,503.49
40.35859,471.87,503.27
40.37850,472.22,505.73
40.39927,472.89,505.23
40.41887,469.41,507.75
40.43884,469.79,507.93
40.45977,469.72,506.73
40.47994,471.43,506.36
40.49995,468.26,506.23
40.51947,470.89,508.02
40.53926,471.16,508.84
40.55902,469.87,509.86
40.57886,468.04,508.67
40.59899,469.27,506.48
40.61816,472.42,506.65
40.63821,469.05,507.94
40.65984,472.28,507.15
40.67926,469.52,508.28
40.69859,469.95,506.47
40.71975,471.01,507.67
40.73894,471.08,506.40
40.75971,470.85,505.07
40.77917,469.49,506.15
40.79884,470.53,508.62
40.81867,469.61,516.29
40.83945,469.89,540.47
40.86007,472.43,564.51
40.87860,475.58,589.54
40.89957,475.87,607.08
40.91860,478.02,612.60
40.93903,479.00,606.36
40.95968,476.42,599.86
40.97892,476.51,591.69
40.99873,476.54,580.38
41.01871,475.10,571.89
41.03892,476.72,564.45
41.05936,473.73,556.42
41.07978,475.11,549.08
41.09920,477.14,539.44
41.11866,473.56,534.95
41.13927,475.01,531.54
41.15943,473.23,527.53
41.17949,472.03,521.24
41.19883,471.72,519.33
41.21964,472.75,517.20
41.23833,469.88,514.44
41.25984,470.99,511.89
41.27931,472.33,511.57
41.29910,472.73,510.50
41.31843,473.20,510.25
41.33840,472.05,508.71
41.35984,474.54,510.61
41.37814,473.41,509.34
41.39861,472.66,508.79
41.41883,472.93,509.32
41.43991,474.15,508.48
41.45877,474.87,506.86
41.47964,472.38,508.86
41.49959,472.14,505.69
41.51862,469.98,507.64
41.53943,471.76,505.95
41.55862,469.78,507.79
41.58006,470.29,506.65
41.59880,472.62,506.71
41.61874,471.88,510.82
41.64000,471.14,509.69
41.65972,472.90,507.30
41.67931,472.43,508.86
41.69978,473.94,508.64
41.71982,475.62,507.39
41.73878,476.00,509.35
41.75850,471.98,510.47
41.78086,473.58,511.01
41.79977,473.31,502.56
41.82186,471.28,482.46
41.84165,469.92,455.91
41.86193,470.33,430.55
41.88193,467.92,413.72
41.90217,463.67,405.18
41.92102,462.81,399.14
41.94141,460.99,400.26
41.96058,462.13,405.19
41.98027,462.63,412.65
42.00119,463.51,417.77
42.02037,464.11,426.75
42.04203,465.44,433.87
42.06016,467.73,437.31
42.08069,465.66,443.18
42.10146,465.89,450.54
42.12238,469.06,456.13
42.14301,470.67,461.92
42.16132,471.90,468.15
42.18263,472.38,473.94
42.20162,469.60,477.92
42.22101,471.83,478.61
42.24264,473.88,483.69
42.26260,474.35,486.66
42.28305,473.47,487.24
42.30239,474.34,491.85
42.32248,477.13,490.60
42.34246,476.36,492.66
42.36269,480.49,495.98
42.38317,481.32,496.94
42.40356,478.00,500.05
42.42220,476.74,501.68
42.44224,477.49,497.40
42.46257,479.02,500.12
42.48378,479.48,500.40
42.50269,477.14,503.53
42.52474,478.58,504.97
42.54452,478.06,504.21
42.56431,477.46,505.01
42.58481,481.15,504.11
42.60394,482.21,506.68
42.62487,479.08,506.90
42.64507,482.94,507.20
42.66383,480.45,506.38
42.68357,482.41,502.53
42.70467,481.56,502.37
42.72470,483.32,501.34
42.74403,483.28,500.33
42.76372,480.92,501.72
42.78348,480.53,501.98
42.80503,481.77,502.49
42.82331,482.29,502.81
42.84503,480.35,500.63
42.86430,482.11,501.58
42.88355,479.91,502.67
42.90503,481.84,502.88
42.92432,477.90,504.81
42.94383,481.09,503.62
42.96337,479.08,506.98
42.98416,480.38,503.96
43.00408,482.39,507.07
43.02404,480.80,505.40
43.04368,483.78,506.94
43.06380,481.77,509.13
43.08442,481.28,507.46
43.10503,481.25,504.66
43.12458,480.57,504.97
43.14402,483.42,505.23
43.16411,483.44,507.24
43.18357,484.76,505.26
43.20477,482.94,505.35
43.22463,481.83,506.43
43.24332,484.65,504.53
43.26375,483.93,506.29
43.28410,485.64,505.57
43.30359,485.39,504.61
43.32445,484.02,507.73
43.34398,484.29,508.73
43.36344,483.93,509.44
43.38433,483.72,505.80
43.40338,486.26,506.00
43.42391,485.01,507.00
43.44438,486.43,505.74
43.46297,482.33,509.77
43.48441,485.19,507.39
43.50396,484.05,509.70
43.52379,481.94,511.24
43.54322,485.14,511.06
43.56385,485.02,509.75
43.58480,486.62,507.68
43.60499,484.43,507.85
43.62290,485.71,510.35
43.64399,483.74,509.21
43.66485,485.19,509.02
43.68326,484.96,506.83
43.70387,486.03,508.56
43.72378,482.42,505.64
43.74330,484.22,507.68
43.76444,484.59,508.40
43.78351,481.34,511.58
43.80319,487.32,523.01
43.82373,493.95,534.84
43.84486,498.97,559.14
43.86349,507.44,583.60
43.88475,511.05,606.48
43.90394,513.91,622.45
43.92433,516.36,634.60
43.94471,517.54,636.05
43.96356,518.46,622.86
43.98403,514.36,598.89
44.00501,512.44,567.12
44.02476,511.66,529.69
44.04321,508.68,492.74
44.06423,508.30,457.19
44.08401,505.74,432.50
44.10489,503.54,412.22
44.12490,496.12,400.64
44.14399,493.18,397.61
44.16449,494.08,397.14
44.18434,490.58,402.69
44.20454,492.31,408.37
44.22510,493.55,417.39
44.24409,497.33,427.32
44.26497,496.91,433.68
44.28432,494.48,444.23
44.30545,494.52,452.54
44.32410,493.38,460.90
44.34419,494.14,467.48
44.36429,490.55,474.53
44.38578,490.65,480.83
44.40478,489.17,486.22
44.42603,491.78,489.84
44.44598,488.18,494.88
44.46442,490.01,496.65
44.48455,490.22,503.57
44.50446,483.52,505.95
44.52559,469.93,513.76
44.54597,455.15,524.62
44.56504,441.04,525.42
44.58552,436.54,527.71
44.60663,434.88,528.28
44.62693,433.34,526.06
44.64645,437.20,526.60
44.66589,442.60,522.52
44.68658,447.58,525.26
44.70601,453.46,525.73
44.72605,456.99,522.86
44.74657,461.62,521.43
44.76613,466.34,522.76
44.78666,470.39,520.23
44.80638,472.83,517.48
44.82669,476.09,519.29
44.84606,481.19,518.25
44.86556,479.43,515.79
44.88531,483.61,512.57
44.90594,485.30,512.04
44.92673,484.56,509.58
44.94537,479.05,504.83
44.96604,473.96,499.68
44.98625,472.24,495.31
45.00589,472.83,494.35
45.02636,469.56,496.28
45.04719,472.07,496.24
45.06573,472.13,498.31
45.08577,477.57,500.33
45.10663,479.33,501.93
45.12677,479.89,500.62
45.14678,479.72,505.58
45.16539,481.27,504.78
45.18529,483.43,506.05
45.20538,484.14,504.11
45.22700,485.35,504.57
45.24570,483.31,506.01
45.26537,484.32,505.47
45.28675,485.11,503.72
45.30609,486.91,503.22
45.32574,488.05,502.81
45.34570,489.72,502.82
45.36709,491.34,502.41
45.38589,491.16,502.49
45.40762,491.03,507.73
45.42780,496.24,522.40
45.44646,513.42,556.32
45.46703,537.98,597.13
45.48790,560.32,630.76
45.50808,583.85,650.72
45.52667,598.79,658.27
45.54723,611.59,652.33
45.56671,615.41,636.85
45.58689,615.52,617.52
45.60691,612.30,594.66
45.62657,611.72,573.65
45.64689,605.79,549.37
45.66629,602.23,528.64
45.68659,592.31,515.68
45.70632,578.31,504.26
45.72690,564.20,493.28
45.74719,548.02,486.90
45.76753,534.01,488.00
45.78671,519.54,483.24
45.80652,508.65,484.57
45.82771,498.28,483.97
45.84632,492.78,482.87
45.86764,484.81,481.71
45.88720,481.48,482.80
45.90670,484.63,481.75
45.92752,482.48,485.39
45.94689,485.54,486.47
