Program Time [s],data 0,data 1
136.53255,501.06,526.64
136.55196,502.79,522.28
136.57181,503.19,525.14
136.59184,504.16,524.36
136.61296,504.19,523.61
136.63188,502.22,524.55
136.65283,505.80,535.62
136.67201,507.55,560.94
136.69281,511.58,590.38
136.71313,511.94,619.08
136.73350,513.23,636.34
136.75308,515.85,648.27
136.77301,514.11,653.21
136.79221,515.42,656.56
136.81257,511.39,651.18
136.83398,510.45,646.48
136.85255,511.84,636.95
136.87394,511.74,631.21
136.89327,510.27,619.58
136.91348,509.60,605.76
136.93374,507.01,598.21
136.95289,508.55,589.45
136.97359,505.98,583.09
136.99306,505.16,578.83
137.01380,505.45,573.01
137.03201,508.25,568.57
137.05310,508.35,561.58
137.07211,503.43,556.04
137.09202,504.98,551.46
137.11317,502.91,548.41
137.13201,503.25,543.72
137.15299,506.75,544.69
137.17248,506.89,543.65
137.19237,509.21,545.47
137.21302,508.34,543.90
137.23347,509.22,540.21
137.25271,509.59,539.42
137.27267,510.72,538.34
137.29287,510.31,538.19
137.31267,507.87,534.62
137.33233,508.01,535.93
137.35390,512.47,532.20
137.37347,510.09,531.50
137.39221,508.85,531.24
137.41315,509.59,526.64
137.43354,511.03,529.78
137.45228,507.93,532.24
137.47315,509.72,534.55
137.49366,509.03,532.63
137.51373,506.36,535.11
137.53255,507.52,531.75
137.55207,507.84,531.44
137.57351,507.63,532.01
137.59316,505.08,531.71
137.61398,507.91,529.84
137.63291,505.90,529.91
137.65260,509.13,527.64
137.67366,507.66,527.47
137.69244,508.14,527.18
137.71323,507.10,531.74
137.73235,510.01,538.73
137.75288,513.10,549.64
137.77324,515.49,555.03
137.79289,520.54,543.08
137.81234,517.61,520.83
137.83290,513.29,487.28
137.85285,507.34,461.60
137.87266,505.20,437.23
137.89218,499.09,419.59
137.91301,498.92,412.48
137.93218,499.17,407.07
137.95317,499.53,407.63
137.97204,493.88,413.95
137.99301,494.67,419.23
138.01295,496.73,425.66
138.03359,498.20,436.89
138.05283,501.83,449.16
138.07225,503.40,459.69
138.09443,505.52,466.90
138.11396,507.35,474.46
138.13438,507.26,483.57
138.15487,509.57,487.39
138.17483,505.95,492.77
138.19495,506.01,495.99
138.21347,508.00,499.06
138.23451,507.93,501.35
138.25491,508.26,506.81
138.27497,511.31,510.03
138.29395,509.30,515.25
138.31335,508.74,514.75
138.33331,512.06,518.31
138.35393,514.84,520.68
138.37433,514.16,524.48
138.39484,513.33,523.43
138.41434,514.75,525.71
138.43454,514.71,526.28
138.45549,514.17,525.99
138.47568,511.97,528.09
138.49579,514.72,529.77
138.51508,513.69,532.22
138.53506,513.57,536.03
138.55531,513.22,536.05
138.57513,512.54,534.77
138.59530,512.50,536.55
138.61523,511.85,538.80
138.63459,514.50,540.80
138.65456,514.28,541.61
138.67406,517.52,540.62
138.69499,516.45,544.89
138.71530,515.67,544.49
138.73570,515.44,542.57
138.75486,516.23,541.75
138.77554,517.95,538.48
138.79580,517.52,537.99
138.81536,515.91,539.11
138.83508,517.49,536.40
138.85513,516.18,538.12
138.87430,515.13,537.81
138.89572,513.89,536.24
138.91603,514.19,533.84
138.93551,515.55,535.49
138.95512,516.52,536.82
138.97612,514.36,535.87
138.99532,514.42,534.49
139.01664,513.92,536.69
139.03675,515.05,538.65
139.05622,514.62,543.58
139.07713,513.58,543.99
139.09793,512.58,542.01
139.11650,513.03,544.80
139.13651,514.72,545.69
139.15693,516.14,543.11
139.17603,515.34,543.71
139.19710,515.63,543.51
139.21858,516.24,544.88
139.23868,513.27,543.97
139.25781,513.71,543.59
139.27838,515.30,542.00
139.29854,514.29,540.29
139.31897,513.56,537.81
139.33837,514.27,537.38
139.35861,514.45,536.38
139.37769,514.40,538.53
139.39719,511.65,537.60
139.41782,513.58,538.42
139.43841,513.54,536.83
139.45747,510.48,537.56
139.47820,510.71,536.84
139.49797,511.35,537.97
139.51809,513.72,532.96
139.53885,511.67,535.86
139.55838,511.96,536.11
139.57704,514.28,535.42
139.59770,511.49,535.50
139.61721,513.18,535.50
139.63810,513.79,535.64
139.65860,514.18,539.65
139.67754,511.56,539.07
139.69739,513.41,540.37
139.71778,512.89,541.24
139.73778,513.39,539.57
139.75706,512.93,536.85
139.77885,511.65,536.90
139.79847,513.13,535.34
139.81951,512.09,536.66
139.83993,509.54,540.18
139.85819,507.08,539.19
139.87961,510.02,537.88
139.89943,508.96,537.16
139.91885,510.57,537.27
139.93889,510.98,537.85
139.95972,510.18,537.55
139.97872,509.11,536.12
139.99847,510.17,536.38
140.01968,510.07,539.36
140.03951,507.41,538.57
140.05850,507.62,540.38
140.07821,506.42,538.61
140.09969,506.45,537.04
140.11934,507.17,536.93
140.13981,505.41,538.19
140.15911,504.09,537.81
140.18005,503.15,537.99
140.19929,502.13,540.26
140.22048,501.17,536.99
140.24049,501.78,540.52
140.26057,502.83,539.37
140.28039,504.92,537.11
140.29931,502.89,539.97
140.32048,505.45,537.94
140.33975,503.29,538.91
140.35993,503.03,536.80
140.38099,504.06,537.20
140.40062,503.25,538.07
140.42011,503.50,538.05
140.43939,500.86,536.41
140.46083,503.10,538.24
140.47933,503.13,536.00
140.49982,503.46,544.96
140.52030,504.16,557.76
140.54012,505.28,581.37
140.56053,508.48,602.57
140.58130,506.00,619.41
140.60037,506.84,633.87
140.62180,508.83,644.03
140.64160,507.72,645.33
140.66172,506.89,642.49
140.68029,504.12,641.41
140.70103,503.04,628.80
140.72055,503.22,623.46
140.74143,499.72,612.50
140.76100,502.25,603.52
140.78146,502.75,598.08
140.80163,502.90,589.40
140.82174,499.98,582.06
140.84142,500.44,575.60
140.86182,499.70,574.62
140.88106,501.08,571.42
140.90136,498.91,567.37
140.92118,500.09,564.86
140.94117,500.41,564.40
140.96090,501.90,562.30
140.98132,499.00,558.69
141.00058,497.96,552.93
141.02077,498.27,550.21
141.04145,499.32,549.80
141.06175,497.54,547.79
141.08095,501.70,546.29
141.10003,500.76,545.50
141.12077,498.45,545.79
141.14126,496.83,537.60
141.16014,497.86,534.93
141.18085,498.30,536.45
141.20018,497.17,533.65
141.22166,497.67,536.41
141.24194,498.52,540.39
141.26036,494.96,542.24
141.28116,497.12,542.71
141.30019,496.38,543.46
141.32041,494.55,541.35
141.34084,493.82,542.00
141.36057,495.80,541.30
141.38187,493.63,538.76
141.40026,494.02,538.91
141.42183,495.09,535.87
141.44148,494.79,536.78
141.46183,491.81,536.76
141.48157,490.13,535.82
141.50172,490.42,537.37
141.52114,493.61,539.11
141.54177,494.20,541.82
141.56267,494.40,543.66
141.58210,495.71,538.39
141.60123,492.64,514.07
141.62274,492.05,476.74
141.64152,487.53,444.01
141.66134,486.35,415.26
141.68154,486.54,404.32
141.70247,481.83,401.11
141.72238,481.95,402.54
141.74167,481.22,410.03
141.76280,483.52,417.23
141.78257,481.55,428.80
141.80126,479.61,435.53
141.82148,482.73,448.78
141.84291,481.65,457.34
141.86208,483.37,465.20
141.88163,483.04,473.15
141.90267,484.32,483.78
141.92217,487.31,489.06
141.94207,487.63,491.07
141.96249,489.50,498.33
141.98261,491.49,502.91
142.00229,491.30,506.84
142.02215,491.10,513.17
142.04109,492.01,514.28
142.06211,492.09,515.79
142.08450,492.61,516.98
142.10307,492.87,515.91
142.12546,495.96,518.26
142.14443,495.64,521.08
142.16555,498.88,519.01
142.18417,497.83,522.86
142.20404,498.31,522.79
142.22588,495.97,522.78
142.24459,497.35,527.23
142.26590,497.14,527.24
142.28475,497.71,531.03
142.30400,494.75,530.38
142.32483,493.71,532.25
142.34465,493.94,530.51
142.36537,496.98,531.74
142.38532,496.81,530.98
142.40461,493.53,533.47
142.42425,494.09,530.83
142.44435,496.21,531.45
142.46575,493.92,531.03
142.48600,493.83,532.33
142.50581,493.89,529.00
142.52444,492.03,530.95
142.54587,492.98,530.77
142.56526,492.57,529.72
142.58503,492.74,531.55
142.60525,493.27,530.45
142.62561,496.08,530.59
142.64492,494.53,526.15
142.66532,495.17,525.83
142.68416,494.39,526.34
142.70401,494.98,526.37
142.72598,492.02,530.26
142.74401,492.53,526.54
142.76481,491.14,526.90
142.78513,492.93,526.03
142.80452,491.01,524.57
142.82477,490.75,524.54
142.84448,490.53,526.32
142.86433,493.24,528.00
142.88486,496.33,523.59
142.90524,493.77,527.79
142.92549,493.16,528.07
142.94410,492.44,528.24
142.96473,494.31,528.93
142.98454,492.54,527.56
143.00438,496.16,527.47
143.02495,496.41,524.70
143.04453,496.13,526.38
143.06543,495.68,527.71
143.08482,494.89,528.76
143.10516,494.30,531.03
143.12451,493.12,529.37
143.14419,496.25,528.55
143.16509,494.82,530.20
143.18575,496.13,530.44
143.20596,497.37,528.15
143.22545,494.28,527.04
143.24550,493.87,530.50
143.26467,497.69,528.71
143.28532,494.29,528.88
143.30545,493.39,528.88
143.32413,494.19,527.08
143.34416,494.92,529.01
143.36574,494.41,532.11
143.38458,493.56,529.78
143.40558,494.74,533.70
143.42415,495.14,530.41
143.44491,496.63,530.97
143.46448,493.20,529.54
143.48478,496.40,530.73
143.50403,494.97,531.84
143.52642,497.10,532.37
143.54666,496.97,531.85
143.56628,496.99,530.13
143.58521,499.44,532.02
143.60598,496.83,528.94
143.62696,499.74,530.89
143.64695,501.38,531.09
143.66674,501.42,531.02
143.68606,497.48,533.29
143.70509,500.24,531.26
143.72546,500.25,530.83
143.74665,499.33,533.05
143.76670,502.02,530.79
143.78516,501.70,531.71
143.80669,501.91,530.23
143.82613,499.26,533.97
143.84637,501.01,533.73
143.86567,500.33,533.73
143.88553,498.69,531.13
143.90635,499.62,531.21
143.92595,502.22,532.81
143.94575,501.59,529.54
143.96625,502.80,530.24
143.98599,501.07,531.39
144.00582,500.02,533.44
144.02790,500.14,530.02
144.04613,501.04,532.51
144.06646,502.95,529.73
144.08774,505.54,533.17
144.10630,504.63,534.68
144.12638,505.62,534.70
144.14654,503.38,531.44
144.16623,504.79,534.26
144.18750,502.44,533.03
144.20642,504.17,532.95
144.22706,502.97,531.94
144.24725,504.14,531.86
144.26699,502.00,530.74
144.28712,505.48,533.52
144.30712,502.51,532.57
144.32676,505.16,534.50
144.34608,505.30,551.55
144.36729,507.77,573.98
144.38780,510.51,597.21
144.40602,509.20,618.45
144.42664,507.84,630.78
144.44610,507.36,640.17
144.46686,508.40,639.63
144.48797,505.42,636.71
144.50652,507.15,630.99
144.52786,505.77,625.53
144.54812,506.72,621.75
144.56755,508.98,612.27
144.58775,514.11,606.49
144.60824,514.55,600.94
144.62776,513.73,592.70
144.64874,513.17,586.58
144.66732,513.96,582.35
144.68854,513.63,570.92
144.70873,513.29,570.01
144.72888,516.08,566.25
144.74854,515.20,564.56
144.76707,517.99,560.23
144.78820,514.76,556.65
144.80866,513.34,551.53
144.82778,514.13,549.77
144.84705,517.77,549.87
144.86866,515.48,548.30
144.88713,516.38,548.23
144.90881,514.04,546.46
144.92870,513.56,542.68
144.94856,512.72,545.22
144.96763,511.61,542.22
144.98738,513.07,538.78
145.00841,511.83,536.22
145.02896,513.17,537.79
145.04900,512.76,537.83
145.06842,512.56,539.37
145.08877,513.64,542.65
145.10893,511.78,539.70
145.12727,512.15,541.51
145.14859,513.05,543.57
145.16849,511.76,538.47
145.18807,511.74,539.30
145.20803,510.61,541.74
145.22881,512.53,540.20
145.24751,509.28,544.76
145.26725,514.22,543.82
145.28734,512.30,539.73
145.30721,515.99,518.18
145.32801,514.80,487.99
145.34862,510.89,456.84
145.36937,508.02,431.02
145.38908,508.23,419.94
145.40827,509.35,409.64
145.42901,507.61,411.07
145.44961,509.01,415.67
145.46892,509.60,420.88
145.48877,509.38,428.25
145.50976,510.78,435.93
145.53044,510.24,446.49
145.55053,511.26,455.65
145.57023,510.12,465.38
145.58931,511.02,470.59
145.61089,513.50,477.57
145.63096,510.05,486.35
145.64971,512.90,492.49
145.66976,512.99,499.40
145.68982,511.00,502.73
145.70955,514.74,509.92
145.73020,516.03,513.33
145.75025,515.31,518.05
145.77156,515.74,520.75
145.79128,512.85,522.43
145.81059,512.39,526.83
145.83105,514.25,526.14
145.85061,512.12,526.99
145.87130,515.85,526.33
145.89060,514.08,528.62
145.91126,515.99,528.52
145.93112,516.40,528.84
145.95087,513.82,529.41
145.97154,518.21,530.81
145.99058,515.70,532.06
146.01026,517.44,530.84
146.03043,519.32,533.46
146.05003,517.19,531.84
146.07165,520.48,533.28
146.09111,517.43,529.64
146.11151,516.27,530.48
146.13058,514.89,529.89
146.15086,516.18,533.06
146.17142,514.10,534.65
146.19088,514.06,534.52
146.21155,516.23,533.53
146.23066,514.20,535.43
146.25044,512.17,534.17
146.27013,512.60,534.27
146.29137,514.76,535.51
146.31035,516.49,534.05
146.33178,516.96,534.92
146.35174,516.41,536.47
146.37010,511.84,535.28
146.39186,512.63,534.33
146.41107,513.42,536.04
146.43143,514.51,533.83
146.45144,510.42,533.16
146.47058,512.73,533.66
146.49111,511.76,535.58
146.51055,511.66,534.51
146.53181,509.49,536.06
146.55116,510.57,530.98
146.57009,512.87,533.61
146.59055,515.29,534.68
146.61162,515.92,535.98
146.63174,517.70,535.02
146.65074,519.36,536.55
146.67036,515.67,537.38
146.69058,515.01,537.78
146.71138,512.96,537.14
146.73027,515.07,539.91
146.75052,512.87,540.01
146.77113,512.41,539.58
146.79190,511.88,537.28
146.81080,512.57,538.17
146.83065,513.37,539.63
146.85102,512.36,539.35
146.87144,511.33,539.52
146.89151,513.17,540.24
146.91029,511.41,538.94
146.93088,511.58,537.71
146.95004,515.00,537.11
146.97174,512.36,537.84
146.99013,509.93,540.59
147.01081,511.86,540.94
147.03114,508.35,540.96
147.05184,507.45,544.09
147.07137,510.23,551.33
147.09245,509.89,557.48
147.11297,508.35,557.72
147.13118,508.86,559.13
147.15250,506.19,554.71
147.17222,506.54,554.65
147.19284,507.87,555.09
147.21122,508.20,560.98
147.23281,510.64,580.66
147.25105,513.82,610.12
147.27217,519.70,644.05
147.29175,528.75,675.74
147.31136,531.21,692.28
147.33137,532.38,692.10
147.35131,527.68,673.56
147.37226,524.28,643.55
147.39276,516.93,609.08
147.41309,507.75,570.60
147.43379,503.79,538.67
147.45315,501.96,512.82
147.47205,501.05,494.05
147.49280,497.32,479.41
147.51219,499.17,469.37
147.53280,496.65,467.59
147.55274,497.40,463.59
147.57234,497.89,464.92
147.59280,495.89,466.98
147.61288,498.96,472.05
147.63334,498.08,475.40
147.65382,499.00,480.39
147.67370,498.06,485.50
147.69358,500.99,492.46
147.71292,502.71,497.86
147.73223,500.27,500.79
147.75335,503.33,503.44
147.77315,502.26,510.75
147.79312,500.06,513.05
147.81373,502.25,518.00
147.83260,502.56,520.62
147.85244,501.05,523.49
147.87229,502.54,521.89
147.89248,503.15,525.52
147.91225,505.31,528.01
147.93399,502.25,527.87
147.95237,504.76,530.10
147.97216,504.27,532.25
147.99329,505.16,530.61
148.01299,507.28,531.47
148.03203,506.01,535.92
148.05285,503.95,533.70
148.07317,504.54,536.93
148.09211,502.63,534.77
148.11248,505.45,536.07
148.13296,502.62,534.33
148.15253,506.01,534.17
148.17335,504.49,534.82
148.19369,503.83,532.76
148.21297,505.80,533.46
148.23235,504.85,533.02
148.25381,504.05,531.38
148.27216,502.95,532.52
148.29391,503.14,532.98
148.31329,505.26,534.19
148.33297,505.14,534.97
148.35269,506.09,535.04
148.37353,505.54,537.17
148.39340,504.10,535.02
148.41337,504.09,544.01
148.43269,509.82,562.99
148.45217,510.34,589.56
148.47372,509.23,612.19
148.49361,510.50,632.79
148.51310,512.75,644.10
148.53380,512.87,653.65
148.55252,510.15,647.38
148.57287,508.78,643.83
148.59248,509.67,640.43
148.61269,506.69,630.98
148.63390,506.33,623.74
148.65366,508.35,613.00
148.67283,507.97,603.83
148.69327,505.37,598.25
148.71398,506.21,592.24
148.73327,508.02,587.45
148.75210,505.08,580.59
148.77334,501.38,577.24
148.79283,503.61,573.29
148.81288,501.27,567.97
148.83220,503.23,563.46
148.85283,499.97,557.59
148.87388,503.17,556.66
148.89317,500.54,551.32
148.91275,501.73,553.27
148.93328,504.01,554.32
148.95383,499.97,550.78
148.97314,500.98,548.63
148.99298,504.45,547.51
149.01208,501.01,541.11
149.03426,501.06,545.25
149.05535,502.63,541.81
149.07557,499.44,540.58
149.09682,499.81,541.98
149.11674,497.27,540.72
149.13602,498.19,538.81
149.15734,496.35,539.08
149.17656,496.29,536.96
149.19626,496.01,535.35
149.21701,495.68,538.16
149.23657,496.29,537.72
149.25716,495.75,537.67
149.27683,493.27,531.91
149.29748,489.79,518.86
149.31763,489.38,498.52
149.33777,488.65,473.94
149.35741,488.75,455.59
149.37846,485.48,441.46
149.39746,485.81,430.75
149.41724,486.23,425.78
149.43886,486.65,424.62
149.45722,485.39,430.92
149.47839,488.75,441.68
149.49877,487.98,460.10
149.51848,492.92,504.85
149.54065,496.28,553.15
149.55938,497.56,593.10
149.58062,499.74,601.82
149.59953,492.86,600.55
149.62066,491.97,588.52
149.63940,486.11,571.01
149.66120,486.88,549.13
149.68049,484.77,532.04
149.70099,488.31,513.82
149.72135,484.34,499.51
149.74046,484.11,492.33
149.76004,484.15,487.07
149.78192,487.44,486.50
149.80103,485.94,483.76
149.82180,486.62,485.17
149.84094,487.60,487.61
149.86132,490.25,489.81
149.88119,490.38,494.59
149.90024,491.69,494.19
149.92013,493.54,495.53
149.94041,496.75,502.59
149.96038,500.16,509.92
149.98199,505.55,513.77
150.00054,505.25,518.64
150.02103,508.84,519.45
150.04157,508.89,522.13
150.06071,507.37,522.75
150.08158,510.99,524.24
150.10292,511.49,524.50
150.12299,508.99,528.50
150.14109,511.06,530.25
150.16148,509.59,531.22
150.18217,509.20,528.77
150.20183,507.18,527.86
150.22317,510.32,529.04
150.24298,509.36,533.20
150.26214,507.79,534.20
150.28394,510.06,535.31
150.30269,506.56,537.24
150.32347,505.75,534.24
150.34301,509.31,537.42
150.36301,507.66,535.76
150.38227,507.02,538.35
150.40205,510.98,536.76
150.42232,509.01,538.33
150.44321,506.77,535.71
150.46281,509.50,535.80
150.48297,508.08,536.85
150.50389,510.79,536.36
150.52238,509.20,535.66
150.54361,512.30,533.80
150.56215,509.37,537.94
150.58395,510.16,537.29
150.60387,509.85,536.71
150.62205,510.78,536.69
150.64263,508.34,536.29
150.66244,509.85,538.17
150.68285,508.92,537.53
150.70337,509.68,535.76
150.72221,506.42,535.40
150.74278,508.34,533.55
150.76282,508.49,534.97
150.78376,509.39,533.81
150.80220,507.42,534.29
150.82356,507.76,533.53
150.84207,506.81,533.23
150.86388,512.50,532.11
150.88389,509.92,532.10
150.90238,509.37,532.22
150.92203,512.73,533.92
150.94269,509.63,534.95
150.96377,510.07,533.43
150.98228,509.25,533.83
151.00338,511.67,535.14
151.02263,513.93,535.67
151.04263,510.67,538.49
151.06225,510.07,537.06
151.08304,509.37,538.89
151.10326,508.94,539.44
151.12423,512.89,537.22
151.14434,511.43,537.19
151.16414,513.46,535.90
151.18381,514.25,535.69
151.20334,513.06,537.55
151.22351,513.30,536.57
151.24430,511.89,537.90
151.26480,511.99,535.33
151.28422,513.59,536.76
151.30529,513.40,537.91
151.32509,512.97,536.06
151.34600,513.53,537.11
151.36454,512.07,539.83
151.38515,511.06,540.25
151.40588,512.59,537.22
151.42433,514.87,539.51
151.44419,511.72,538.93
151.46496,514.84,539.84
151.48587,515.06,537.48
151.50530,512.33,539.83
151.52403,513.78,539.17
151.54537,516.47,540.06
151.56506,513.88,543.88
151.58594,515.93,543.18
151.60436,514.34,542.93
151.62467,516.01,542.58
151.64469,514.38,540.34
151.66482,513.82,540.86
151.68406,514.57,542.74
151.70458,516.01,538.24
151.72477,515.14,539.33
151.74474,514.85,540.49
151.76403,515.86,539.88
151.78402,516.58,537.02
151.80402,516.91,539.17
151.82502,515.69,540.74
151.84464,514.08,541.54
151.86450,515.54,539.06
151.88457,514.93,543.31
151.90414,516.75,542.13
151.92466,515.55,551.30
151.94580,518.63,574.73
151.96444,519.35,601.60
151.98580,518.13,627.59
152.00466,519.78,646.30
152.02516,520.50,656.09
152.04468,521.52,655.24
152.06433,524.82,653.60
152.08600,523.81,649.88
152.10483,520.16,643.79
152.12506,519.77,631.03
152.14659,520.32,618.51
152.16616,517.59,611.20
152.18556,518.99,605.45
152.20628,514.43,592.19
152.22543,515.50,585.82
152.24651,516.10,583.35
152.26551,514.26,574.65
152.28630,514.41,569.45
152.30569,512.26,567.65
152.32690,510.94,561.02
152.34629,511.61,556.90
152.36528,510.99,554.87
152.38632,511.32,552.42
152.40635,511.13,551.06
152.42622,513.79,547.41
152.44630,511.75,547.18
152.46676,511.37,544.60
152.48656,510.50,538.22
152.50531,510.59,538.38
152.52670,511.45,539.58
152.54510,511.69,541.92
152.56699,514.31,538.87
152.58631,511.99,540.02
152.60559,513.06,540.93
152.62553,510.92,539.43
152.64539,513.66,540.48
152.66656,511.05,542.51
152.68502,512.33,540.26
152.70664,513.92,541.81
152.72638,511.10,540.29
152.74621,515.07,549.09
152.76676,514.74,553.33
152.78697,513.28,533.09
152.80673,509.62,504.85
152.82601,509.57,471.95
152.84729,504.72,453.18
152.86660,505.37,442.15
152.88651,507.10,441.61
152.90698,504.84,441.06
152.92678,508.30,452.26
152.94632,507.45,459.71
152.96764,506.40,469.29
152.98718,507.58,476.64
153.00613,507.21,485.98
153.02626,506.86,490.32
153.04749,505.55,497.03
153.06617,507.53,499.98
153.08740,506.70,504.48
153.10634,505.79,507.77
153.12789,506.63,509.22
153.14755,508.87,510.17
153.16618,509.10,516.11
153.18646,509.83,516.89
153.20797,512.84,515.60
153.22631,514.15,518.78
153.24781,514.07,521.68
153.26742,511.87,524.27
153.28610,509.81,525.93
153.30734,509.76,525.88
153.32747,511.14,525.19
153.34781,512.63,524.65
153.36651,511.40,526.06
153.38681,511.31,527.24
153.40681,513.80,529.01
153.42635,511.23,530.03
153.44760,513.10,531.24
153.46613,510.61,532.74
153.48700,510.85,531.96
153.50754,510.61,531.01
153.52672,513.40,535.62
153.54620,512.73,533.68
153.56785,513.80,532.58
153.58695,510.84,535.07
153.60776,509.85,536.36
153.62606,509.96,536.48
153.64748,512.45,536.30
153.66696,510.19,536.18
153.68773,511.21,538.22
153.70780,510.05,537.48
153.72611,513.89,538.41
153.74618,511.20,537.39
153.76732,513.81,537.04
153.78718,512.38,539.15
153.80756,513.16,536.67
153.82712,514.53,537.73
153.84643,513.95,539.77
153.86774,511.75,537.41
153.88719,511.30,538.76
153.90743,513.98,539.13
153.92623,510.17,539.21
153.94670,512.81,540.57
153.96742,512.22,540.96
153.98717,513.30,543.11
154.00669,513.36,542.32
154.02719,515.89,540.81
154.04792,514.75,541.41
154.06669,515.58,541.13
154.08766,514.63,538.12
154.10728,512.39,538.89
154.12742,511.68,535.94
154.14723,513.10,538.52
154.16661,510.70,540.30
154.18789,512.75,540.85
154.20756,512.32,539.35
154.22768,513.12,538.21
154.24630,510.92,540.18
154.26728,510.83,538.95
154.28603,511.68,538.83
154.30668,512.21,540.53
154.32760,510.51,540.96
154.34715,510.45,537.80
154.36734,510.90,541.42
154.38726,508.34,541.68
154.40735,509.53,538.53
154.42629,508.58,537.62
154.44864,506.12,537.26
154.46737,507.15,537.62
154.48727,509.45,535.29
154.50859,507.34,536.65
154.52893,508.32,538.97
154.54782,507.80,536.86
154.56888,503.71,538.06
154.58782,505.91,534.99
154.60818,507.08,537.05
154.62836,504.09,535.72
154.64701,505.36,540.13
154.66813,506.81,536.09
154.68723,503.93,535.59
154.70882,505.86,536.78
154.72893,504.64,536.03
154.74811,507.12,537.29
154.76890,504.42,537.91
154.78710,503.25,539.66
154.80754,505.14,540.24
154.82890,503.48,540.42
154.84823,504.90,539.35
154.86765,505.08,542.06
154.88791,502.09,541.03
154.90739,505.00,542.65
154.92802,503.45,540.22
154.94824,506.38,540.99
154.96740,503.44,539.48
154.98816,504.24,538.43
155.00720,507.10,540.55
155.02825,504.27,537.39
155.04793,504.19,538.08
155.06824,505.22,536.86
155.08854,504.21,538.53
155.10865,502.15,538.56
155.12832,502.66,537.00
155.14737,503.13,538.62
155.16820,505.95,537.81
155.18732,504.26,539.92
155.20898,504.42,538.74
155.22880,507.48,537.03
155.24837,505.12,540.81
155.26700,503.83,541.48
155.28890,507.80,537.54
155.30709,505.38,537.73
155.32888,504.38,538.39
155.34747,506.77,539.88
155.36817,504.28,540.82
155.38863,506.02,539.11
155.40802,504.63,541.14
155.42846,505.79,541.78
155.44834,505.25,540.67
155.46702,505.45,540.27
155.48701,504.45,535.90
155.50749,506.34,533.28
155.52854,503.05,533.27
155.54761,502.70,532.33
155.56816,505.55,531.42
155.58895,504.32,531.30
155.60896,505.25,534.56
155.62891,502.31,536.33
155.64832,503.91,548.59
155.66780,506.87,569.58
155.68740,504.77,590.93
155.70766,508.22,609.62
155.72799,505.74,624.69
155.74712,507.72,629.27
155.76889,506.60,633.54
155.78726,505.42,627.43
155.80722,508.27,625.19
155.82776,506.70,615.36
155.84826,507.35,607.99
155.86795,506.19,604.28
155.88877,506.37,598.13
155.90724,506.85,590.57
155.92809,503.33,583.68
155.94854,504.47,578.72
155.96873,504.08,573.94
155.98776,503.46,571.20
156.00813,504.61,569.42
156.02838,503.61,565.82
156.04847,503.20,562.77
156.06811,503.46,561.63
156.08827,500.76,556.89
156.10864,502.08,556.10
156.12764,502.37,554.57
156.14846,500.03,549.12
156.16819,503.58,550.67
156.18779,501.89,546.56
156.20814,505.32,544.03
156.22809,501.76,542.28
156.24768,503.31,541.80
156.26706,504.06,541.14
156.28846,499.77,543.04
156.30783,501.60,543.69
156.32778,500.87,541.55
156.34811,501.69,541.32
156.36804,498.27,539.39
156.38892,497.98,537.89
156.40754,499.14,538.66
156.42848,500.68,540.68
156.44770,499.22,538.35
156.46767,501.10,540.16
156.48718,498.90,543.97
156.50885,499.14,547.83
156.52846,500.33,542.71
156.54824,495.72,519.25
156.56899,495.09,489.62
156.58845,490.18,464.02
156.60730,488.26,449.59
156.62731,488.20,441.60
156.64877,487.10,439.45
156.66776,487.69,440.84
156.68801,487.67,448.28
156.70774,490.16,453.61
156.72780,491.80,458.20
156.74725,490.34,465.44
156.76867,494.84,473.77
156.78868,496.15,479.49
156.80837,494.75,483.42
156.82869,497.47,487.27
156.84760,498.20,495.47
156.86800,500.39,499.17
156.88764,500.16,503.39
156.90856,499.90,510.86
156.92731,503.05,511.41
156.94785,499.00,516.31
156.96736,500.92,517.90
156.98766,499.96,521.77
157.00852,499.88,524.03
157.02728,501.67,523.94
157.04775,500.56,525.22
157.06811,500.57,530.06
157.08726,501.76,530.08
157.10713,499.97,528.84
157.12810,504.04,528.94
157.14712,503.39,529.72
157.16867,501.53,530.80
157.18731,501.19,530.44
157.20728,500.94,533.88
157.22855,501.28,533.20
157.24824,501.37,533.09
157.26703,501.55,535.49
157.28784,499.86,534.20
157.30707,496.87,535.87
157.32712,495.94,535.35
157.34892,497.34,533.07
157.36733,495.31,532.42
157.38864,494.53,534.89
157.40716,497.55,531.56
157.42850,496.68,533.02
157.44710,497.10,533.28
157.46772,496.23,536.68
157.48725,497.21,536.91
157.50762,498.80,535.59
157.52845,494.08,537.57
157.54889,496.93,538.22
157.56799,496.13,536.81
157.58708,495.98,537.36
157.60859,497.11,538.91
157.62712,497.73,538.76
157.64735,497.49,536.93
157.66790,497.72,536.15
157.68733,497.30,539.22
157.70788,497.75,536.22
157.72895,498.42,540.40
157.74862,495.01,539.80
157.76897,496.78,538.67
157.78871,493.24,536.68
157.80796,497.11,535.56
157.82759,495.65,537.31
157.84820,496.17,538.19
157.86852,494.35,536.57
157.88814,496.11,534.79
157.90774,495.04,536.45
157.92856,495.25,537.73
157.94838,496.83,536.04
157.96714,495.45,535.60
157.98859,493.60,536.45
158.00718,496.80,537.84
158.02702,495.91,535.82
158.04864,496.99,538.89
158.06775,496.17,536.53
158.08834,494.93,534.47
158.10871,494.04,536.33
158.12731,495.49,534.87
158.14783,495.46,533.92
158.16885,496.29,535.63
158.18780,493.41,535.27
158.20896,492.43,532.13
158.22820,494.44,535.58
158.24855,493.99,534.20
158.26713,492.07,533.59
158.28802,493.74,534.76
158.30814,492.42,534.31
158.32896,490.41,535.69
158.34840,492.42,533.49
158.36775,493.26,531.60
158.38777,494.10,532.07
158.40764,495.59,531.49
158.42875,492.95,531.78
158.44733,493.85,528.96
158.46782,492.95,530.39
158.48850,493.81,529.32
158.50803,491.98,529.50
158.52820,491.51,532.75
158.54805,494.33,530.40
158.56730,492.91,532.46
158.58896,494.89,532.60
158.60723,493.08,532.21
158.62718,492.77,531.36
158.64852,494.09,533.59
158.66781,495.02,532.74
158.68737,492.45,533.72
158.70701,494.31,532.46
158.72792,491.40,534.01
158.74895,493.86,533.61
158.76844,490.71,535.36
158.78856,490.71,532.95
158.80775,490.03,535.29
158.82796,491.96,534.65
158.84828,494.06,534.25
158.86739,493.63,535.98
158.88721,493.53,535.42
158.90712,494.86,536.14
158.92885,492.26,532.71
158.94731,492.25,533.26
158.96740,492.23,533.47
158.98888,492.43,535.12
159.00807,490.77,537.00
159.02743,492.38,533.13
159.04820,490.40,534.20
159.06762,492.03,531.38
159.08820,492.14,531.82
159.10751,492.67,529.92
159.12849,493.15,533.28
159.14791,489.03,541.51
159.16758,491.55,562.23
159.18872,493.78,579.91
159.20791,491.66,600.26
159.22853,494.71,610.18
159.24895,491.28,619.57
159.26888,489.65,619.20
159.28758,489.97,621.14
159.30762,491.57,628.49
159.32782,491.41,632.54
159.34861,491.93,631.03
159.36876,493.69,627.89
159.38718,493.39,620.29
159.40734,493.39,615.39
159.42819,494.67,607.91
159.44833,495.92,602.23
159.46878,496.00,598.54
159.48769,494.10,594.56
159.50770,494.26,584.98
159.52826,493.29,578.02
159.54734,495.17,571.32
159.56800,492.70,565.21
159.58731,493.84,565.61
159.60864,493.62,558.95
159.62866,496.92,556.07
159.64778,494.80,552.57
159.66842,498.03,550.28
159.68827,497.31,550.53
159.70732,495.64,546.08
159.72757,494.92,546.76
159.74723,494.40,538.82
159.76737,496.65,536.58
159.78810,494.49,539.79
159.80851,493.30,535.87
159.82906,492.81,539.61
159.84830,492.80,534.47
159.86896,490.09,534.67
159.88996,490.68,534.60
159.90848,489.34,535.09
159.92869,491.73,535.50
159.94883,490.65,532.85
159.97087,489.89,531.31
159.98948,489.70,532.86
160.00973,489.40,537.94
160.02963,489.79,529.32
160.05076,489.19,515.60
160.06962,486.60,487.33
160.08988,489.25,458.19
160.10903,488.15,438.05
160.12955,489.20,427.22
160.14915,488.39,424.34
160.16956,487.75,426.34
160.18984,489.33,428.13
160.20936,490.45,434.23
160.22952,486.77,440.26
160.24992,488.32,447.38
160.26927,486.89,455.58
160.28977,487.58,461.74
160.31048,488.52,471.39
160.33031,487.54,477.89
160.34986,484.80,481.20
160.37040,487.62,488.31
160.38921,486.79,491.57
160.40958,487.14,498.04
160.43036,487.58,500.72
160.44906,485.65,504.02
160.47050,488.05,505.36
160.48938,488.57,507.22
160.51094,491.86,510.55
160.52998,489.17,513.04
160.54974,486.08,516.17
160.56948,486.31,514.51
160.58973,488.34,516.05
160.60907,490.27,517.23
160.62905,490.22,518.07
160.64960,488.67,521.74
160.66997,488.96,522.80
160.68964,490.09,524.89
160.70994,487.58,524.83
160.72905,492.08,523.41
160.74996,491.65,526.17
160.77054,493.24,524.87
160.78944,491.80,525.33
160.80904,490.64,527.33
160.83087,492.61,527.29
160.84948,490.26,528.38
160.86962,491.38,528.90
160.88933,491.10,527.88
160.91039,491.95,529.24
160.92972,492.69,529.79
160.94992,489.83,528.99
160.97014,491.30,528.83
160.99060,489.53,527.36
161.01063,489.05,528.26
161.02925,489.67,529.64
161.04967,490.66,530.55
161.06930,489.28,528.02
161.09079,492.95,529.08
161.11056,491.47,528.43
161.12970,488.92,527.33
161.15086,491.73,528.75
161.17051,489.68,527.43
161.18935,491.02,526.80
161.21036,493.26,528.96
161.22944,488.77,528.10
161.24936,491.49,528.70
161.27039,488.56,528.60
161.28923,489.84,531.38
161.30928,489.47,531.19
161.32928,490.83,529.95
161.34938,489.40,529.69
161.37012,488.81,526.63
161.38996,492.26,527.58
161.40948,491.75,529.72
161.43087,490.81,525.07
161.45069,488.03,525.52
161.46933,488.55,527.46
161.48927,492.31,526.48
161.50937,491.57,526.98
161.52938,491.86,526.46
161.54905,494.59,530.08
161.57056,492.32,529.95
161.58913,492.04,528.71
161.60975,492.34,530.74
161.63027,493.26,530.30
161.65010,492.84,529.61
161.66928,495.79,528.40
161.69012,493.85,528.22
161.70941,494.14,528.56
161.72925,495.29,528.97
161.75093,496.06,529.03
161.77091,491.94,527.83
161.79009,495.88,529.66
161.81061,492.40,529.20
161.83005,495.08,529.11
161.84930,495.06,530.43
161.86933,492.33,529.45
161.88975,495.47,529.61
161.90953,493.91,531.37
161.92925,494.15,530.06
161.94915,491.05,531.56
161.97055,493.96,529.40
161.99088,493.31,532.03
162.01076,493.24,528.90
162.03018,492.92,531.87
162.04955,497.11,530.50
162.07095,493.88,531.34
162.09098,494.65,529.29
162.10953,494.15,531.99
162.12984,496.84,529.66
162.14987,492.88,531.72
162.17039,493.79,530.08
162.19050,496.22,529.80
162.21067,494.05,530.79
162.23038,495.94,527.70
162.24967,497.38,529.99
162.26947,494.73,531.27
162.29030,494.31,531.34
162.30938,494.27,527.88
162.32974,497.33,527.74
162.35084,496.39,530.75
162.36909,494.07,529.37
162.38922,493.03,527.36
162.41075,495.13,528.39
162.43044,495.51,529.38
162.44953,493.93,529.32
162.46994,493.91,529.76
162.49045,494.82,527.68
162.50999,493.13,527.80
162.53009,492.81,526.52
162.54981,492.23,529.86
162.56963,494.59,530.04
162.59012,493.72,527.13
162.60914,493.80,529.27
162.63000,493.45,528.26
162.65054,492.67,526.23
162.67143,495.78,527.28
162.69148,495.96,528.34
162.71033,495.82,528.40
162.73153,493.39,529.57
162.75070,498.31,530.09
162.77007,499.57,529.63
162.79122,497.71,528.37
162.81047,496.63,529.37
162.83165,500.30,527.96
162.85156,499.50,528.07
162.87016,500.16,528.32
162.89102,500.56,527.30
162.91064,502.92,528.15
162.93101,500.78,526.30
162.95006,501.84,529.06
162.97134,500.04,529.98
162.99062,500.25,529.62
163.01198,499.85,530.16
163.03140,500.03,529.31
163.05106,504.14,529.66
163.07106,501.03,527.66
163.09109,503.92,538.56
163.11064,503.27,563.62
163.13148,504.47,593.72
163.15173,507.62,613.86
163.17076,508.29,627.91
163.19069,510.82,635.13
163.21188,510.17,634.56
163.23078,512.00,630.27
163.25176,509.38,626.39
163.27167,507.31,620.59
163.29137,506.43,610.34
163.31169,505.84,603.05
163.33095,501.61,591.39
163.35124,502.62,586.59
163.37053,504.72,580.89
163.39078,504.46,575.17
163.41117,502.37,571.29
163.43109,504.35,563.13
163.45014,502.11,562.32
163.47118,503.80,557.01
163.49192,503.30,555.74
163.51043,501.86,552.93
163.53035,500.47,548.87
163.55037,500.54,548.06
163.57075,503.06,547.93
163.59083,501.89,547.20
163.61093,502.90,546.42
163.63144,502.97,542.61
163.65165,502.91,543.50
163.67030,501.66,542.28
163.69197,503.76,543.11
163.71050,504.86,543.23
163.73173,503.70,543.20
163.75008,507.46,538.78
163.77151,506.94,541.21
163.79160,503.31,540.16
163.81048,506.04,539.79
163.83080,504.31,540.35
163.85138,503.02,537.05
163.87123,504.11,539.56
163.89045,500.76,539.15
163.91124,501.10,540.69
163.93115,500.81,538.38
163.95055,505.05,534.73
163.97156,507.49,537.22
163.99017,505.09,535.02
164.01135,505.68,536.06
164.03028,503.07,535.07
164.05185,504.73,539.13
164.07160,506.23,543.10
164.09083,507.97,544.14
164.11141,510.54,527.47
164.13148,506.60,497.78
164.15072,505.51,470.02
164.17083,505.74,450.02
164.19057,505.90,438.66
164.21196,505.37,434.98
164.23163,503.15,433.15
164.25099,501.89,437.25
164.27092,504.47,441.68
164.29156,501.52,449.44
164.31111,503.21,453.56
164.33081,504.85,462.50
164.35088,505.06,473.54
164.37152,501.50,479.31
164.39096,501.88,482.12
164.41027,504.73,490.84
164.43073,503.81,492.78
164.45119,504.05,499.12
164.47070,502.58,505.87
164.49196,507.74,506.77
164.51089,504.31,511.54
164.53094,503.54,515.05
164.55173,505.74,517.38
164.57131,507.56,520.96
164.59177,508.36,519.36
164.61163,507.31,523.09
164.63095,505.41,525.83
164.65011,505.15,525.99
164.67009,509.52,526.20
164.69006,507.85,529.56
164.71183,508.99,529.94
164.73045,506.92,531.09
164.75114,509.74,529.39
164.77072,506.29,528.79
164.79160,509.40,531.85
164.81004,508.07,530.19
164.83120,508.09,531.79
164.85170,505.12,531.77
164.87113,507.32,530.80
164.89024,508.65,533.67
164.91078,507.02,531.08
164.93183,505.72,531.96
164.95181,504.53,533.55
164.97101,504.93,534.46
164.99189,507.45,531.87
165.01038,507.04,533.81
165.03075,506.21,532.90
165.05064,508.40,532.95
165.07025,508.33,533.42
165.09078,505.93,531.74
165.11063,506.87,536.01
165.13044,507.94,536.71
165.15146,505.78,534.65
165.17002,509.13,534.07
165.19144,508.73,536.69
165.21031,510.05,539.11
165.23084,508.79,537.17
165.25070,508.35,540.75
165.27013,508.64,538.14
165.29150,507.24,538.89
165.31138,509.72,536.05
165.33192,509.80,538.12
165.35059,507.34,540.01
165.37043,507.58,540.22
165.39054,507.30,538.68
165.41114,509.24,538.90
165.43000,508.73,537.67
165.45185,506.80,536.82
165.47196,505.68,535.12
165.49157,508.91,534.96
165.50980,507.52,534.08
165.53097,509.65,534.11
165.55189,509.08,534.30
165.57137,507.85,532.83
165.59157,509.50,536.13
165.61045,507.29,536.29
165.63158,509.24,535.21
165.65061,508.66,532.47
165.67193,508.54,532.33
165.69061,508.66,534.23
165.70925,506.85,530.24
165.73100,511.19,532.73
165.75092,510.58,531.98
165.77190,511.53,530.00
165.79052,512.57,532.76
165.81073,512.27,531.58
165.83103,509.76,533.28
165.85007,510.48,537.82
165.87046,513.63,542.96
165.89021,514.02,543.95
165.91140,512.60,545.88
165.93097,513.75,546.40
165.95053,512.54,546.07
165.97131,508.73,548.89
165.99028,510.60,547.61
166.01207,513.01,543.22
166.03122,509.88,544.66
166.05203,511.28,543.08
166.07188,512.33,543.10
166.09273,508.94,543.53
166.11202,509.76,540.64
166.13146,514.00,541.93
166.15154,515.14,539.75
166.17207,514.74,538.93
166.19188,513.81,540.32
166.21206,514.80,538.64
166.23240,515.94,537.29
166.25110,513.02,537.87
166.27123,512.18,539.61
166.29119,512.78,536.06
166.31150,515.22,537.14
166.33244,513.23,536.45
166.35217,512.67,539.51
166.37138,513.45,536.96
166.39168,514.89,539.10
166.41353,514.80,537.72
166.43335,518.70,538.47
166.45222,518.46,540.16
166.47376,520.20,540.22
166.49210,522.56,539.15
166.51239,522.94,539.73
166.53310,517.30,540.16
166.55253,517.09,539.97
166.57384,518.26,542.82
166.59313,517.53,545.45
166.61397,516.30,544.28
166.63215,516.78,543.15
166.65361,517.44,544.42
166.67217,519.25,544.61
166.69108,518.67,546.82
166.71185,516.28,545.20
166.73227,513.74,541.85
166.75299,514.37,545.49
166.77144,515.07,542.50
166.79372,515.04,544.82
166.81318,517.67,543.11
166.83360,516.96,540.55
166.85376,517.80,539.98
166.87221,517.49,540.32
166.89296,515.09,541.78
166.91345,517.21,536.04
166.93276,517.87,536.57
166.95295,516.34,536.35
166.97374,517.69,543.13
166.99307,515.66,556.85
167.01391,515.92,580.17
167.03313,517.59,604.86
167.05392,515.82,620.24
167.07288,516.26,624.68
167.09244,517.45,630.23
167.11374,516.25,625.66
167.13290,516.96,622.20
167.15318,518.16,620.54
167.17332,519.99,612.81
167.19188,520.63,605.25
167.21165,520.30,595.83
167.23354,519.54,588.86
167.25378,519.04,577.42
167.27393,520.90,573.37
167.29366,520.38,569.16
167.31459,518.30,562.87
167.33490,518.89,563.49
167.35460,519.76,559.66
167.37386,518.87,558.05
167.39410,515.69,556.75
167.41307,516.11,555.06
167.43350,515.44,553.58
167.45416,516.91,551.93
167.47325,517.62,553.05
167.49354,519.32,548.55
167.51321,520.97,547.86
167.53357,518.27,547.07
167.55404,521.50,546.54
167.57379,520.21,541.60
167.59435,517.83,544.91
167.61327,520.57,542.64
167.63409,519.48,543.14
167.65341,517.88,545.13
167.67320,516.16,546.41
167.69498,517.05,544.51
167.71332,514.23,544.46
167.73371,513.63,545.73
167.75472,515.10,542.09
167.77328,514.19,542.69
167.79493,512.66,542.54
167.81469,513.01,540.29
167.83379,516.61,541.39
167.85471,517.20,542.92
167.87490,519.33,540.39
167.89374,516.33,522.41
167.91462,514.65,499.52
167.93397,515.23,473.08
167.95447,513.18,459.64
167.97440,514.10,454.34
167.99481,509.67,453.35
168.01333,510.32,454.26
168.03456,509.12,458.81
168.05300,511.93,465.66
168.07483,510.50,469.75
168.09449,512.07,477.43
168.11312,513.46,484.19
168.13314,513.05,491.09
168.15481,516.37,497.03
168.17394,515.70,500.33
168.19427,517.33,504.08
168.21434,518.77,508.07
168.23407,517.20,511.51
168.25416,519.26,515.21
168.27211,517.65,518.54
168.29498,515.08,519.46
168.31306,516.50,525.74
168.33426,516.60,529.49
168.35409,515.02,530.01
168.37438,518.43,532.82
168.39236,516.45,535.18
168.41494,519.91,536.11
168.43444,516.37,537.51
168.45331,519.53,537.04
168.47336,518.26,536.88
168.49437,518.56,538.03
168.51211,518.08,538.71
168.53296,516.48,536.81
168.55427,519.56,537.92
168.57214,517.39,539.75
168.59350,515.81,537.54
168.61386,518.92,539.65
168.63354,518.00,537.56
168.65396,517.94,539.42
168.67375,520.74,540.88
168.69217,518.03,539.91
168.71337,516.38,539.50
168.73459,518.00,537.92
168.75395,516.63,539.90
168.77257,513.32,536.13
168.79452,516.56,538.90
168.81350,515.47,538.71
168.83316,515.66,537.47
168.85360,513.80,538.34
168.87388,515.68,537.22
168.89333,516.23,537.59
168.91492,517.07,537.12
168.93500,516.83,539.66
168.95491,516.36,537.70
168.97360,516.42,536.17
168.99223,515.21,538.11
169.01431,515.69,539.07
169.03326,513.99,537.49
169.05468,515.44,538.95
169.07484,517.61,539.19
169.09317,515.50,540.94
169.11329,515.21,543.12
169.13483,513.94,540.58
169.15358,517.27,540.36
169.17382,517.58,539.40
169.19347,515.35,539.28
169.21478,514.09,543.00
169.23484,514.08,540.18
169.25314,515.18,541.13
169.27351,512.72,542.32
169.29346,514.56,545.18
169.31384,512.45,543.82
169.33324,515.09,543.82
169.35478,513.75,542.11
169.37235,512.73,543.26
169.39454,512.48,542.47
169.41403,512.28,543.56
169.43481,513.43,544.65
169.45411,513.49,542.92
169.47300,512.38,545.59
169.49385,514.16,552.99
169.51212,519.99,565.97
169.53215,528.16,587.25
169.55290,534.04,611.75
169.57352,541.38,635.41
169.59490,545.53,656.88
169.61302,549.67,674.11
169.63309,551.02,683.99
169.65232,555.71,686.69
169.67336,554.38,685.44
169.69499,553.89,682.39
169.71394,545.70,678.08
169.73422,540.14,669.12
169.75412,531.32,642.71
169.77273,518.66,604.36
169.79316,502.75,552.58
169.81346,484.59,503.56
169.83331,471.20,464.29
169.85303,460.67,433.30
169.87468,459.20,416.87
169.89254,456.58,404.39
169.91332,459.91,401.05
169.93395,462.48,405.19
169.95489,466.81,410.11
169.97438,471.45,415.59
169.99416,475.72,423.84
170.01360,481.27,433.69
170.03325,483.73,443.90
170.05454,491.86,458.77
170.07288,491.53,473.71
170.09423,496.59,501.80
170.11484,505.27,545.29
170.13423,524.51,581.96
170.15317,547.81,608.00
170.17357,563.69,613.33
170.19341,581.94,607.78
170.21343,598.41,604.93
170.23339,605.90,606.06
170.25444,619.09,623.80
170.27252,623.46,638.64
170.29217,628.23,652.28
170.31441,623.88,668.03
170.33559,618.27,678.82
170.35573,610.30,686.96
170.37641,600.66,690.22
170.39555,590.29,689.77
170.41638,580.41,689.32
170.43672,572.96,688.60
170.45462,559.40,685.97
170.47646,552.12,678.38
170.49698,543.06,675.21
170.51462,535.34,668.26
170.53471,528.26,661.30
170.55606,518.79,658.14
170.57671,516.24,653.37
170.59690,511.39,645.10
170.61437,504.90,642.47
170.63622,503.62,635.23
170.65631,499.63,627.31
170.67628,497.95,625.08
