Program Time [s],data 0,data 1
13.58670,417.12,588.46
13.60715,420.04,589.84
13.62705,420.20,585.61
13.64674,420.27,585.49
13.66713,427.18,590.28
13.68766,428.39,586.63
13.70631,423.43,582.79
13.72640,424.63,583.28
13.74779,423.93,583.87
13.76665,420.84,582.63
13.78660,420.37,582.64
13.80694,421.54,579.57
13.82622,418.76,584.88
13.84718,414.31,584.87
13.86588,413.80,585.30
13.88672,415.83,589.90
13.90622,414.97,590.35
13.92702,411.98,586.48
13.94746,412.39,586.30
13.96623,410.73,583.50
13.98676,413.69,583.70
14.00683,416.36,580.78
14.02590,416.05,579.04
14.04767,417.69,577.03
14.06762,415.42,574.44
14.08687,415.71,574.06
14.10621,419.24,570.36
14.12646,420.54,567.42
14.14725,417.19,566.14
14.16745,418.11,564.09
14.18745,415.32,562.57
14.20673,415.78,564.50
14.22766,418.23,563.79
14.24646,415.21,564.59
14.26666,415.67,562.90
14.28675,417.24,563.86
14.30723,418.67,563.02
14.32627,413.90,563.09
14.34622,415.89,561.65
14.36756,416.61,566.47
14.38740,415.05,566.69
14.40647,414.09,564.73
14.42651,411.13,568.88
14.44699,410.47,566.48
14.46733,412.52,568.05
14.48742,411.83,569.86
14.50720,410.09,573.10
14.52768,409.37,572.20
14.54677,412.89,575.94
14.56753,412.49,573.90
14.58633,409.48,571.85
14.60674,411.64,572.58
14.62662,411.44,575.61
14.64715,410.41,574.49
14.66718,409.48,574.85
14.68653,411.49,576.17
14.70723,414.71,574.07
14.72750,412.74,576.54
14.74696,413.05,573.83
14.76699,415.42,574.17
14.78635,413.96,573.24
14.80740,414.48,572.98
14.82726,412.62,574.96
14.84642,413.63,572.58
14.86619,411.63,573.24
14.88602,410.47,575.89
14.90606,409.74,574.76
14.92744,410.59,574.01
14.94688,410.77,572.53
14.96597,415.52,574.40
14.98700,413.13,572.60
15.00676,416.45,572.81
15.02597,414.84,572.88
15.04754,416.88,574.28
15.06767,417.42,573.62
15.08655,416.77,573.64
15.10561,417.13,576.07
15.12752,410.37,577.01
15.14638,395.50,573.46
15.16867,376.61,572.22
15.18702,357.17,568.01
15.20790,339.12,564.76
15.22704,323.20,558.79
15.24782,309.71,553.93
15.26755,304.65,543.46
15.28707,305.21,538.99
15.30727,305.70,528.51
15.32765,307.75,524.20
15.34879,316.07,522.23
15.36789,324.48,522.68
15.38843,329.95,520.33
15.40724,341.60,524.36
15.42812,348.22,527.80
15.44738,355.44,533.45
15.46885,362.95,537.20
15.48812,367.29,540.95
15.50868,374.85,543.41
15.52741,377.09,549.49
15.54851,384.80,551.01
15.56832,387.03,552.52
15.58885,393.42,556.57
15.60705,395.65,562.95
15.62765,398.13,563.00
15.64845,400.83,562.53
15.66777,403.24,564.67
15.68780,408.00,566.33
15.70688,406.08,566.83
15.72720,410.62,571.21
15.74869,408.60,571.70
15.76794,409.64,571.05
15.78812,413.54,574.04
15.80808,412.73,573.98
15.82723,412.83,576.84
15.84825,413.02,575.75
15.86671,417.08,578.16
15.88855,418.31,577.31
15.90852,418.83,576.81
15.92697,425.19,582.16
15.94858,442.40,594.05
15.96730,470.23,608.95
15.98701,496.42,624.24
16.00737,527.72,633.23
16.02782,551.19,642.22
16.04845,565.98,638.83
16.06712,566.18,636.17
16.08707,562.67,631.60
16.10870,556.52,630.60
16.12724,546.40,623.33
16.14702,532.28,618.93
16.16748,522.48,615.93
16.18700,509.87,611.96
16.20721,500.02,608.07
16.22720,491.58,605.72
16.24831,485.50,599.82
16.26851,473.92,598.69
16.28865,467.86,594.90
16.30792,461.78,593.83
16.32797,453.05,591.13
16.34824,450.83,590.13
16.36957,443.56,587.31
16.38891,443.23,587.10
16.41063,440.07,587.44
16.42936,439.10,583.13
16.44876,436.36,580.32
16.47011,431.78,581.01
16.49070,433.10,583.66
16.50974,430.38,580.29
16.53160,431.50,583.00
16.55091,429.13,580.46
16.57222,433.84,584.42
16.59104,432.39,581.69
16.61194,431.91,584.22
16.63185,429.92,583.98
16.65172,432.75,581.21
16.67112,432.10,584.45
16.69163,434.00,579.99
16.71359,434.30,580.67
16.73291,433.83,580.02
16.75346,436.09,580.22
16.77319,437.49,578.69
16.79239,438.66,580.49
16.81286,439.15,578.31
16.83263,439.18,578.24
16.85356,437.32,579.88
16.87353,437.37,579.73
16.89227,436.28,578.11
16.91343,436.99,582.25
16.93347,436.52,580.50
16.95316,437.13,578.83
16.97383,437.31,580.94
16.99180,437.42,579.57
17.01444,440.00,579.48
17.03354,437.62,578.94
17.05373,439.28,580.13
17.07402,440.48,581.14
17.09355,438.66,578.64
17.11361,439.65,581.81
17.13430,443.62,581.61
17.15516,441.80,581.90
17.17472,439.63,583.26
17.19574,439.99,582.65
17.21626,438.27,580.61
17.23652,438.52,581.75
17.25672,437.34,581.33
17.27759,440.79,582.07
17.29734,441.20,584.06
17.31741,438.19,581.83
17.33704,441.01,582.99
17.35696,441.36,583.67
17.37746,441.00,586.00
17.39735,439.55,587.11
17.41863,436.14,585.07
17.43870,435.95,582.00
17.45754,436.17,585.85
17.47858,435.79,582.31
17.49723,435.90,583.20
17.51783,437.56,582.64
17.53692,435.20,582.79
17.55812,436.71,583.91
17.57827,434.10,584.40
17.59875,435.50,580.64
17.61866,436.42,584.74
17.63847,438.32,583.91
17.65693,435.27,581.69
17.67691,434.91,583.93
17.69800,436.55,580.31
17.71804,435.86,580.34
17.73857,436.42,580.23
17.75801,436.37,580.79
17.77850,437.26,582.99
17.79789,435.13,578.62
17.81766,435.77,580.01
17.83876,436.06,581.23
17.85724,438.86,580.05
17.87820,435.99,579.88
17.89735,438.39,580.64
17.91841,436.17,581.53
17.93856,437.79,582.62
17.95852,435.33,579.35
17.97815,435.58,580.93
17.99849,431.82,581.29
18.01737,431.58,580.83
18.03732,433.34,581.53
18.05769,434.77,578.44
18.07788,435.41,577.59
18.09717,431.99,578.33
18.11849,435.25,576.97
18.13861,432.74,578.35
18.15699,434.62,576.54
18.17741,436.05,577.18
18.19770,434.74,575.83
18.21730,435.46,576.18
18.23686,434.04,579.39
18.25693,423.12,576.61
18.27736,404.47,575.12
18.29727,384.35,572.69
18.31764,366.39,568.34
18.33812,344.69,562.60
18.35769,331.18,556.15
18.37855,323.62,544.47
18.39757,314.65,541.51
18.41871,311.68,533.96
18.43844,313.93,530.57
18.45812,316.75,530.04
18.47814,320.62,528.72
18.49874,330.30,532.44
18.51680,337.89,532.49
18.53771,348.50,537.12
18.55757,358.71,541.17
18.57849,367.74,543.64
18.59723,374.21,545.24
18.61701,385.24,550.41
18.63684,391.46,555.39
18.65796,396.63,556.79
18.67927,400.41,562.19
18.69926,402.17,563.00
18.71912,406.50,566.68
18.74041,410.10,569.39
18.76040,412.84,569.08
18.77923,414.73,571.61
18.79941,415.55,572.31
18.82075,415.46,574.41
18.83937,415.43,576.31
18.85942,418.75,575.46
18.87983,421.72,576.51
18.90161,420.61,575.55
18.91970,423.39,577.75
18.94001,422.63,579.17
18.95974,421.18,579.04
18.98248,421.32,577.97
19.00218,418.78,580.36
19.02104,419.34,578.96
19.04138,417.88,578.33
19.06265,419.72,579.12
19.08155,419.86,578.47
19.10341,419.73,581.54
19.12279,432.11,585.11
19.14475,451.60,598.68
19.16413,479.23,609.19
19.18423,508.10,623.59
19.20476,533.85,633.19
19.22503,550.31,635.25
19.24641,559.25,638.17
19.26514,559.29,632.26
19.28545,555.40,629.70
19.30608,545.84,623.80
19.32632,534.64,618.69
19.34625,525.35,615.27
19.36524,516.02,608.27
19.38614,502.99,604.07
19.40499,494.23,602.57
19.42616,483.03,597.13
19.44758,476.57,595.35
19.46573,469.88,591.74
19.48785,461.25,590.65
19.50821,455.94,586.40
19.52819,448.96,584.48
19.54673,443.93,586.94
19.56752,441.15,585.35
19.58836,437.26,583.46
19.60818,435.04,582.05
19.62827,432.08,580.74
19.64856,429.96,583.32
19.66780,429.63,580.93
19.68804,427.72,579.84
19.70785,425.49,578.18
19.72765,425.80,579.19
19.74898,425.42,579.08
19.76873,425.15,578.23
19.78834,426.79,577.72
19.80808,424.60,577.53
19.82846,422.41,577.79
19.84828,423.87,577.70
19.86891,421.78,579.40
19.88812,424.50,579.74
19.90822,421.60,577.46
19.92947,423.52,578.44
19.95033,425.18,579.31
19.96928,426.58,578.07
19.99013,425.57,576.20
20.00948,424.84,577.22
20.02879,423.10,578.15
20.04868,424.67,576.92
20.06921,422.07,576.41
20.09007,425.75,579.41
20.11049,424.75,579.34
20.13111,426.89,578.10
20.15179,428.48,580.50
20.17169,430.97,579.25
20.19254,431.87,581.16
20.21440,433.37,578.38
20.23293,435.42,580.65
20.25451,434.79,580.73
20.27335,438.61,580.68
20.29317,438.69,579.20
20.31386,437.85,581.33
20.33364,436.47,577.95
20.35473,438.94,578.35
20.37392,436.53,576.65
20.39581,438.24,579.57
20.41739,438.45,580.36
20.43777,437.45,578.43
20.45930,432.39,579.06
20.47860,431.86,577.70
20.50003,432.87,580.01
20.52012,430.08,578.14
20.54063,427.54,577.51
20.56081,424.96,580.06
20.58148,425.39,578.51
20.60114,426.12,578.58
20.62037,425.11,580.08
20.64016,423.82,581.06
20.66211,421.53,581.24
20.68184,423.03,580.62
20.70207,423.22,579.22
20.72155,422.47,580.03
20.74202,420.31,580.97
20.76229,421.59,580.53
20.78125,420.61,581.03
20.80092,418.93,579.33
20.82075,419.22,581.25
20.84083,420.31,580.84
20.86107,417.29,582.18
20.88179,417.06,582.00
20.90250,418.82,580.17
20.92218,417.26,579.00
20.94083,418.23,579.99
20.96187,418.11,578.06
20.98225,419.68,576.36
21.00192,418.85,577.43
21.02183,419.05,575.92
21.04406,418.23,575.18
21.06517,417.18,577.80
21.08430,416.27,577.28
21.10387,417.68,576.22
21.12394,417.51,574.33
21.14569,418.27,577.64
21.16524,417.27,576.39
21.18586,417.42,573.48
21.20499,415.01,575.41
21.22537,418.22,577.35
21.24398,415.27,576.91
21.26367,415.17,576.54
21.28509,416.55,576.66
21.30509,416.77,577.93
21.32440,415.72,577.27
21.34515,415.34,576.37
21.36435,414.27,578.85
21.38371,413.94,578.15
21.40552,416.93,579.15
21.42504,414.59,577.09
21.44480,416.04,575.18
21.46517,417.27,578.45
21.48635,415.68,578.64
21.50688,412.44,575.87
21.52723,403.29,572.55
21.54725,384.81,561.63
21.56591,363.33,552.75
21.58631,345.19,538.05
21.60674,330.64,530.45
21.62685,316.62,522.71
21.64654,303.59,517.72
21.66651,297.64,516.15
21.68596,297.32,517.66
21.70829,299.92,520.65
21.72784,302.40,526.06
21.74878,310.25,528.54
21.77009,318.07,533.47
21.79000,327.12,541.73
21.81078,337.07,544.56
21.83030,346.13,549.30
21.85111,354.95,554.07
21.87085,366.62,555.65
21.89237,376.03,559.86
21.91092,381.02,559.06
21.93175,387.65,562.98
21.95224,394.25,564.15
21.97190,399.55,569.68
21.99119,404.45,568.11
22.01067,408.63,572.09
22.03230,415.54,572.05
22.05320,417.12,577.54
22.07427,417.17,576.57
22.09431,421.40,576.05
22.11357,421.50,578.12
22.13380,423.56,578.17
22.15393,426.14,578.36
22.17400,427.61,579.47
22.19566,430.81,579.05
22.21579,430.14,579.83
22.23571,430.94,580.04
22.25528,429.43,579.77
22.27525,429.06,582.41
22.29575,429.39,581.72
22.31494,432.93,583.64
22.33722,436.11,583.92
22.35692,433.64,580.10
22.37557,436.65,583.61
22.39682,435.55,583.15
22.41600,437.78,583.28
22.43632,437.35,581.49
22.45689,435.48,583.07
22.47598,438.36,580.94
22.49634,434.47,582.21
22.51687,435.89,582.82
22.53688,439.31,582.83
22.55753,454.92,588.35
22.57595,478.75,596.23
22.59651,506.94,606.45
22.61584,538.05,614.17
22.63835,562.89,618.26
22.65826,575.64,618.90
22.67790,573.00,614.41
22.69812,568.87,613.20
22.71944,559.03,608.68
22.73842,550.79,604.21
22.75911,538.49,601.17
22.77822,530.40,599.04
22.79980,517.30,594.63
22.81938,510.40,594.68
22.83938,501.17,590.26
22.85779,491.40,590.90
22.87837,484.82,588.70
22.89962,475.53,588.88
22.91928,472.16,586.24
22.93911,466.37,585.33
22.95865,458.54,586.82
22.97783,454.71,588.57
22.99901,450.60,585.15
23.01939,447.30,586.19
23.03764,444.45,586.76
23.05808,443.87,586.97
23.07796,437.71,583.84
23.09825,438.36,583.34
23.11919,437.90,584.39
23.13854,437.83,584.98
23.15782,433.69,582.12
23.17795,434.09,581.94
23.19841,432.29,581.41
23.21929,430.15,582.76
23.23942,430.37,582.03
23.25825,429.40,582.16
23.27938,430.33,579.89
23.29850,428.13,579.92
23.31861,429.91,579.48
23.33866,427.85,579.69
23.35920,428.91,578.92
23.37965,426.63,580.14
23.39940,436.01,585.97
23.41878,441.31,588.52
23.43814,443.23,589.87
23.45924,445.78,592.12
23.47897,446.11,592.66
23.49943,447.66,592.91
23.51838,445.66,591.40
23.53812,444.31,591.09
23.55869,442.69,591.16
23.57949,443.33,588.33
23.59925,440.59,588.23
23.61837,437.52,584.64
23.63797,437.70,586.92
23.65886,436.41,585.84
23.67929,432.76,584.16
23.69804,433.73,584.47
23.71824,432.84,580.91
23.73803,430.08,578.95
23.75933,433.93,582.33
23.77826,430.79,581.74
23.79803,432.78,578.53
23.81801,429.97,577.97
23.83806,431.70,579.74
23.85858,433.93,577.62
23.87886,430.44,579.64
23.90000,430.42,575.88
23.91971,424.64,575.87
23.94167,425.06,576.56
23.96194,423.99,579.51
23.98261,421.65,578.49
24.00158,420.89,579.38
24.02315,418.95,578.59
24.04284,418.02,578.02
24.06192,419.40,576.43
24.08321,416.82,576.70
24.10345,417.04,577.29
24.12457,416.75,575.69
24.14285,415.41,579.62
24.16426,416.55,580.15
24.18306,417.49,578.02
24.20432,413.49,579.38
24.22358,417.89,577.37
24.24341,415.75,578.48
24.26400,417.51,579.86
24.28294,417.13,579.33
24.30431,416.18,579.60
24.32360,413.65,578.41
24.34483,415.89,575.92
24.36525,417.76,575.12
24.38569,418.18,575.36
24.40647,415.95,577.24
24.42527,415.15,576.53
24.44713,418.54,575.34
24.46745,418.65,577.98
24.48589,419.71,575.87
24.50728,417.71,575.20
24.52741,418.45,574.16
24.54661,416.96,575.90
24.56591,416.71,575.52
24.58601,419.44,573.60
24.60726,417.92,574.19
24.62725,420.21,575.89
24.64744,422.09,575.18
24.66815,419.96,577.13
24.68728,423.90,576.56
24.70705,421.50,573.49
24.72742,424.12,575.88
24.74812,421.76,576.22
24.76712,422.73,576.42
24.78762,426.13,575.52
24.80855,424.14,574.33
24.82759,426.72,572.45
24.84825,424.71,572.22
24.86952,426.86,573.46
24.88869,425.44,571.91
24.90968,429.92,571.25
24.93037,432.09,571.16
24.94978,429.58,572.04
24.97120,425.57,575.22
24.99062,411.65,574.29
25.00987,392.93,578.44
25.03240,370.42,575.51
25.05231,349.46,570.62
25.07203,332.30,563.47
25.09180,322.36,556.29
25.11169,315.45,544.80
25.13303,312.54,539.13
25.15373,310.22,535.56
25.17545,314.51,534.84
25.19509,317.16,535.22
25.21633,322.16,535.29
25.23699,330.71,541.08
25.25714,339.44,545.43
25.27751,347.20,546.55
25.29950,356.06,550.16
25.31954,364.24,553.46
25.33825,372.26,553.44
25.35817,380.59,559.71
25.37803,385.76,560.50
25.39845,392.16,563.62
25.41808,395.11,566.16
25.43902,400.76,568.33
25.45850,402.13,567.37
25.47890,405.42,568.10
25.49894,408.63,571.04
25.51810,413.34,571.40
25.53823,414.51,572.03
25.55825,417.76,569.91
25.57791,419.58,573.30
25.59884,419.53,571.34
25.61840,421.30,570.86
25.63820,423.89,573.36
25.65787,423.90,573.21
25.67868,426.88,572.85
25.69968,425.72,574.03
25.71981,423.67,577.19
25.73950,434.40,577.30
25.75992,454.62,584.88
25.78081,479.30,588.89
25.80107,510.76,590.36
25.82158,536.43,588.53
25.84137,562.31,589.90
25.86093,572.98,590.49
25.88095,575.76,586.25
25.90150,571.79,587.31
25.92079,567.52,586.46
25.94157,554.43,583.99
25.96231,544.55,582.98
25.98240,529.99,581.62
26.00098,521.03,582.64
26.02239,507.51,582.12
26.04335,496.94,584.02
26.06517,490.98,586.26
26.08373,482.67,589.04
26.10434,474.79,590.63
26.12487,465.17,591.75
26.14454,458.86,591.15
26.16526,455.54,589.58
26.18425,449.29,589.81
26.20427,441.89,587.49
26.22380,438.52,587.52
26.24495,433.59,585.39
26.26378,429.76,583.45
26.28557,430.20,580.08
26.30514,426.68,582.17
26.32414,425.42,579.22
26.34461,424.44,579.80
26.36360,422.42,575.28
26.38441,421.21,576.69
26.40544,417.42,575.73
26.42496,417.39,575.96
26.44452,416.99,572.63
26.46523,412.84,574.59
26.48523,414.65,574.94
26.50420,414.10,573.97
26.52521,413.86,574.24
26.54414,413.99,572.70
26.56347,414.26,574.28
26.58611,415.10,574.89
26.60502,417.33,574.50
26.62529,414.29,575.14
26.64505,417.86,577.66
26.66578,419.30,576.42
26.68476,417.41,576.86
26.70567,416.28,574.41
26.72684,419.82,576.66
26.74677,418.11,576.15
26.76743,419.23,575.18
26.78744,420.50,574.50
26.80810,419.99,577.09
26.82883,422.33,576.85
26.84895,422.54,576.31
26.86952,424.83,575.97
26.89053,425.77,575.70
26.91023,426.15,577.14
26.92965,429.34,577.21
26.95028,428.43,576.30
26.97026,430.96,576.16
26.99091,433.53,574.68
27.01080,433.69,577.70
27.03115,430.91,576.03
27.05159,429.97,575.97
27.07111,432.28,576.10
27.09066,433.19,576.95
27.10974,434.24,575.43
27.13002,433.74,579.25
27.14991,433.12,577.88
27.16990,431.47,577.56
27.19239,433.23,581.00
27.21262,433.51,578.63
27.23212,433.19,579.13
27.25224,433.91,579.22
27.27166,434.40,580.36
27.29351,436.31,579.31
27.31236,437.59,581.16
27.33370,435.08,580.51
27.35283,436.92,580.07
27.37272,436.63,578.20
27.39290,436.22,580.01
27.41303,434.51,578.61
27.43263,434.95,577.85
27.45320,438.75,577.73
27.47286,436.12,577.86
27.49353,437.86,578.06
27.51434,437.18,577.48
27.53389,436.86,576.58
27.55401,438.22,579.65
27.57489,438.27,577.74
27.59545,438.29,579.05
27.61460,439.62,576.75
27.63383,436.33,578.93
27.65421,438.60,577.27
27.67530,439.23,578.56
27.69488,435.74,579.46
27.71391,434.64,578.24
27.73352,437.06,578.70
27.75445,434.93,576.34
27.77449,437.31,577.60
27.79529,434.79,578.94
27.81499,437.86,576.39
27.83522,438.34,579.73
27.85373,438.79,579.82
27.87362,437.46,581.87
27.89472,440.05,579.35
27.91514,438.22,580.91
27.93563,437.07,578.33
27.95403,437.11,580.79
27.97363,440.43,580.67
27.99487,438.11,581.42
28.01478,436.05,582.37
28.03470,425.82,587.92
28.05536,403.91,594.24
28.07535,382.04,602.61
28.09489,358.75,604.14
28.11347,341.25,600.39
28.13525,323.64,593.49
28.15533,312.75,583.22
28.17408,306.56,569.70
28.19457,302.89,562.38
28.21371,303.33,554.01
28.23514,308.15,548.75
28.25377,312.16,546.75
28.27487,318.25,542.07
28.29404,326.60,542.94
28.31511,333.69,540.70
28.33440,344.41,542.44
28.35390,352.54,546.13
28.37500,359.44,546.50
28.39527,366.99,550.20
28.41367,375.21,554.55
28.43361,383.32,558.77
28.45380,386.51,559.52
28.47546,397.13,564.67
28.49530,399.07,566.93
28.51410,405.25,564.01
28.53507,409.79,568.66
28.55427,413.39,568.82
28.57412,415.57,569.20
28.59413,419.01,572.18
28.61400,419.13,572.95
28.63524,422.90,571.92
28.65446,423.48,574.83
28.67410,425.89,574.70
28.69346,426.14,574.23
28.71351,430.59,573.71
28.73511,430.61,576.37
28.75450,428.86,574.40
28.77509,431.84,576.64
28.79420,433.22,575.56
28.81445,440.78,576.41
28.83548,461.48,578.35
28.85359,484.12,581.81
28.87413,511.52,581.54
28.89387,539.81,588.12
28.91414,568.65,592.53
28.93503,588.67,595.96
28.95516,596.23,597.60
28.97512,597.95,599.05
28.99511,590.48,598.98
29.01442,581.01,598.60
29.03468,571.74,595.04
29.05496,560.38,594.16
29.07475,545.27,592.62
29.09361,535.51,596.47
29.11334,529.67,598.76
29.13546,517.58,596.30
29.15463,509.51,596.36
29.17422,500.57,595.14
29.19484,492.25,595.57
29.21426,485.90,594.48
29.23566,480.26,591.80
29.25500,475.17,589.93
29.27447,468.51,588.88
29.29663,466.64,590.64
29.31588,460.23,592.02
29.33698,457.48,588.70
29.35588,454.71,591.40
29.37809,451.92,589.12
29.39784,450.05,589.83
29.41938,446.65,585.63
29.43742,442.09,587.10
29.45917,442.36,586.49
29.47731,439.63,584.86
29.49758,441.07,581.86
29.51790,439.03,583.97
29.53868,439.51,584.80
29.55785,437.94,580.85
29.57917,435.30,580.57
29.59734,434.82,579.18
29.61851,433.54,580.42
29.63838,433.15,579.65
29.65870,435.77,578.48
29.67846,432.95,578.32
29.69766,434.93,578.40
29.71826,433.56,577.02
29.73750,430.93,577.17
29.75880,433.25,578.35
29.77871,431.89,578.48
29.79946,433.57,579.40
29.81957,430.67,578.49
29.83930,430.42,578.65
29.85947,429.47,578.83
29.87865,431.73,577.99
29.89998,429.92,578.33
29.91921,428.03,578.52
29.93959,429.38,580.25
29.95856,428.78,579.79
29.98043,428.98,578.48
30.00221,430.13,577.40
30.02203,427.33,575.64
30.04376,422.96,579.84
30.06245,423.43,578.64
30.08374,420.90,579.47
30.10422,418.86,578.17
30.12502,419.99,579.88
30.14437,417.55,581.04
30.16478,414.60,578.58
30.18436,417.24,580.32
30.20421,414.41,581.84
30.22476,416.19,578.18
30.24440,416.99,578.03
30.26509,414.42,579.23
30.28396,416.24,578.15
30.30388,413.46,577.69
30.32515,414.48,577.83
30.34390,412.35,577.02
30.36471,414.32,576.86
30.38546,414.99,579.35
30.40541,412.00,577.71
30.42495,414.06,578.74
30.44364,412.59,578.43
30.46384,412.85,578.86
30.48426,415.31,579.27
30.50385,414.61,578.39
30.52371,415.25,577.60
30.54555,412.56,579.74
30.56500,415.74,579.41
30.58415,416.70,578.58
30.60382,415.65,576.61
30.62525,416.27,576.06
30.64409,412.51,575.91
30.66481,413.57,578.11
30.68407,412.38,576.09
30.70365,412.21,576.64
30.72363,414.88,576.32
30.74609,413.19,578.61
30.76598,416.29,577.89
30.78599,416.03,580.56
30.80538,415.60,578.94
30.82440,415.38,577.65
30.84560,416.19,577.31
30.86541,412.68,577.84
30.88735,412.65,578.53
30.90695,417.26,576.44
30.92745,414.80,578.43
30.94783,417.42,575.96
30.96715,417.08,578.52
30.98828,416.42,576.00
31.00805,417.18,576.58
31.02645,414.71,576.85
31.04761,414.73,577.50
31.06805,417.62,581.15
31.08921,415.49,579.87
31.10881,416.20,580.72
31.12887,414.03,582.77
31.14845,416.94,581.48
31.16875,416.89,583.24
31.18791,417.32,581.30
31.20875,418.41,580.36
31.22921,417.76,580.82
31.24893,419.63,579.57
31.26911,420.33,578.52
31.28879,421.06,578.76
31.30763,420.56,578.02
31.32836,422.32,576.90
31.34908,423.33,577.71
31.36759,420.43,577.67
31.38829,422.78,574.98
31.40773,421.05,574.78
31.42932,422.33,577.17
31.44898,419.39,576.85
31.46924,421.86,577.26
31.48804,419.10,574.81
31.50794,420.20,574.95
31.52853,421.93,575.11
31.54812,419.22,573.97
31.56749,421.73,575.50
31.58859,419.73,575.88
31.60919,421.78,576.16
31.62843,421.62,573.72
31.64774,421.56,576.51
31.66934,418.35,573.71
31.69045,418.80,574.96
31.70880,421.97,573.74
31.73037,420.81,574.45
31.74938,418.55,574.53
31.76943,419.16,572.84
31.79031,421.92,574.19
31.80928,413.07,575.51
31.83040,401.07,575.41
31.84882,377.92,572.01
31.86839,355.64,570.52
31.89007,335.70,565.48
31.90967,319.94,559.26
31.93003,302.72,556.25
31.94865,294.11,550.04
31.96937,290.65,546.66
31.99053,289.51,545.46
32.01087,293.15,548.73
32.03078,297.08,546.38
32.05000,304.24,549.62
32.07130,309.90,550.37
32.09003,317.32,550.93
32.10956,329.60,553.05
32.13081,336.69,555.25
32.15064,348.58,558.18
32.17143,355.62,558.38
32.19071,363.85,561.64
32.21034,371.47,564.30
32.23089,378.34,563.80
32.25126,384.14,566.82
32.27163,389.30,571.22
32.29111,391.49,571.98
32.31226,395.27,570.77
32.33122,400.58,572.48
32.35095,404.49,572.54
32.37271,406.94,572.74
32.39231,411.07,573.17
32.41199,413.71,572.59
32.43216,415.69,572.95
32.45231,417.72,574.28
32.47241,419.62,574.69
32.49148,420.53,573.82
32.51441,423.88,576.57
32.53389,425.86,574.82
32.55230,424.26,577.08
32.57415,435.33,579.22
32.59269,452.40,579.15
32.61444,479.59,582.90
32.63441,510.50,586.18
32.65287,542.56,587.24
32.67378,565.16,594.68
32.69382,580.58,596.30
32.71417,588.41,598.85
32.73371,583.77,598.91
32.75266,579.76,595.20
32.77404,568.16,596.13
32.79232,558.15,594.42
32.81282,545.83,592.37
32.83388,536.79,593.05
32.85301,531.47,598.86
32.87368,522.87,598.18
32.89334,513.35,600.36
32.91370,505.47,594.88
32.93421,494.96,594.91
32.95297,487.07,594.01
32.97380,480.41,590.59
32.99328,475.27,588.01
33.01297,469.58,589.02
33.03398,463.44,586.81
33.05355,456.84,584.28
33.07425,455.87,584.50
33.09345,452.37,586.56
33.11316,449.29,585.32
33.13270,445.58,582.70
33.15255,445.46,583.83
33.17309,443.33,581.91
33.19303,442.46,580.82
33.21309,440.05,580.26
33.23253,434.98,581.26
33.25314,434.18,580.31
33.27260,434.87,581.91
33.29353,432.40,580.30
33.31425,432.05,579.73
33.33253,432.11,579.54
33.35436,430.78,579.51
33.37347,428.77,578.89
33.39324,428.38,576.06
33.41392,427.50,578.35
33.43301,428.04,576.07
33.45351,428.22,577.72
33.47371,429.51,578.60
33.49250,433.34,580.50
33.51413,433.15,580.37
33.53404,432.14,580.70
33.55418,431.39,581.81
33.57389,430.13,580.73
33.59350,431.39,579.28
33.61402,431.38,581.64
33.63362,430.36,577.92
33.65264,430.30,577.95
33.67414,431.63,576.97
33.69309,433.17,579.41
33.71330,430.78,577.32
33.73394,431.44,577.15
33.75379,433.08,576.90
33.77432,428.90,580.04
33.79387,429.47,577.21
33.81301,429.43,578.02
33.83361,429.54,578.12
33.85380,430.61,576.90
33.87284,430.94,578.01
33.89386,430.72,576.41
33.91251,430.48,577.80
33.93316,428.84,578.04
33.95364,429.02,575.16
33.97264,430.60,578.32
33.99346,430.97,575.28
34.01387,428.54,575.01
34.03238,429.72,575.71
34.05361,431.06,577.37
34.07329,428.77,575.82
34.09325,431.43,575.19
34.11384,430.84,574.59
34.13366,428.88,577.16
34.15299,432.50,575.32
34.17321,432.44,574.44
34.19352,430.74,577.01
34.21396,432.80,578.72
34.23340,431.76,578.87
34.25345,430.57,577.20
34.27406,431.03,577.28
34.29297,429.61,578.34
34.31297,432.29,578.52
34.33319,431.70,576.76
34.35402,432.73,579.17
34.37409,428.99,580.49
34.39403,430.85,578.53
34.41385,427.46,579.56
34.43257,428.15,577.89
34.45307,429.21,577.70
34.47373,430.65,577.71
34.49242,430.64,576.69
34.51350,430.13,575.02
34.53261,431.34,577.53
34.55391,431.64,575.85
34.57429,429.94,578.18
34.59294,431.05,574.34
34.61391,428.19,575.92
34.63238,427.15,574.57
34.65296,427.40,574.22
34.67366,430.38,577.50
34.69438,430.59,576.36
34.71339,431.01,577.29
34.73251,430.63,576.19
34.75274,432.37,575.62
34.77262,430.16,577.39
34.79328,429.99,578.83
34.81401,430.04,577.76
34.83416,428.97,577.79
34.85348,430.64,574.78
34.87405,427.55,577.52
34.89331,426.26,575.50
34.91419,428.64,574.15
34.93387,428.14,575.62
34.95375,427.91,577.98
34.97263,426.96,577.74
34.99322,427.82,578.47
35.01308,428.91,576.19
35.03286,428.77,579.02
35.05284,426.43,576.81
35.07435,427.79,577.23
35.09435,424.97,577.07
35.11449,426.64,578.52
35.13379,429.31,579.56
35.15362,430.32,580.99
35.17269,429.95,578.22
35.19362,431.55,579.98
35.21321,432.34,580.04
35.23365,430.61,580.36
35.25245,432.27,578.60
35.27419,428.72,578.19
35.29396,429.10,575.21
35.31322,427.33,575.22
35.33265,431.29,575.55
35.35410,427.18,575.17
35.37338,429.29,576.67
35.39330,427.27,578.28
35.41384,430.38,576.57
35.43273,431.73,575.20
35.45243,429.25,577.27
35.47351,430.08,576.69
35.49383,432.05,575.94
35.51339,431.81,573.95
35.53338,433.14,574.42
35.55393,427.46,576.18
35.57459,416.78,583.77
35.59486,400.95,587.64
35.61405,382.36,591.98
35.63502,359.27,588.29
35.65350,339.18,584.21
35.67505,322.23,574.07
35.69394,314.75,564.02
35.71416,306.41,553.11
35.73375,301.86,545.52
35.75484,303.67,537.47
35.77421,303.03,534.03
35.79472,306.78,531.98
35.81445,311.14,530.65
35.83450,321.31,527.48
35.85465,329.37,530.88
35.87464,337.17,533.01
35.89476,345.55,535.15
35.91487,354.88,535.28
35.93539,362.05,540.48
35.95379,369.02,541.72
35.97471,379.07,545.85
35.99361,384.31,546.86
36.01524,392.79,551.11
36.03435,397.46,552.11
36.05514,401.02,554.46
36.07534,405.48,560.39
36.09451,408.26,562.95
36.11394,411.28,563.75
36.13440,415.10,565.98
36.15446,419.33,567.01
36.17405,420.01,567.70
36.19499,423.34,571.42
36.21367,425.28,569.82
36.23342,426.39,571.48
36.25343,426.75,574.19
36.27430,426.64,575.32
36.29549,431.66,575.79
36.31379,430.56,577.22
36.33364,429.15,577.07
36.35387,431.95,578.01
36.37418,432.48,578.03
36.39511,431.83,578.48
36.41392,430.92,577.89
36.43393,430.89,577.81
36.45546,432.55,576.39
36.47505,431.10,576.00
36.49460,432.53,575.67
36.51505,440.07,576.95
36.53346,453.44,576.80
36.55455,475.07,575.63
36.57458,494.55,575.80
36.59384,518.63,578.40
36.61481,540.06,584.36
36.63414,561.33,595.98
36.65377,578.38,603.25
36.67474,588.04,610.30
36.69429,592.07,608.82
36.71439,586.55,609.27
36.73518,576.28,609.48
36.75486,566.73,606.58
36.77609,553.39,600.60
36.79526,540.57,600.77
36.81442,526.00,596.10
36.83454,515.55,592.90
36.85484,504.63,591.09
36.87510,496.29,589.06
36.89453,485.33,591.77
36.91476,476.58,590.16
36.93496,473.10,591.41
36.95527,463.87,588.13
36.97612,459.97,586.17
36.99544,454.50,586.51
37.01456,453.23,585.11
37.03600,451.91,585.30
37.05440,450.62,584.87
37.07553,448.66,583.88
37.09584,447.01,584.21
37.11579,445.41,585.12
37.13474,443.95,582.96
37.15547,444.08,582.53
37.17434,439.06,581.68
37.19471,440.01,582.04
37.21555,437.53,580.39
37.23568,439.28,579.94
37.25543,439.53,579.21
37.27524,438.55,579.75
37.29576,435.94,580.37
37.31472,434.11,579.52
37.33451,434.20,577.81
37.35472,435.71,578.98
37.37516,435.38,575.47
37.39534,435.03,577.95
37.41475,434.19,574.53
37.43487,436.38,576.31
37.45564,434.77,578.32
37.47598,436.16,577.21
37.49563,435.28,578.00
37.51571,433.06,577.00
37.53499,431.13,578.90
37.55488,432.58,582.61
37.57464,432.32,583.12
37.59459,433.35,583.56
37.61513,429.26,579.80
37.63614,428.91,582.02
37.65703,429.50,581.03
37.67661,430.06,581.37
37.69593,432.08,578.93
37.71606,432.21,580.84
37.73555,435.24,580.23
37.75564,433.37,580.31
37.77680,431.93,577.73
37.79727,431.66,576.42
37.81596,430.81,579.31
37.83620,430.08,579.30
37.85559,428.70,575.84
37.87724,431.17,578.76
37.89582,432.44,577.31
37.91622,432.55,576.15
37.93658,434.75,579.28
37.95679,436.51,578.74
37.97673,435.95,577.64
37.99699,435.56,576.76
38.01547,434.30,577.48
38.03648,435.53,578.64
38.05651,432.32,578.10
38.07672,432.88,579.03
38.09560,431.45,580.01
38.11630,432.07,579.72
38.13710,430.45,577.94
38.15638,432.62,577.02
38.17547,433.60,574.83
38.19640,433.60,576.67
38.21643,435.05,576.06
38.23550,433.82,576.34
38.25699,431.89,577.41
38.27530,434.68,576.79
38.29693,433.26,577.99
38.31728,435.84,579.24
38.33707,434.72,576.96
38.35601,434.32,576.82
38.37668,434.64,579.40
38.39601,434.25,578.63
38.41718,436.59,577.73
38.43672,436.91,579.73
38.45673,435.68,578.82
38.47559,436.36,576.58
38.49659,436.93,579.68
38.51539,434.48,577.90
38.53664,435.78,576.41
38.55561,435.78,575.60
38.57575,438.95,575.16
38.59567,435.98,577.17
38.61585,436.96,574.99
38.63627,434.74,575.23
38.65709,437.60,574.75
38.67686,437.55,574.34
38.69674,435.98,578.41
38.71712,436.41,579.25
38.73600,438.33,580.50
38.75541,438.37,582.00
38.77667,438.49,579.93
38.79613,436.40,580.80
38.81647,435.47,581.28
38.83575,435.36,579.51
38.85586,437.39,578.58
38.87574,434.90,578.00
38.89568,435.41,581.00
38.91541,437.58,578.55
38.93583,434.30,579.00
38.95688,436.71,577.90
38.97623,435.76,575.63
38.99671,435.61,578.97
39.01729,436.22,578.09
39.03695,435.40,578.83
39.05719,436.91,578.61
39.07663,437.98,576.47
39.09587,434.70,574.62
39.11676,437.93,574.32
39.13543,437.79,577.19
39.15563,435.68,576.90
39.17556,436.51,578.36
39.19695,434.38,579.18
39.21644,432.93,578.56
39.23671,431.81,576.59
39.25680,434.71,580.14
39.27596,431.44,578.10
39.29543,428.48,576.63
39.31658,417.00,572.70
39.33709,398.94,571.04
39.35709,374.84,571.11
39.37682,351.63,569.96
39.39558,329.26,570.93
39.41689,315.72,570.67
39.43696,301.71,569.19
39.45615,295.57,568.11
39.47625,291.99,561.59
39.49650,294.17,558.13
39.51617,300.74,551.49
39.53680,308.15,547.45
39.55648,313.13,547.52
39.57521,325.31,543.81
39.59552,334.21,545.62
39.61672,345.15,545.60
39.63653,352.83,549.33
39.65820,363.27,550.15
39.67780,371.38,553.46
39.69638,383.28,556.82
39.71756,387.73,559.93
39.73796,394.84,561.74
39.75809,399.39,564.40
39.77706,402.22,567.09
39.79738,409.27,565.89
39.81753,413.48,565.91
39.83779,416.69,566.16
39.85659,417.80,567.65
39.87649,421.45,568.71
39.89776,425.46,570.36
39.91669,423.72,570.39
39.93685,424.29,570.41
39.95735,429.52,573.66
39.97688,430.78,572.88
39.99662,433.09,572.44
40.01696,442.13,574.68
40.03743,454.59,577.70
40.05704,468.83,583.64
40.07701,484.82,584.75
40.09696,506.71,588.18
40.11653,532.85,588.77
40.13704,556.68,591.72
40.15674,574.10,592.03
40.17760,588.58,593.29
40.19817,587.82,594.21
40.21728,582.94,592.74
40.23679,577.87,589.26
40.25813,566.04,587.32
40.27678,555.47,587.70
40.29812,543.16,584.94
40.31810,533.27,587.46
40.33708,519.50,587.30
40.35633,511.18,591.83
40.37621,502.54,593.30
40.39725,494.41,595.12
40.41818,486.98,594.85
40.43775,479.69,594.57
40.45646,477.53,593.18
40.47681,471.48,593.22
40.49785,465.17,590.29
40.51772,459.97,589.51
40.53707,457.05,589.05
40.55644,452.26,587.74
40.57702,450.59,585.60
40.59821,450.20,585.87
40.61818,448.40,582.43
40.63723,446.75,582.68
40.65644,446.74,583.36
40.67647,444.89,581.86
40.69805,446.87,579.19
40.71832,444.14,579.57
40.73882,445.35,580.84
40.75921,441.01,577.60
40.77864,440.39,578.86
40.79771,443.55,575.99
40.81790,441.54,575.33
40.83804,443.11,575.49
40.85779,440.07,576.06
40.87836,443.25,577.63
40.89890,443.75,575.81
40.91871,440.58,575.77
40.93753,441.67,574.46
40.95811,438.96,574.32
40.97925,440.73,575.44
40.99753,439.18,575.72
41.01882,441.74,573.85
41.03776,441.22,575.49
41.05758,437.57,576.17
41.07875,435.24,577.16
41.09815,439.27,573.27
41.11819,437.75,575.76
41.13882,437.38,577.50
41.15818,434.29,577.75
41.17701,436.58,579.48
41.19761,436.72,580.01
41.21911,434.61,577.95
41.23796,434.64,580.25
41.25853,432.74,576.45
41.27735,434.34,578.77
41.29840,433.60,577.34
41.31832,432.74,576.63
41.33841,434.54,577.06
41.35762,437.68,575.64
41.37872,438.65,577.25
41.39842,436.35,576.16
41.41928,437.81,575.41
41.43819,436.94,575.30
41.45798,441.21,577.16
41.47817,439.48,574.60
41.49728,438.57,574.21
41.51780,436.72,575.05
41.53880,436.36,576.42
41.55792,439.20,572.76
41.57923,436.46,575.63
41.60002,434.97,576.36
41.61905,433.66,573.44
41.64008,435.21,575.48
41.65895,439.21,575.40
41.67831,436.69,575.75
41.69836,439.25,575.24
41.71859,440.86,575.55
41.73891,442.09,579.49
41.75832,439.87,576.59
41.77850,440.75,576.24
41.79947,440.79,579.68
41.81875,440.92,577.75
41.83959,440.20,578.51
41.85821,441.27,578.91
41.87855,436.53,576.32
41.89882,435.90,578.52
41.91829,436.96,575.25
41.94094,435.75,576.73
41.96044,437.51,576.05
41.98069,435.46,578.08
41.99984,436.77,579.25
42.02082,437.80,577.88
42.03953,435.94,577.63
42.06057,435.72,576.99
42.08089,439.06,576.92
42.09993,436.74,578.49
42.12045,438.96,580.31
42.13958,441.04,580.65
42.16063,440.20,578.26
42.18084,438.89,580.66
42.20004,437.65,578.62
42.21994,440.54,578.27
42.23972,438.30,576.92
42.26074,438.01,580.32
42.28021,440.37,580.27
42.29950,439.97,581.39
42.31905,440.34,580.30
42.34043,437.84,578.08
42.35976,438.47,578.80
42.38091,438.55,577.88
42.40022,440.71,577.49
42.42053,437.93,579.66
42.44082,436.47,576.10
42.46110,440.93,577.56
42.47931,437.89,576.10
42.49996,437.11,576.88
42.52108,440.22,576.95
42.54119,437.55,578.36
42.56072,439.22,577.81
42.57955,438.63,576.33
42.60037,439.49,576.99
42.61956,439.25,577.56
42.63942,438.26,578.56
42.65972,437.79,578.23
42.67992,439.70,578.12
42.70105,437.53,577.18
42.72090,439.12,580.50
42.74052,439.18,577.24
42.75935,436.90,578.66
42.77995,436.49,577.14
42.79952,439.33,580.38
42.82024,437.89,577.73
42.84024,436.29,578.38
42.86011,436.94,579.48
42.87981,438.05,577.84
42.90020,438.72,578.35
42.92096,439.47,576.23
42.93955,440.72,577.72
42.96009,439.95,577.94
42.98008,438.46,577.14
42.99999,438.65,578.12
43.02117,436.12,577.68
43.03921,435.88,578.66
43.06061,437.22,576.03
43.08063,438.65,578.72
43.09967,437.08,578.87
43.12096,437.02,577.98
43.14106,438.30,580.26
43.15958,440.50,580.92
43.18118,439.75,579.16
43.19956,439.38,581.58
43.22001,438.25,579.36
43.24089,440.20,581.95
43.26003,439.69,578.80
43.28009,440.33,579.41
43.30100,440.74,577.20
43.32019,441.31,579.63
43.34095,437.89,578.54
43.36044,435.04,579.71
43.37978,437.09,579.65
43.40075,436.55,575.94
43.42011,436.59,577.85
43.43967,435.94,576.05
43.45964,436.06,575.71
43.48042,438.63,576.43
43.50023,435.56,578.30
43.51938,438.75,577.46
43.54028,435.88,577.22
43.55944,439.82,574.17
43.57994,439.16,574.23
43.59927,438.19,574.61
43.61930,440.31,574.89
43.64031,433.79,572.32
43.66065,417.40,572.93
43.68079,398.36,572.72
43.69942,374.02,570.11
43.72034,351.22,566.23
43.74117,334.74,560.71
43.76104,322.84,559.36
43.78099,316.72,553.86
43.80176,312.51,549.70
43.82091,313.67,550.93
43.84033,314.69,548.24
43.86175,317.43,546.48
43.88165,321.08,546.70
43.90050,329.22,550.95
43.92029,337.05,553.06
43.94015,347.61,555.61
43.96137,355.90,556.64
43.98107,363.64,559.03
44.00133,371.85,562.72
44.02064,377.86,564.20
44.04076,386.38,568.16
44.06027,392.22,567.41
44.08036,396.42,570.91
44.10046,400.73,570.30
44.12018,404.68,569.97
44.14133,411.51,572.64
44.16026,413.36,574.10
44.18188,414.73,573.19
44.20097,420.79,575.33
44.22094,422.49,573.79
44.24027,425.52,575.54
44.26187,426.38,577.83
44.28115,428.57,580.00
44.30161,429.65,581.16
44.32032,433.28,579.32
44.34032,434.24,581.54
44.36172,434.11,577.53
44.38202,433.87,581.91
44.40013,434.47,580.99
44.42199,433.85,580.58
44.44195,437.92,580.19
44.46184,436.84,579.79
44.48183,434.08,581.36
44.50025,446.64,581.99
44.52061,469.97,586.97
44.54016,499.79,590.66
44.56136,536.03,595.58
44.58038,564.57,595.61
44.60174,586.07,599.58
44.62110,596.55,599.92
44.64143,595.91,599.27
44.66167,590.11,595.89
44.68003,578.27,594.59
44.70016,566.67,595.26
44.72165,556.52,593.55
44.74103,551.07,597.18
44.76091,541.25,600.75
44.78017,531.58,602.97
44.80091,523.22,601.67
44.82051,511.10,599.49
44.84029,502.44,598.51
44.86107,497.04,595.78
44.88180,486.45,594.06
44.90096,480.70,593.17
44.92073,476.89,594.63
44.94051,471.76,592.03
44.96154,466.17,591.53
44.98110,462.22,590.40
45.00071,455.47,591.13
45.02044,454.31,586.96
45.04181,450.12,586.92
45.06101,449.90,584.23
45.08137,449.29,583.17
45.10251,446.57,583.62
45.12216,443.11,585.70
45.14142,442.09,581.65
45.16101,441.41,582.75
45.18303,440.21,581.55
45.20258,441.85,582.38
45.22314,441.38,583.04
45.24207,437.69,582.61
45.26183,438.04,580.75
45.28121,438.91,579.83
45.30307,439.47,582.35
45.32226,438.42,580.84
45.34349,436.85,582.38
45.36253,436.45,581.85
45.38247,436.24,582.04
45.40320,437.69,582.00
45.42386,436.90,583.14
45.44392,437.94,581.34
45.46285,437.21,580.40
45.48393,435.84,581.19
45.50378,437.49,581.84
45.52325,438.34,580.47
45.54230,436.89,581.94
45.56242,438.62,584.16
45.58241,438.39,583.95
45.60362,436.60,582.02
45.62218,437.85,580.50
45.64219,436.96,580.19
45.66371,437.99,580.06
45.68351,435.08,579.16
45.70279,437.11,581.24
45.72348,439.00,581.22
45.74220,439.51,581.29
45.76249,437.95,581.93
45.78231,436.96,581.50
45.80243,438.17,580.46
45.82370,437.66,581.90
45.84340,435.93,582.00
45.86294,436.27,582.16
45.88260,436.39,581.34
45.90371,436.79,581.84
45.92223,434.77,579.57
45.94475,434.88,582.62
45.96380,436.86,582.29
45.98432,437.28,579.07
46.00363,437.89,582.01
46.02490,438.69,581.84
46.04408,437.50,580.97
46.06388,437.23,581.43
46.08483,437.63,578.97
46.10463,438.08,579.15
46.12430,438.03,581.66
46.14336,434.84,582.04
46.16497,435.97,580.09
46.18389,433.71,583.22
46.20446,435.74,582.99
46.22418,434.10,584.40
46.24356,434.92,582.79
46.26365,434.07,583.51
46.28348,437.40,581.70
46.30359,435.74,584.18
46.32453,438.57,582.66
46.34344,435.00,584.18
46.36388,438.47,583.63
46.38377,435.78,583.69
46.40497,438.42,582.95
46.42475,436.33,583.51
46.44316,437.64,584.44
46.46443,437.81,581.40
46.48355,435.66,580.95
46.50375,435.59,582.88
46.52349,437.53,582.58
46.54392,437.65,585.48
46.56378,436.08,584.01
46.58322,434.53,584.98
46.60430,436.55,583.59
46.62366,437.06,583.72
46.64491,437.00,581.58
46.66470,436.46,582.72
46.68327,435.71,583.23
46.70401,436.12,583.13
46.72449,437.99,582.82
46.74404,436.18,579.52
46.76331,436.85,581.76
46.78498,438.22,580.25
46.80364,438.21,581.40
46.82440,435.90,580.15
46.84349,436.01,582.31
46.86330,435.30,581.15
46.88433,436.31,582.00
46.90419,437.06,582.24
46.92495,435.79,580.05
46.94477,438.99,579.72
46.96514,437.79,578.49
46.98335,435.28,578.39
47.00388,436.75,580.32
47.02443,434.01,578.98
47.04363,433.87,579.57
47.06346,435.84,581.52
47.08449,435.75,578.42
47.10328,437.49,579.52
47.12463,435.57,579.73
47.14523,437.91,579.75
47.16486,435.87,578.00
47.18474,435.80,578.70
47.20591,437.01,579.87
47.22562,436.78,579.24
47.24513,437.27,580.47
47.26569,436.58,577.95
47.28523,435.75,579.61
47.30548,432.53,581.39
47.32539,434.59,579.02
47.34433,434.51,579.03
47.36562,435.77,577.52
47.38477,434.46,578.08
47.40515,434.72,579.97
47.42468,434.98,575.77
47.44585,432.11,575.78
47.46563,432.42,575.91
47.48510,436.70,577.09
47.50563,433.95,576.34
47.52537,436.25,576.46
47.54440,430.92,576.96
47.56465,409.28,576.29
47.58566,387.70,571.25
47.60606,361.89,569.24
47.62453,342.48,567.01
47.64524,323.06,566.71
47.66456,311.79,560.69
47.68587,305.41,555.80
47.70483,300.17,553.46
47.72568,295.90,549.55
47.74471,297.44,546.39
47.76542,302.84,544.23
47.78589,310.81,546.84
47.80448,317.96,545.29
47.82565,324.78,547.80
47.84533,334.57,546.76
47.86464,345.36,549.87
47.88562,354.78,552.35
47.90422,362.19,554.12
47.92562,370.00,555.64
47.94476,379.13,559.85
47.96471,384.06,561.15
47.98465,392.08,565.01
48.00529,396.76,565.61
48.02584,401.36,566.17
48.04425,407.77,571.64
48.06542,408.65,571.26
48.08583,413.00,571.57
48.10546,414.64,575.46
48.12635,416.95,576.71
48.14574,419.67,577.09
48.16718,421.38,574.31
48.18675,422.49,578.10
48.20614,423.10,575.83
48.22550,424.99,576.77
48.24640,425.56,579.38
48.26779,426.28,579.91
48.28876,425.16,579.97
48.30848,422.84,577.99
48.32706,423.93,581.05
48.34769,424.17,579.55
48.36893,428.34,582.89
48.38700,446.84,588.58
48.40719,470.74,597.11
48.42728,498.53,603.07
48.44729,529.29,604.88
48.46779,560.45,604.54
48.48891,585.24,608.38
48.50893,592.49,606.67
48.52777,594.10,601.62
48.54805,587.82,601.46
48.56882,577.31,598.11
48.58823,565.14,595.33
48.60806,553.67,594.08
48.62878,539.33,594.07
48.64850,529.16,594.68
48.66864,517.97,598.19
48.68814,506.32,596.44
48.70837,495.24,596.67
48.72716,487.36,597.13
48.74854,478.64,594.29
48.76824,471.83,592.93
