Program Time [s],data 0,data 1
5.80180,408.92,518.69
5.82118,411.63,519.87
5.84000,408.58,519.32
5.86151,412.04,513.26
5.88095,411.03,513.04
5.90006,407.88,514.89
5.92144,404.00,516.23
5.94082,406.72,519.17
5.96180,409.75,525.36
5.98097,409.22,524.49
6.00035,409.95,524.46
6.02092,410.06,530.21
6.04111,409.30,525.41
6.06181,409.79,528.37
6.07980,415.32,528.36
6.10167,413.95,529.02
6.12187,413.20,524.83
6.14123,411.39,521.73
6.16002,410.37,526.84
6.18136,411.72,530.80
6.20054,411.51,531.10
6.22184,412.78,533.40
6.24204,414.34,536.42
6.26096,411.92,536.37
6.28126,412.97,535.54
6.30181,410.88,540.64
6.32234,407.35,538.39
6.34172,405.50,542.51
6.36175,403.55,545.95
6.38257,403.20,551.65
6.40120,409.16,579.62
6.42347,419.13,632.47
6.44238,433.43,679.09
6.46306,444.14,726.29
6.48473,451.99,750.69
6.50273,456.74,761.94
6.52361,454.01,760.19
6.54357,455.02,755.52
6.56291,454.61,736.83
6.58402,451.17,714.22
6.60287,448.67,688.44
6.62363,444.76,660.35
6.64448,439.34,643.85
6.66477,436.63,633.80
6.68461,435.78,626.48
6.70477,426.66,617.44
6.72474,428.22,610.29
6.74397,424.41,603.87
6.76335,418.75,587.04
6.78394,411.22,562.08
6.80483,404.75,527.13
6.82453,391.03,494.52
6.84556,377.98,458.43
6.86566,364.66,426.26
6.88505,355.65,403.75
6.90458,348.24,382.36
6.92507,348.35,368.25
6.94447,347.51,356.06
6.96557,349.10,355.14
6.98397,354.49,357.09
7.00436,361.95,360.56
7.02524,364.45,363.31
7.04517,374.62,377.17
7.06423,374.74,390.13
7.08392,382.72,405.18
7.10486,384.80,421.65
7.12515,389.41,432.29
7.14459,391.33,441.42
7.16546,391.11,451.94
7.18466,396.28,465.05
7.20478,398.01,475.76
7.22475,400.10,486.74
7.24435,402.76,494.97
7.26381,400.50,499.26
7.28549,402.73,502.17
7.30404,405.73,505.75
7.32412,409.48,508.86
7.34505,408.16,509.65
7.36474,407.65,516.02
7.38462,408.08,519.35
7.40391,407.32,518.19
7.42491,409.56,518.37
7.44516,409.59,522.12
7.46491,408.72,520.84
7.48478,407.23,521.02
7.50452,409.63,523.83
7.52398,409.04,523.68
7.54545,407.61,524.83
7.56439,407.89,523.95
7.58508,411.95,523.80
7.60410,409.12,523.33
7.62529,407.54,524.54
7.64389,404.90,524.16
7.66474,407.28,520.78
7.68493,407.31,523.41
7.70499,407.39,518.47
7.72569,407.41,517.58
7.74384,407.43,518.34
7.76405,409.50,516.76
7.78468,405.43,517.17
7.80684,407.96,515.43
7.82498,410.66,514.75
7.84645,409.25,516.40
7.86680,414.39,514.14
7.88652,416.59,513.55
7.90634,413.04,514.44
7.92657,415.39,517.37
7.94501,418.19,519.82
7.96503,419.44,521.33
7.98526,417.87,521.90
8.00678,420.69,524.66
8.02655,418.73,525.15
8.04547,418.98,525.06
8.06672,418.31,523.97
8.08522,417.90,526.91
8.10575,415.98,525.49
8.12675,415.66,522.65
8.14481,417.83,524.86
8.16581,416.30,520.85
8.18609,418.05,520.49
8.20634,418.18,518.54
8.22656,417.85,516.00
8.24545,415.79,514.07
8.26516,414.76,512.46
8.28572,415.84,512.18
8.30588,418.59,511.65
8.32564,418.19,512.89
8.34679,416.65,513.19
8.36612,420.36,517.27
8.38628,420.92,516.09
8.40686,419.68,520.21
8.42700,419.77,519.14
8.44533,419.05,520.51
8.46505,419.96,522.73
8.48662,418.92,525.73
8.50604,421.54,525.10
8.52536,419.58,523.48
8.54519,422.61,524.39
8.56591,421.71,526.33
8.58541,420.40,525.80
8.60581,420.27,524.04
8.62656,418.14,524.88
8.64536,419.05,525.05
8.66750,417.98,522.64
8.68700,418.56,522.90
8.70602,420.03,518.96
8.72685,420.66,521.86
8.74755,419.20,518.82
8.76642,420.63,524.56
8.78667,417.41,525.19
8.80599,403.95,527.63
8.82623,390.83,524.59
8.84661,367.09,514.86
8.86769,347.74,501.84
8.88679,330.54,490.34
8.90729,315.81,475.59
8.92716,306.19,461.78
8.94614,296.55,453.32
8.96611,296.63,448.06
8.98696,296.65,442.93
9.00681,297.88,445.92
9.02574,305.99,444.83
9.04710,311.37,450.89
9.06777,317.90,457.15
9.08683,326.90,460.75
9.10732,332.41,465.07
9.12772,339.31,469.76
9.14779,349.07,474.86
9.16709,357.46,482.00
9.18777,364.60,485.97
9.20724,372.43,493.94
9.22586,376.27,495.23
9.24609,383.02,499.79
9.26705,388.26,500.39
9.28695,392.07,504.57
9.30683,398.46,508.72
9.32581,401.58,510.88
9.34616,405.24,510.55
9.36598,405.44,513.55
9.38721,407.04,515.92
9.40819,410.85,517.71
9.42717,415.65,519.34
9.44772,416.77,520.00
9.46758,418.23,520.53
9.48841,419.08,519.57
9.50856,416.77,523.96
9.52867,418.75,524.66
9.54868,421.62,522.38
9.56737,421.13,522.65
9.58800,422.84,523.80
9.60674,422.16,526.41
9.62982,422.95,523.04
9.64803,420.67,524.01
9.66789,422.53,527.33
9.68837,428.82,534.39
9.70850,441.12,552.78
9.72904,457.93,578.16
9.74917,482.73,615.90
9.76889,502.01,651.68
9.78843,524.18,678.55
9.80902,543.09,684.47
9.82849,556.21,678.02
9.84883,569.34,664.10
9.86771,574.73,642.46
9.88978,572.45,618.81
9.90802,567.89,594.66
9.92819,555.93,576.91
9.94960,546.70,558.67
9.96848,533.91,541.23
9.98964,524.54,531.24
10.00829,508.55,518.40
10.02848,496.95,512.83
10.04825,486.12,508.98
10.06866,479.19,505.72
10.08818,471.10,501.48
10.10786,461.80,502.70
10.12831,452.26,498.53
10.14936,449.15,502.60
10.16863,441.62,501.47
10.18795,439.09,501.78
10.20938,436.44,505.85
10.22849,432.69,505.71
10.24901,431.79,508.28
10.26979,432.72,507.65
10.28782,429.72,510.21
10.30962,427.30,512.09
10.32965,426.33,513.51
10.34934,424.37,517.55
10.36792,422.79,514.73
10.38881,424.62,520.23
10.40792,425.53,518.91
10.42956,424.02,520.02
10.44980,425.83,523.21
10.46911,423.77,521.28
10.48955,422.89,522.26
10.50878,425.86,522.79
10.52853,422.68,521.66
10.54872,424.24,521.66
10.56926,423.45,521.42
10.58959,424.57,522.64
10.60849,422.79,523.07
10.62926,420.79,524.93
10.64883,420.34,526.57
10.66896,422.55,525.25
10.68858,421.90,524.74
10.70885,419.45,525.52
10.72964,419.96,526.38
10.74944,419.37,525.61
10.76904,422.30,525.98
10.78898,420.70,529.01
10.80968,419.46,528.62
10.82865,420.50,527.80
10.84875,422.53,525.54
10.86889,422.16,527.13
10.88880,422.46,528.21
10.90960,423.63,526.12
10.92896,422.59,525.09
10.94809,424.53,526.85
10.96762,424.37,526.87
10.98820,422.79,525.84
11.00985,419.14,525.02
11.02923,418.20,525.40
11.04882,419.38,524.67
11.07041,419.94,523.22
11.09051,419.00,523.90
11.10874,418.16,523.43
11.12903,416.22,524.65
11.14882,417.11,525.18
11.17011,415.54,524.05
11.18998,415.21,523.45
11.21024,416.96,523.27
11.23136,416.15,522.82
11.25027,414.75,523.70
11.27035,412.76,523.89
11.29113,415.58,524.76
11.31038,414.73,521.82
11.33135,411.52,525.22
11.35005,414.49,524.33
11.37118,412.22,523.54
11.39161,413.45,523.65
11.41066,413.21,524.31
11.43086,411.24,523.92
11.45026,410.91,523.70
11.47120,410.93,524.36
11.49068,412.39,524.99
11.51118,409.10,528.04
11.53154,409.74,527.16
11.55036,411.65,528.64
11.57020,409.16,528.43
11.59053,411.25,527.33
11.61092,410.23,525.25
11.63103,411.02,525.60
11.65046,412.82,524.27
11.67036,413.70,525.07
11.69079,412.19,528.36
11.71119,411.75,524.99
11.73024,410.89,525.80
11.75103,414.09,524.63
11.77161,412.33,523.96
11.79019,413.73,524.13
11.81010,412.44,524.48
11.83007,412.59,525.05
11.85081,411.33,524.66
11.87161,411.43,527.34
11.89173,413.80,524.31
11.91034,413.62,525.41
11.93012,413.20,525.48
11.95122,412.87,522.74
11.97071,412.71,523.77
11.99119,414.03,523.71
12.01083,411.53,525.09
12.03139,414.49,523.92
12.05154,414.87,522.17
12.07166,412.74,523.02
12.09045,413.21,524.65
12.10973,413.51,522.56
12.13121,411.36,523.38
12.15035,411.87,523.22
12.17153,412.32,523.95
12.19041,411.90,523.40
12.21093,412.73,525.30
12.23022,411.29,520.81
12.25045,409.72,525.25
12.27027,411.66,522.39
12.28991,412.47,524.21
12.31151,409.85,520.56
12.33010,409.02,523.99
12.35064,410.74,520.63
12.37020,413.08,522.85
12.38985,410.16,524.45
12.41116,409.29,520.65
12.43034,407.68,520.48
12.44986,408.68,522.37
12.47038,410.73,521.28
12.49026,410.54,525.31
12.51057,408.84,524.09
12.53141,409.07,524.21
12.55014,408.41,524.39
12.57099,407.67,525.67
12.59028,409.47,524.64
12.61062,409.02,525.05
12.62984,409.38,524.31
12.65031,410.38,528.07
12.66980,409.94,527.74
12.69142,410.30,527.16
12.71072,406.93,526.00
12.73042,407.10,526.22
12.75116,405.90,526.12
12.77139,405.95,522.57
12.79082,407.69,523.39
12.81094,406.76,524.59
12.82997,408.40,523.20
12.85166,408.58,523.62
12.87045,409.51,525.02
12.89085,408.08,522.44
12.90966,407.50,524.22
12.92990,404.97,521.06
12.95043,407.38,524.88
12.96972,401.92,523.09
12.99121,388.22,517.45
13.01048,372.09,510.44
13.03089,353.16,499.50
13.05079,336.87,491.16
13.07147,320.11,479.66
13.09101,302.63,474.26
13.11086,292.80,467.20
13.13100,285.27,467.69
13.15143,280.62,465.70
13.17094,283.09,466.64
13.19059,284.25,470.34
13.20993,287.48,470.55
13.23123,294.45,474.44
13.25205,298.53,476.63
13.27175,307.25,483.52
13.29137,313.55,485.34
13.31160,322.56,490.87
13.33269,331.78,493.53
13.35114,340.71,495.33
13.37243,350.07,502.08
13.39253,354.42,503.43
13.41309,359.91,505.78
13.43344,365.21,508.25
13.45364,372.07,508.51
13.47365,374.58,512.10
13.49262,378.46,513.87
13.51413,382.81,512.03
13.53302,384.72,513.32
13.55459,386.76,514.60
13.57466,389.63,516.49
13.59440,391.20,515.64
13.61285,391.77,519.89
13.63284,392.61,519.71
13.65327,393.37,519.31
13.67414,393.82,517.83
13.69341,395.33,518.35
13.71310,396.77,521.53
13.73278,394.43,520.65
13.75286,396.57,519.27
13.77461,395.20,520.80
13.79329,398.86,519.93
13.81427,397.23,520.48
13.83460,399.59,519.92
13.85362,399.08,521.19
13.87397,397.46,522.13
13.89378,399.19,520.47
13.91284,398.46,518.53
13.93412,395.77,519.27
13.95433,398.45,518.06
13.97402,396.93,521.03
13.99321,405.58,526.33
14.01320,420.69,530.28
14.03353,437.13,541.53
14.05398,463.86,550.89
14.07319,487.85,558.72
14.09422,513.89,565.07
14.11416,533.81,570.24
14.13367,547.65,571.25
14.15344,551.68,570.49
14.17279,549.85,566.76
14.19358,541.22,560.78
14.21440,532.61,553.55
14.23315,521.13,550.02
14.25465,510.81,544.24
14.27398,498.12,537.78
14.29253,488.37,534.97
14.31321,475.10,532.17
14.33272,467.70,528.98
14.35304,457.97,524.27
14.37423,451.60,522.68
14.39441,446.27,519.69
14.41366,441.03,519.13
14.43437,433.47,519.01
14.45425,431.91,517.93
14.47294,425.02,519.98
14.49373,424.56,517.24
14.51338,420.82,517.28
14.53419,417.16,518.69
14.55307,415.33,518.40
14.57416,413.85,518.35
14.59338,413.57,515.07
14.61416,410.30,516.57
14.63409,410.45,518.68
14.65376,407.19,517.47
14.67292,410.49,515.10
14.69433,407.34,515.61
14.71342,406.82,516.09
14.73378,406.20,518.42
14.75377,405.72,516.56
14.77320,404.00,517.65
14.79442,403.75,519.51
14.81422,403.71,519.09
14.83253,406.71,516.89
14.85298,405.25,515.29
14.87463,404.51,516.12
14.89366,402.20,519.09
14.91474,401.81,517.40
14.93394,402.52,518.79
14.95306,403.03,518.57
14.97351,403.21,517.40
14.99390,401.52,518.38
15.01310,401.01,516.77
15.03302,401.46,517.16
15.05289,404.55,518.60
15.07319,404.00,519.81
15.09328,404.43,519.70
15.11332,405.26,517.11
15.13432,404.49,517.18
15.15318,403.08,518.96
15.17315,400.20,517.58
15.19339,401.67,519.61
15.21301,400.64,515.89
15.23440,400.81,518.73
15.25337,401.00,518.58
15.27424,401.31,515.32
15.29353,403.67,517.33
15.31300,405.93,517.81
15.33398,403.22,517.49
15.35451,403.95,516.56
15.37338,404.48,516.39
15.39359,403.89,517.06
15.41282,404.71,519.26
15.43439,401.84,519.10
15.45472,401.56,520.37
15.47395,401.87,518.32
15.49417,402.29,520.35
15.51319,402.51,518.90
15.53410,400.98,519.82
15.55383,401.45,517.66
15.57404,403.94,516.69
15.59431,401.34,519.78
15.61378,400.71,520.76
15.63342,403.70,516.42
15.65376,403.79,517.16
15.67291,404.81,517.68
15.69458,405.19,515.46
15.71423,405.94,516.26
15.73374,403.65,515.40
15.75412,404.45,518.63
15.77403,406.15,515.48
15.79321,406.10,516.90
15.81439,404.61,516.52
15.83494,404.88,516.64
15.85555,402.87,516.16
15.87456,402.52,514.67
15.89446,402.15,515.09
15.91389,404.87,517.61
15.93456,403.84,514.93
15.95488,405.48,518.81
15.97373,404.22,519.13
15.99403,406.56,517.75
16.01443,406.23,518.38
16.03373,405.42,517.49
16.05429,406.40,517.49
16.07396,405.14,516.67
16.09408,406.79,517.94
16.11931,407.10,516.86
16.13383,403.65,517.01
16.15400,406.39,516.88
16.17422,404.80,518.21
16.19561,406.40,515.36
16.21462,405.88,515.60
16.23472,409.46,516.81
16.25367,407.45,515.83
16.27495,407.98,516.41
16.29536,409.67,516.92
16.31471,409.48,515.15
16.33511,413.23,515.37
16.35502,411.55,517.26
16.37424,411.75,517.12
16.39372,412.47,516.22
16.41536,409.98,517.45
16.43462,412.68,517.69
16.45369,412.54,519.94
16.47419,408.27,517.47
16.49419,408.87,517.55
16.51418,407.94,520.32
16.53481,409.39,516.59
16.55417,409.06,519.13
16.57541,409.56,518.07
16.59570,410.35,519.55
16.61396,407.59,519.49
16.63376,408.08,518.16
16.65555,408.30,518.57
16.67373,407.01,517.30
16.69520,407.42,516.86
16.71503,405.81,517.55
16.73421,408.55,516.14
16.75342,409.28,518.38
16.77517,407.81,518.44
16.79418,406.98,519.20
16.81557,408.23,515.84
16.83530,410.45,515.03
16.85535,410.27,516.31
16.87510,408.78,517.52
16.89453,408.47,516.75
16.91433,410.59,519.49
16.93483,409.58,518.16
16.95425,408.82,521.45
16.97468,409.84,521.81
16.99466,411.06,521.13
17.01491,408.68,521.12
17.03380,408.42,519.32
17.05391,408.23,517.63
17.07496,410.57,518.22
17.09442,409.91,517.76
17.11568,411.26,516.50
17.13384,409.61,512.19
17.15567,404.85,512.86
17.17509,394.08,509.11
17.19473,373.01,500.88
17.21456,353.69,499.39
17.23539,333.99,497.02
17.25363,315.55,493.75
17.27403,301.41,488.66
17.29410,294.14,484.74
17.31502,287.85,481.22
17.33372,287.09,475.78
17.35412,285.05,474.03
17.37415,289.02,471.01
17.39501,294.27,473.38
17.41458,302.03,470.20
17.43413,307.48,472.41
17.45483,316.18,473.93
17.47488,326.16,477.80
17.49341,332.71,484.22
17.51460,342.10,485.95
17.53509,352.91,489.52
17.55384,359.13,493.36
17.57483,364.43,498.23
17.59567,369.63,498.30
17.61361,377.37,504.19
17.63551,382.24,504.63
17.65506,385.35,504.88
17.67540,388.50,509.08
17.69432,390.12,511.31
17.71514,395.76,510.35
17.73438,394.41,510.33
17.75421,396.12,511.07
17.77511,400.27,513.53
17.79382,401.95,512.35
17.81565,400.57,512.67
17.83503,404.53,515.30
17.85373,404.04,513.03
17.87531,407.91,513.27
17.89432,407.63,514.90
17.91436,405.67,517.25
17.93505,407.36,514.88
17.95395,406.07,516.55
17.97372,408.02,516.87
17.99460,410.37,517.82
18.01445,421.31,528.86
18.03527,438.17,542.75
18.05450,452.59,557.98
18.07531,467.09,570.97
18.09535,486.28,576.41
18.11500,509.08,579.05
18.13493,528.55,577.11
18.15371,546.79,573.76
18.17392,555.41,569.41
18.19481,558.53,563.18
18.21543,555.78,552.90
18.23368,545.29,546.63
18.25562,537.36,537.48
18.27477,526.82,532.47
18.29472,516.78,527.14
18.31520,503.68,526.12
18.33660,495.82,522.82
18.35569,488.62,518.55
18.37621,478.18,519.79
18.39506,470.86,518.27
18.41523,464.23,516.91
18.43599,457.73,517.29
18.45669,452.95,516.37
18.47435,448.22,512.97
18.49520,444.63,515.28
18.51616,440.59,513.89
18.53498,439.16,516.43
18.55625,435.22,516.71
18.57597,431.53,512.95
18.59529,431.23,512.86
18.61651,429.55,516.10
18.63474,430.57,517.06
18.65507,425.61,515.96
18.67510,427.36,520.95
18.69547,424.51,521.40
18.71486,426.53,520.47
18.73653,425.62,518.20
18.75577,423.80,521.27
18.77493,424.37,518.24
18.79586,421.08,518.11
18.81612,420.39,519.69
18.83598,420.12,518.93
18.85565,421.17,521.67
18.87562,421.81,521.54
18.89615,421.27,520.64
18.91525,422.18,520.84
18.93502,418.95,521.01
18.95508,419.41,518.86
18.97635,421.37,520.59
18.99491,420.62,521.59
19.01510,421.38,519.70
19.03496,422.58,521.38
19.05620,421.57,520.22
19.07480,419.24,524.19
19.09608,420.81,521.20
19.11647,420.30,521.98
19.13585,420.07,521.87
19.15604,420.61,523.52
19.17638,420.63,522.10
19.19548,418.50,522.04
19.21636,419.40,524.51
19.23499,421.36,522.64
19.25610,422.12,522.70
19.27623,422.94,524.45
19.29635,423.07,521.74
19.31511,420.88,520.86
19.33635,424.09,522.53
19.35615,422.99,521.40
19.37495,423.29,522.77
19.39543,420.95,519.23
19.41491,422.22,520.30
19.43597,421.15,520.73
19.45496,423.14,520.78
19.47545,421.56,519.19
19.49541,420.75,521.41
19.51639,421.14,521.62
19.53635,423.58,519.60
19.55535,422.97,520.53
19.57527,420.34,518.48
19.59639,423.68,520.14
19.61521,422.31,518.39
19.63624,419.23,518.70
19.65654,420.60,519.26
19.67468,418.99,518.41
19.69642,421.94,521.79
19.71657,424.68,523.39
19.73634,424.69,521.88
19.75676,422.60,521.66
19.77535,424.82,523.33
19.79451,423.70,521.63
19.81486,425.09,523.01
19.83577,423.67,521.93
19.85534,421.43,522.49
19.87546,423.53,520.28
19.89564,422.03,522.35
19.91650,419.28,520.39
19.93675,419.21,522.90
19.95620,421.68,521.66
19.97573,421.98,521.25
19.99594,419.63,523.44
20.01466,422.94,522.95
20.03595,424.05,524.66
20.05451,424.45,523.84
20.07615,424.62,522.56
20.09483,420.48,528.13
20.11641,417.79,530.71
20.13669,413.34,529.88
20.15508,413.69,531.39
20.17634,414.84,528.81
20.19474,411.19,527.65
20.21549,413.75,530.00
20.23625,414.28,527.44
20.25603,414.48,528.16
20.27640,413.47,526.03
20.29525,417.90,525.58
20.31581,416.15,527.79
20.33514,417.42,522.83
20.35610,416.61,522.42
20.37607,417.93,521.16
20.39635,418.27,522.61
20.41549,415.52,521.81
20.43510,419.60,521.67
20.45463,416.71,520.07
20.47627,417.21,519.85
20.49526,417.11,521.72
20.51536,417.00,520.39
20.53514,419.92,517.82
20.55615,420.74,516.95
20.57602,422.56,519.41
20.59479,422.98,518.28
20.61600,419.67,516.35
20.63526,419.31,516.45
20.65571,422.69,516.60
20.67551,420.20,518.20
20.69462,422.20,520.56
20.71507,421.29,517.83
20.73517,421.51,520.09
20.75535,423.02,520.69
20.77643,420.98,521.96
20.79619,421.88,519.67
20.81496,423.48,522.04
20.83568,423.68,518.66
20.85568,421.42,519.46
20.87451,420.21,521.61
20.89544,419.63,522.12
20.91595,420.93,521.33
20.93464,420.15,520.48
20.95510,421.59,522.50
20.97608,423.54,522.65
20.99506,423.62,521.70
21.01654,423.31,523.56
21.03579,423.22,524.15
21.05517,423.65,521.70
21.07483,423.02,523.79
21.09539,425.49,523.59
21.11470,423.94,522.14
21.13507,422.47,524.78
21.15489,422.82,523.33
21.17624,424.45,523.49
21.19490,422.10,525.95
21.21481,422.91,523.24
21.23615,421.37,523.42
21.25597,423.24,523.09
21.27571,420.04,523.95
21.29660,422.21,523.33
21.31738,421.17,525.81
21.33604,424.14,524.52
21.35556,423.47,525.04
21.37648,423.36,523.37
21.39632,423.50,521.50
21.41598,419.52,520.23
21.43702,411.74,521.35
21.45599,397.56,510.39
21.47670,375.32,501.19
21.49727,352.63,489.67
21.51729,333.77,478.12
21.53613,320.40,467.94
21.55699,309.04,465.62
21.57590,305.53,464.97
21.59641,300.40,464.91
21.61615,302.12,463.95
21.63724,308.82,468.82
21.65626,316.72,469.18
21.67650,323.76,474.56
21.69720,331.43,478.64
21.71619,340.14,485.23
21.73644,349.93,490.98
21.75580,356.85,492.22
21.77577,364.29,499.27
21.79637,372.52,501.39
21.81598,379.26,503.46
21.83717,382.70,503.94
21.85557,390.13,509.37
21.87622,392.22,513.14
21.89613,396.77,515.17
21.91599,401.81,518.04
21.93676,404.07,520.94
21.95602,405.21,520.10
21.97623,406.93,519.64
21.99607,407.82,521.57
22.01615,409.24,521.85
22.03578,409.56,522.62
22.05723,411.27,523.14
22.07578,410.67,523.23
22.09602,413.94,526.31
22.11646,415.09,524.39
22.13658,412.74,523.45
22.15759,415.79,525.16
22.17653,414.80,523.98
22.19680,415.67,524.53
22.21584,420.12,521.63
22.23686,418.61,524.28
22.25667,420.13,522.27
22.27717,421.91,523.79
22.29696,421.94,522.11
22.31682,422.05,521.99
22.33575,424.04,522.96
22.35632,422.55,524.30
22.37638,422.12,525.08
22.39741,420.80,525.04
22.41686,420.73,524.84
22.43581,424.72,524.67
22.45597,431.51,534.42
22.47643,447.18,544.36
22.49686,470.97,559.55
22.51669,496.25,569.95
22.53635,520.01,581.26
22.55576,539.27,585.61
22.57580,550.73,586.96
22.59710,549.12,582.35
22.61630,549.68,577.83
22.63631,542.90,574.20
22.65650,534.43,566.12
22.67740,523.59,561.66
22.69566,511.45,556.60
22.71667,499.19,551.25
22.73592,496.75,545.65
22.75720,489.20,542.82
22.77684,484.03,540.46
22.79531,477.11,536.59
22.81573,472.79,536.36
22.83611,464.58,530.79
22.85632,460.87,531.16
22.87640,453.57,528.01
22.89727,450.83,527.01
22.91730,444.77,528.01
22.93650,441.98,524.36
22.95683,438.21,526.94
22.97617,435.07,525.91
22.99631,431.83,522.80
23.01621,430.47,522.83
23.03666,428.63,524.42
23.05705,429.39,523.80
23.07631,429.16,523.63
23.09649,424.07,521.54
23.11560,423.65,521.94
23.13734,423.35,524.28
23.15706,422.03,523.36
23.17730,423.07,522.19
23.19656,420.25,522.81
23.21621,419.97,525.35
23.23650,421.41,523.40
23.25720,421.53,522.40
23.27713,420.00,522.43
23.29629,419.30,522.69
23.31548,418.46,521.59
23.33595,418.47,521.67
23.35753,418.02,521.59
23.37550,418.79,521.03
23.39740,416.05,524.27
23.41669,419.08,523.72
23.43585,418.28,524.05
23.45663,418.69,520.33
23.47720,417.89,523.27
23.49689,421.74,526.31
23.51685,427.38,524.73
23.53622,435.56,527.16
23.55741,433.58,524.51
23.57599,436.48,524.49
23.59696,435.62,522.82
23.61705,433.11,522.59
23.63691,432.02,522.38
23.65692,431.41,521.00
23.67597,431.69,521.60
23.69720,428.93,522.83
23.71620,428.83,522.89
23.73738,427.87,523.58
23.75746,425.31,520.51
23.77701,424.79,521.67
23.79665,424.22,522.19
23.81635,423.54,519.89
23.83709,421.52,521.15
23.85582,422.70,518.60
23.87715,420.67,517.84
23.89742,422.34,519.53
23.91572,417.81,519.63
23.93688,418.65,521.50
23.95739,417.62,521.57
23.97638,416.66,521.13
23.99624,417.26,518.07
24.01624,416.84,518.20
24.03685,413.64,520.72
24.05676,413.85,520.59
24.07625,415.25,520.71
24.09686,413.33,518.62
24.11675,413.98,519.83
24.13537,415.15,521.05
24.15616,414.56,519.00
24.17587,413.83,521.88
24.19725,414.55,520.56
24.21552,415.60,521.17
24.23629,417.45,525.80
24.25687,422.34,528.30
24.27661,424.29,528.90
24.29595,426.48,530.08
24.31632,425.25,530.04
24.33733,425.87,529.83
24.35695,426.20,527.47
24.37613,425.82,529.41
24.39740,422.70,528.86
24.41728,422.31,526.25
24.43639,423.07,528.11
24.45596,420.47,525.72
24.47743,421.71,525.43
24.49643,419.66,524.80
24.51722,418.47,521.47
24.53687,418.73,523.14
24.55755,419.29,519.55
24.57685,416.71,518.46
24.59642,418.56,520.18
24.61670,418.69,519.43
24.63564,418.95,518.33
24.65732,415.75,517.96
24.67570,416.81,517.45
24.69698,414.30,517.23
24.71748,414.86,518.35
24.73729,413.34,518.07
24.75668,414.65,518.37
24.77605,414.20,516.40
24.79551,414.42,519.45
24.81659,410.89,517.25
24.83647,411.46,518.77
24.85580,414.30,518.61
24.87611,413.55,520.25
24.89724,412.40,516.88
24.91587,413.27,516.77
24.93686,413.32,520.73
24.95672,414.33,519.25
24.97674,414.09,518.35
24.99687,414.93,518.81
25.01616,413.27,517.90
25.03709,413.78,518.92
25.05542,413.75,518.36
25.07573,411.17,518.53
25.09587,414.05,519.24
25.11585,410.84,518.55
25.13722,411.69,516.54
25.15585,413.87,516.81
25.17559,413.58,516.32
25.19611,410.65,517.52
25.21556,409.55,517.56
25.23594,412.10,517.97
25.25649,413.05,520.10
25.27603,409.71,517.99
25.29645,412.98,519.15
25.31642,411.90,519.95
25.33636,411.64,519.67
25.35710,409.89,519.78
25.37571,411.93,522.25
25.39633,407.92,518.45
25.41747,409.87,519.74
25.43733,408.05,518.90
25.45585,408.80,520.10
25.47667,407.86,518.54
25.49737,409.64,520.05
25.51538,409.85,521.21
25.53732,410.19,520.38
25.55564,409.69,518.60
25.57662,406.89,520.49
25.59659,406.48,520.07
25.61719,405.87,520.72
25.63728,407.74,519.98
25.65600,409.09,520.70
25.67680,406.82,519.41
25.69719,406.29,517.95
25.71686,409.11,519.39
25.73578,408.54,517.15
25.75720,407.11,518.59
25.77737,408.21,518.33
25.79688,407.16,517.66
25.81535,405.39,514.83
25.83703,405.86,515.03
25.85644,405.67,517.32
25.87690,405.56,514.82
25.89664,403.08,516.78
25.91600,392.42,519.42
25.93712,373.05,519.72
25.95700,354.94,520.02
25.97591,333.57,517.27
25.99567,317.67,510.05
26.01698,299.71,498.26
26.03691,286.12,485.04
26.05602,280.89,476.38
26.07587,276.38,468.85
26.09573,277.61,462.34
26.11580,279.21,456.64
26.13615,286.36,454.89
26.15654,292.70,455.54
26.17602,303.89,457.12
26.19613,314.97,460.61
26.21640,322.03,469.52
26.23634,333.07,475.93
26.25729,340.85,479.30
26.27558,348.49,485.59
26.29651,352.66,490.60
26.31628,360.85,491.88
26.33618,363.34,498.12
26.35550,371.17,500.65
26.37706,377.49,500.90
26.39665,380.86,503.59
26.41571,383.08,504.71
26.43727,386.85,507.01
26.45719,388.62,510.19
26.47624,390.14,510.06
26.49645,393.68,513.39
26.51577,393.88,512.47
26.53639,394.86,512.17
26.55589,395.51,514.91
26.57666,399.95,516.94
26.59554,398.29,518.85
26.61676,399.57,519.89
26.63579,399.28,521.38
26.65682,401.65,521.35
26.67707,400.96,522.68
26.69590,399.24,523.16
26.71544,402.07,523.81
26.73605,401.26,522.78
26.75642,404.33,520.41
26.77657,402.54,522.02
26.79698,402.72,521.88
26.81626,402.80,517.26
26.83735,400.56,518.70
26.85576,403.71,517.92
26.87553,400.65,516.36
26.89730,400.40,518.49
26.91655,407.20,525.61
26.93579,421.54,537.49
26.95672,443.83,546.73
26.97580,468.09,560.39
26.99605,492.12,571.51
27.01536,511.74,577.26
27.03645,527.84,579.79
27.05749,534.03,580.56
27.07555,532.82,574.84
27.09597,529.14,572.37
27.11568,520.84,568.32
27.13705,513.47,561.16
27.15726,503.83,556.78
27.17727,492.57,552.65
27.19707,482.19,547.45
27.21727,472.45,544.25
27.23654,466.20,541.09
27.25714,457.28,537.91
27.27662,447.60,533.95
27.29710,442.06,530.09
27.31606,438.61,532.26
27.33739,441.14,536.59
27.35576,440.55,538.96
27.37559,439.94,539.99
27.39590,435.74,537.17
27.41599,434.43,537.63
27.43670,432.78,536.11
27.45642,428.77,535.49
27.47672,428.18,532.68
27.49595,426.00,529.98
27.51733,419.99,528.32
27.53578,419.50,528.91
27.55590,415.51,527.47
27.57630,413.77,523.02
27.59728,412.15,521.58
27.61697,412.64,519.98
27.63567,410.00,519.34
27.65623,409.19,519.64
27.67595,406.40,521.25
27.69545,409.29,524.49
27.71691,406.95,522.74
27.73541,407.25,521.31
27.75554,405.61,521.48
27.77561,406.15,519.71
27.79526,407.64,519.63
27.81559,406.19,520.30
27.83560,406.13,521.29
27.85692,402.75,518.96
27.87668,403.64,521.67
27.89615,402.50,521.14
27.91549,400.06,518.27
27.93675,400.82,520.71
27.95568,400.66,518.95
27.97614,400.66,521.76
27.99666,400.38,520.50
28.01596,401.19,518.67
28.03567,398.96,521.59
28.05576,401.74,519.91
28.07561,399.86,519.01
28.09707,399.55,520.48
28.11695,399.86,520.77
28.13634,399.05,520.36
28.15618,399.73,519.60
28.17715,399.08,518.19
28.19590,402.81,517.21
28.21618,402.69,517.13
28.23538,402.15,519.81
28.25639,401.42,517.80
28.27637,402.92,517.13
28.29600,400.73,519.18
28.31623,400.67,518.02
28.33668,398.04,517.12
28.35695,398.22,519.60
28.37591,398.00,518.93
28.39680,400.87,522.96
28.41559,399.11,523.82
28.43692,401.95,522.72
28.45598,398.93,525.04
28.47614,399.94,524.53
28.49580,402.43,522.46
28.51586,398.66,521.81
28.53655,399.05,522.12
28.55699,402.37,522.55
28.57599,403.19,520.24
28.59604,401.03,522.21
28.61687,402.12,518.83
28.63577,399.26,518.49
28.65547,398.36,519.64
28.67726,399.21,519.95
28.69739,399.94,519.60
28.71720,399.50,517.27
28.73559,399.02,518.12
28.75671,398.09,516.29
28.77633,397.36,519.48
28.79684,397.75,516.28
28.81599,398.16,516.08
28.83520,400.00,516.44
28.85631,401.53,516.16
28.87598,399.83,514.97
28.89678,400.27,518.22
28.91555,401.63,517.28
28.93723,401.24,518.78
28.95540,400.63,517.10
28.97654,401.31,515.52
28.99674,400.38,517.67
29.01575,399.66,517.66
29.03588,400.07,518.02
29.05591,398.36,517.15
29.07588,399.26,514.72
29.09644,402.68,517.16
29.11628,401.28,516.68
29.13677,400.83,517.25
29.15705,400.86,517.09
29.17718,401.59,516.22
29.19736,400.06,517.23
29.21678,399.90,515.57
29.23579,399.44,516.58
29.25681,401.57,518.08
29.27718,397.83,515.31
29.29605,399.95,516.68
29.31551,399.40,517.15
29.33660,399.97,517.52
29.35621,398.75,514.33
29.37607,400.43,515.02
29.39569,401.94,515.93
29.41578,402.00,514.75
29.43623,400.36,515.70
29.45564,402.33,516.27
29.47609,399.47,518.87
29.49604,400.95,519.22
29.51631,401.53,521.55
29.53789,402.28,519.20
29.55838,400.49,519.26
29.57771,400.63,518.84
29.59708,399.08,518.38
29.61715,400.91,519.67
29.63771,400.93,516.54
29.65671,400.14,518.98
29.67738,403.12,515.68
29.69783,403.91,518.02
29.71716,401.58,517.34
29.73786,402.26,518.66
29.75762,401.99,518.11
29.77818,403.60,519.45
29.79879,403.71,518.45
29.81876,404.50,516.71
29.83885,405.11,516.24
29.85889,403.33,516.46
29.87911,402.87,517.34
29.89746,402.87,515.88
29.91910,405.20,516.29
29.93946,404.20,517.30
29.95903,405.29,516.18
29.97917,406.35,517.12
29.99844,406.78,514.33
30.01851,405.24,514.75
30.03936,406.05,517.39
30.05841,407.37,517.33
30.07973,407.05,517.47
30.09986,404.92,515.88
30.12021,406.50,515.18
30.13899,408.52,515.43
30.16030,407.99,516.16
30.17863,406.02,516.36
30.19994,406.04,515.71
30.21869,407.68,515.95
30.24008,409.82,516.04
30.26016,406.94,519.63
30.28089,408.84,519.00
30.30057,410.73,520.74
30.32107,410.44,520.23
30.33932,411.77,517.58
30.36078,413.17,519.18
30.38069,414.26,519.71
30.40027,413.31,519.32
30.42202,415.08,518.71
30.44129,414.63,522.49
30.46110,415.87,521.43
30.48110,416.66,520.57
30.50178,415.37,519.20
30.52166,414.07,520.17
30.54173,416.24,520.28
30.56158,419.41,518.15
30.58169,418.43,520.06
30.60134,419.77,521.07
30.62121,419.46,518.43
30.64120,414.81,517.03
30.66082,402.76,513.31
30.68191,385.30,512.26
30.70207,363.04,510.33
30.72091,342.11,508.64
30.74141,326.44,509.26
30.76128,308.16,505.36
30.78167,299.16,493.31
30.80189,290.47,486.98
30.82158,288.62,477.27
30.84077,289.98,471.06
30.86157,293.92,464.82
30.88044,297.26,465.36
30.90198,305.30,459.34
30.92150,310.92,459.47
30.94172,320.50,461.01
30.96081,328.65,461.21
30.98096,337.02,464.47
31.00103,346.77,468.39
31.02137,353.64,473.67
31.04207,360.68,476.53
31.06181,368.54,484.32
31.08130,371.76,489.39
31.10219,380.67,493.22
31.12179,383.40,494.82
31.14047,387.55,498.83
31.16142,394.04,501.90
31.18127,395.28,500.75
31.20107,399.72,505.92
31.22149,402.67,504.72
31.24048,407.75,509.31
31.26045,406.73,508.07
31.28090,410.59,512.54
31.30046,413.27,513.69
31.32153,414.57,512.74
31.34126,416.21,515.11
31.36131,417.97,518.08
31.38212,415.74,518.04
31.40086,416.85,518.26
31.42032,418.40,517.00
31.44191,420.99,517.98
31.46071,421.48,519.12
31.48060,421.98,517.88
31.50083,419.62,519.60
31.52140,422.06,523.42
31.54228,423.77,526.39
31.56161,430.07,544.59
31.58086,444.62,565.89
31.60225,461.02,595.30
31.62166,485.87,628.60
31.64214,505.03,655.40
31.66161,526.09,667.82
31.68060,541.27,667.51
31.70051,558.59,652.76
31.72226,564.38,630.52
31.74178,566.67,607.74
31.76141,562.05,584.81
31.78050,558.02,561.48
31.80155,543.93,542.32
31.82066,535.71,528.28
31.84196,524.33,517.42
31.86212,509.94,506.97
31.88122,500.20,499.83
31.90025,489.08,495.64
31.92202,479.84,491.01
31.94189,474.25,491.10
31.96041,465.78,489.07
31.98057,460.61,489.55
32.00110,457.55,490.11
32.02145,454.16,493.96
32.04075,447.55,496.18
32.06197,443.46,498.93
32.08119,441.65,501.60
32.10288,440.59,502.00
32.12286,436.39,506.56
32.14189,433.29,508.40
32.16173,434.70,510.79
32.18221,430.81,511.34
32.20187,429.72,511.09
32.22201,429.11,513.23
32.24168,430.30,515.92
32.26312,431.01,516.87
32.28277,428.86,514.99
32.30289,426.77,516.73
32.32163,426.36,517.32
32.34243,428.08,518.23
32.36197,428.11,518.88
32.38240,427.62,521.19
32.40275,425.60,521.33
32.42347,422.49,521.09
32.44280,421.13,522.19
32.46276,422.11,523.76
32.48248,420.33,521.51
32.50358,420.53,525.17
32.52241,420.59,521.99
32.54301,424.19,524.26
32.56410,424.28,525.48
32.58493,420.82,524.00
32.60495,422.39,524.53
32.62400,420.69,521.78
32.64447,424.43,522.52
32.66460,422.26,522.35
32.68537,423.19,523.13
32.70514,422.46,524.62
32.72448,423.35,524.15
32.74529,423.99,521.57
32.76343,422.29,521.70
32.78388,420.86,522.18
32.80375,421.78,525.04
32.82527,422.43,523.13
32.84533,421.99,523.34
32.86429,419.96,524.23
32.88373,421.81,526.32
32.90427,423.62,525.84
32.92385,421.21,523.87
32.94390,419.45,526.27
32.96530,421.07,524.06
32.98469,422.23,525.47
33.00453,419.94,524.99
33.02361,421.14,524.89
33.04343,417.60,526.04
33.06468,417.76,522.62
33.08481,418.47,525.24
33.10508,417.34,521.44
33.12361,417.18,521.91
33.14515,417.16,523.49
33.16436,417.89,522.10
33.18522,420.74,521.89
33.20379,418.70,523.65
33.22527,417.09,523.38
33.24500,418.81,523.38
33.26445,417.60,524.60
33.28353,418.58,526.14
33.30491,419.20,524.93
33.32499,419.30,522.56
33.34522,417.56,523.50
33.36347,417.88,521.31
33.38357,420.14,521.42
33.40511,417.83,524.07
33.42507,418.25,521.30
33.44420,415.75,522.85
33.46497,418.04,522.38
33.48401,417.00,524.26
33.50356,416.11,521.80
33.52527,417.76,521.04
33.54384,418.27,522.90
33.56484,416.69,521.52
33.58511,419.99,523.65
33.60464,418.74,524.02
33.62432,420.61,524.55
33.64472,420.53,521.76
33.66334,419.87,523.61
33.68345,419.77,523.74
33.70430,421.22,523.69
33.72494,421.19,521.92
33.74383,419.81,523.57
33.76347,421.17,520.93
33.78400,419.06,521.53
33.80335,418.17,520.50
33.82460,417.97,520.12
33.84342,419.12,521.66
33.86506,418.95,523.09
33.88427,419.27,519.92
33.90330,418.58,519.13
33.92458,417.55,522.50
33.94374,415.42,522.65
33.96423,415.87,521.80
33.98457,416.88,520.36
34.00417,418.24,520.27
34.02401,416.79,522.18
34.04425,418.10,519.64
34.06394,417.16,521.07
34.08456,419.02,520.84
34.10622,414.82,521.25
34.12562,414.35,522.36
34.14453,413.81,520.45
34.16629,413.75,519.36
34.18482,413.94,521.27
34.20449,413.59,519.15
34.22549,414.58,520.01
34.24438,413.62,520.24
34.26513,414.57,521.88
34.28541,413.35,520.34
34.30434,413.93,520.23
34.32465,412.90,519.66
34.34460,412.78,521.97
34.36472,410.78,518.70
34.38500,413.29,520.31
34.40661,412.16,522.29
34.42629,411.76,520.56
34.44554,409.08,519.35
34.46652,407.95,520.01
34.48695,408.71,519.62
34.50689,408.22,518.22
34.52605,408.87,518.41
34.54598,408.69,520.29
34.56662,404.09,521.29
34.58708,406.91,518.82
34.60641,403.55,520.88
34.62765,403.29,522.05
34.64749,405.62,519.78
34.66653,405.01,518.98
34.68792,404.46,519.35
34.70645,406.64,521.05
34.72765,405.35,520.12
34.74670,404.29,520.17
34.76800,401.37,519.89
34.78806,402.80,521.68
34.80652,403.54,522.07
34.82709,404.17,520.29
34.84714,402.54,519.61
34.86620,401.61,520.52
34.88676,403.75,520.06
34.90660,404.26,520.64
34.92762,404.13,522.07
34.94683,402.06,520.58
34.96695,403.46,520.48
34.98617,402.22,521.12
35.00751,403.12,521.97
35.02705,404.82,522.63
35.04722,404.05,522.52
35.06619,405.66,523.20
35.08728,403.80,520.57
35.10793,403.84,521.85
35.12733,405.30,522.08
35.14640,401.80,522.55
35.16610,403.95,521.12
35.18678,401.81,520.24
35.20720,400.64,521.59
35.22799,403.40,518.65
35.24710,401.98,519.44
35.26771,404.11,519.15
35.28641,402.64,520.50
35.30744,401.37,519.00
35.32745,402.00,519.48
35.34827,399.23,519.30
35.36746,397.83,518.96
35.38726,397.50,521.22
35.40736,400.66,521.30
35.42657,399.27,520.91
35.44811,397.93,522.83
35.46790,398.42,519.83
35.48717,400.58,518.12
35.50796,399.03,517.53
35.52765,399.18,517.10
35.54702,401.91,519.90
35.56643,396.69,518.08
35.58639,382.48,515.84
35.60691,362.34,516.22
35.62737,337.70,515.71
35.64803,319.80,510.06
35.66767,302.10,506.94
35.68680,290.89,496.84
35.70620,279.15,486.53
35.72653,278.27,479.57
35.74727,276.98,471.90
35.76628,282.83,467.45
35.78672,286.80,468.73
35.80676,296.01,468.61
35.82706,300.87,472.94
35.84722,308.68,475.15
35.86727,315.87,473.75
35.88795,321.16,477.62
35.90714,328.69,477.79
35.92746,337.56,481.69
35.94638,347.46,483.72
35.96783,351.14,487.62
35.98798,358.38,490.96
36.00785,364.85,497.39
36.02725,370.46,499.64
36.04811,371.99,501.32
36.06741,375.60,502.05
36.08715,381.69,507.03
36.10755,381.35,507.93
36.12632,384.86,507.95
36.14712,389.27,509.08
36.16724,391.01,510.20
36.18763,390.37,512.79
36.20732,391.60,516.65
36.22728,394.20,516.23
36.24800,393.81,515.94
36.26737,394.93,518.28
36.28725,394.45,519.78
36.30640,396.08,521.97
36.32696,396.21,522.39
36.34817,397.08,523.02
36.36676,398.74,525.48
36.38707,401.20,526.22
36.40786,401.11,523.13
36.42741,402.53,522.55
36.44702,402.43,521.64
36.46689,403.14,523.54
36.48761,403.57,519.59
36.50693,404.48,518.99
36.52617,406.11,520.35
36.54809,402.70,521.12
36.56788,410.72,526.52
36.58751,422.97,535.34
36.60636,442.99,547.41
36.62779,468.45,558.73
36.64745,493.56,567.30
36.66741,516.86,577.83
36.68719,535.38,581.89
36.70717,541.98,584.03
36.72729,540.76,578.82
36.74865,534.51,570.93
36.76800,524.80,568.26
36.78766,514.50,558.22
36.80871,503.03,552.95
36.82903,495.38,545.45
36.84874,482.30,541.56
36.86901,475.04,541.39
36.88722,473.22,538.00
36.90883,466.51,540.19
36.92906,462.42,537.49
36.94718,457.64,537.45
36.96740,450.84,535.84
36.98787,444.27,534.39
37.00898,442.35,531.87
37.02818,435.93,531.76
37.04911,434.42,527.40
37.06824,428.78,526.87
37.08809,425.05,526.71
37.10870,422.83,525.71
37.12787,420.32,526.46
37.14761,416.50,522.66
37.16720,415.15,524.30
37.18786,412.61,524.19
37.20851,409.73,523.62
37.22758,411.00,521.48
37.24875,408.61,521.95
37.26815,406.99,521.60
37.28797,405.26,519.99
37.30718,405.19,521.48
37.32853,405.39,521.81
37.34751,406.76,521.33
37.36835,403.97,518.62
37.38826,407.96,520.69
37.40896,405.33,519.19
37.42843,404.11,520.04
37.44890,406.11,518.09
37.46718,403.93,518.86
37.48913,401.82,518.08
37.50798,398.95,519.76
37.52837,401.72,519.10
37.54791,399.46,518.75
37.56885,400.56,521.30
37.58808,402.39,521.46
37.60718,399.64,518.12
37.62849,400.73,522.18
37.64754,401.67,522.24
37.66735,400.96,519.48
37.68776,399.88,522.17
37.70718,400.53,522.99
37.72894,404.16,522.54
37.74869,402.92,521.24
37.76837,404.39,521.89
37.78896,404.37,524.56
37.80801,404.83,525.47
37.82870,406.02,529.24
37.84867,403.32,531.89
37.86792,402.79,529.64
37.88894,406.03,528.31
37.90869,404.13,530.51
37.92896,406.35,528.20
37.94916,402.87,527.76
37.96834,404.32,528.92
37.98816,402.08,525.24
38.00879,401.47,525.66
38.02756,403.97,522.67
38.04910,405.23,522.09
38.06773,404.30,521.86
38.08728,405.16,521.12
38.10833,404.01,520.83
38.12868,405.60,519.79
38.14820,405.28,520.16
38.16711,404.64,521.32
38.18846,404.19,520.24
38.20766,405.80,519.53
38.22739,406.04,519.99
38.24837,405.01,519.20
38.26743,407.50,521.88
38.28806,405.61,521.11
38.30768,407.35,519.31
38.32778,406.61,522.36
38.34849,403.10,521.66
38.36903,405.37,521.16
38.38864,402.54,518.58
38.40802,405.05,518.31
38.42772,405.68,522.30
38.44733,403.64,519.74
38.46757,404.53,521.59
38.48803,403.28,519.94
38.50740,402.31,518.19
38.52877,402.90,520.55
38.54885,403.57,517.49
38.56711,403.22,520.70
38.58701,404.93,520.47
38.60728,401.68,519.77
38.62800,403.80,521.81
38.64725,405.11,522.05
38.66714,404.35,519.03
38.68889,407.67,519.42
38.70743,405.31,520.68
38.72803,404.84,520.48
38.74699,406.05,519.51
38.76834,407.72,522.05
38.78700,406.49,522.80
38.80777,405.99,521.63
38.82894,406.84,521.30
38.84865,404.93,519.30
38.86896,405.28,521.03
38.88819,404.05,520.35
38.90845,407.05,521.54
38.92762,404.52,519.64
38.94719,404.86,521.07
38.96744,404.75,518.67
38.98855,406.90,517.99
39.00821,406.33,519.15
39.02787,405.91,521.17
39.04807,406.84,521.21
39.06856,404.54,520.75
39.08732,406.81,518.24
39.10727,404.15,520.57
39.12899,406.97,520.21
39.14730,402.90,522.04
39.16899,405.82,520.60
39.18774,404.46,521.67
39.20890,403.64,519.12
39.22771,405.32,522.91
39.24725,407.32,523.03
39.26917,405.24,522.82
39.28871,407.08,523.54
39.30797,405.11,522.11
39.32886,408.70,524.20
39.34800,405.27,523.16
39.36763,407.90,523.07
39.38786,406.21,524.88
39.40716,408.69,522.27
39.42848,406.67,524.62
39.44894,406.71,524.95
39.46806,407.21,522.14
39.48786,407.68,523.81
39.50760,406.92,521.89
39.52754,407.11,521.71
39.54868,406.06,521.28
39.56907,410.68,521.50
39.58755,410.67,520.73
39.60789,409.96,519.85
39.62795,406.18,520.45
39.64935,405.91,520.95
39.66857,406.14,519.58
39.68746,408.45,519.32
39.70741,408.43,520.98
39.72724,407.90,521.09
39.74833,408.82,520.53
39.76839,407.91,520.19
39.78873,406.81,516.43
39.80730,410.50,516.84
39.82796,407.98,516.73
39.84820,410.52,517.38
39.86738,409.06,514.97
39.88784,407.77,516.39
39.90864,409.90,515.83
39.92817,404.81,515.75
39.94867,398.12,517.83
39.96778,383.04,515.41
39.98861,365.68,516.54
40.00922,342.99,515.32
40.02811,324.23,513.46
40.04708,308.35,506.80
40.06876,294.47,498.92
40.08801,286.97,487.31
40.10871,283.13,480.01
40.12853,281.77,470.35
40.14732,281.15,465.49
40.16889,286.08,464.16
40.18879,291.42,467.83
40.20790,299.76,468.88
40.22716,307.67,469.62
40.24735,315.91,472.53
40.26848,322.91,478.86
40.28877,331.20,479.48
40.30908,341.47,485.49
40.32737,347.75,489.94
40.34716,356.88,493.35
40.36805,359.86,496.69
40.38838,369.26,500.90
40.40833,373.96,505.75
40.42717,378.86,505.64
40.44873,383.17,510.27
40.46740,386.77,508.44
40.48729,389.13,509.21
40.50834,395.41,513.38
40.52812,397.76,515.49
40.54715,399.52,515.86
40.56847,398.98,518.88
40.58736,401.64,519.73
40.60901,401.85,520.85
40.62855,402.64,522.06
40.64848,406.55,520.43
40.66901,407.30,523.17
40.68867,409.55,522.86
40.70966,408.37,523.62
40.72855,411.24,522.52
40.74924,411.08,524.74
40.76935,410.90,521.88
40.78938,411.96,521.27
40.80816,412.94,522.44
40.82905,416.08,521.39
40.84894,413.13,521.98
40.86999,416.67,523.51
40.88954,423.03,527.04
40.90945,438.27,539.79
40.92908,460.78,553.07
40.94909,483.81,565.95
40.96973,512.95,569.98
40.98842,536.74,576.36
41.01006,554.68,579.69
41.02946,562.26,578.98
41.04810,561.99,577.64
41.06986,559.05,572.66
41.08982,548.41,563.70
41.10990,537.58,559.34
41.12912,525.39,555.17
41.14929,513.92,551.96
41.16820,507.20,546.12
41.18958,498.32,541.93
41.20971,495.36,540.12
41.22830,487.86,538.39
41.24927,482.35,536.65
41.27115,472.54,534.78
41.29025,467.96,530.62
41.31052,462.66,530.68
41.32923,457.27,529.39
41.35025,452.01,528.68
41.36996,448.21,523.93
41.38900,443.43,526.77
41.41072,442.40,526.25
41.42943,439.11,524.75
41.44967,438.65,521.24
41.47026,436.07,524.33
41.48942,435.48,521.97
41.50910,434.69,519.62
41.52883,432.40,520.44
41.54911,430.53,521.17
41.57139,429.06,520.10
41.59094,429.25,521.97
41.61026,428.63,520.71
41.63029,427.29,520.42
41.65192,424.55,520.72
41.67135,425.86,522.40
41.69077,425.98,521.76
41.71133,423.88,522.00
41.73186,424.48,526.04
41.75024,424.41,527.01
41.77052,422.75,526.24
41.79199,425.35,528.64
41.81089,425.74,529.30
41.83056,425.23,528.26
41.85073,425.22,530.13
41.87059,424.21,529.83
41.89205,425.74,531.39
41.91093,423.68,532.48
41.93180,426.81,531.98
41.95095,426.65,531.53
41.97047,423.51,529.64
41.99180,423.50,528.73
42.01180,423.95,529.73
42.03202,423.91,526.03
42.05183,425.19,524.06
42.07184,424.08,524.64
42.09173,425.31,525.08
42.11057,423.28,525.89
42.13164,422.00,523.16
42.15033,422.97,521.84
42.17027,423.57,524.61
42.19027,423.40,522.05
42.21001,424.20,521.55
42.23041,425.37,523.50
42.25004,424.76,523.64
42.27050,425.35,522.89
42.29165,422.04,521.08
42.31016,420.87,519.64
42.33201,423.40,519.93
42.35065,421.72,520.20
42.37046,419.81,523.33
42.39019,420.43,521.28
42.41154,423.44,523.02
42.43168,421.09,523.21
42.45057,419.89,524.78
42.47143,422.43,523.82
42.49066,423.20,525.02
42.51073,423.94,522.25
42.53020,426.63,523.78
42.55079,425.64,524.26
42.57108,425.15,525.71
42.59090,423.22,523.58
42.61169,424.48,522.69
42.63202,421.97,524.88
42.65150,421.68,520.84
42.67142,419.92,520.82
42.69148,422.39,520.70
42.71025,421.76,523.95
42.73192,424.23,519.99
42.75148,421.74,519.79
42.77125,425.47,520.86
42.79046,423.82,522.26
42.81059,423.59,521.96
42.83079,421.17,520.56
42.85080,422.67,522.98
42.87038,424.38,527.95
42.89128,422.85,534.24
42.91117,429.18,554.60
42.93167,431.41,578.64
42.95157,433.50,595.22
42.97108,432.75,596.72
42.99032,433.98,595.71
43.01106,430.65,592.28
43.03168,430.26,591.07
43.05075,429.96,596.69
43.07051,429.87,607.24
43.09038,427.27,612.56
43.11045,428.58,615.58
43.12983,430.00,609.73
43.15219,429.88,596.17
43.17106,428.91,581.80
43.19121,427.41,562.44
43.21050,424.47,542.43
43.23130,423.46,526.68
43.25163,423.01,510.73
43.27188,420.79,501.32
43.29019,415.70,488.85
43.31095,413.55,482.66
43.33184,415.90,479.55
43.35093,415.04,478.07
43.37003,414.35,475.92
43.39022,414.06,477.32
43.41011,415.33,478.69
43.43112,417.21,482.51
43.45164,423.42,493.13
43.47081,438.17,506.90
43.49050,455.37,520.93
43.51044,472.97,526.31
43.53089,478.62,529.16
43.55070,476.30,529.65
43.57189,474.57,529.82
43.59147,474.10,530.31
43.61047,469.40,527.06
43.63194,462.95,525.68
43.65113,458.85,527.29
43.67046,457.67,527.63
43.68985,462.01,525.26
43.71098,459.27,525.18
43.73000,458.43,526.98
