Program Time [s],data 0,data 1
26.35283,450.85,523.84
26.37426,446.63,523.78
26.39257,447.31,526.05
26.41285,446.79,523.67
26.43255,445.55,523.17
26.45251,447.03,524.83
26.47342,445.88,520.58
26.49308,441.20,521.81
26.51416,442.70,519.15
26.53354,443.20,520.89
26.55328,440.29,519.34
26.57427,441.99,520.57
26.59381,441.80,520.71
26.61408,443.59,523.68
26.63400,440.78,524.82
26.65310,442.10,524.28
26.67322,437.97,527.92
26.69210,438.89,526.92
26.71257,439.99,531.17
26.73367,437.47,533.22
26.75390,435.77,532.23
26.77399,435.92,534.20
26.79274,437.70,533.03
26.81348,438.17,533.04
26.83429,437.12,530.22
26.85342,435.84,528.82
26.87332,439.80,529.39
26.89466,439.38,528.10
26.91434,436.32,523.11
26.93481,435.52,524.28
26.95531,438.42,524.72
26.97469,437.06,521.83
26.99588,436.22,521.78
27.01564,434.99,520.66
27.03480,434.64,520.07
27.05552,436.50,522.54
27.07421,437.12,521.07
27.09576,437.52,523.31
27.11464,437.35,521.13
27.13451,437.69,523.22
27.15591,437.15,524.90
27.17618,439.49,526.45
27.19580,440.54,530.03
27.21570,438.70,531.43
27.23597,438.70,530.89
27.25559,438.59,530.86
27.27622,438.67,530.95
27.29589,436.71,530.57
27.31556,436.17,530.87
27.33498,438.85,526.23
27.35599,437.82,528.40
27.37516,438.24,524.16
27.39535,436.59,525.17
27.41574,438.22,525.98
27.43484,437.58,526.08
27.45448,439.81,527.90
27.47525,435.34,526.05
27.49496,423.54,519.23
27.51429,404.78,516.84
27.53448,385.77,509.76
27.55439,368.44,499.08
27.57423,350.02,490.20
27.59564,333.15,480.65
27.61535,321.90,474.09
27.63600,314.07,468.01
27.65519,312.02,465.23
27.67470,310.49,464.86
27.69524,313.19,463.92
27.71446,321.17,466.43
27.73423,325.83,470.98
27.75525,329.57,471.94
27.77485,338.34,473.94
27.79508,350.42,477.87
27.81505,355.76,486.42
27.83535,366.51,491.85
27.85435,372.59,493.13
27.87574,381.42,496.45
27.89451,389.03,500.73
27.91483,392.54,504.92
27.93538,398.57,510.08
27.95505,404.74,513.62
27.97488,405.90,515.03
27.99503,409.37,519.91
28.01474,415.58,520.83
28.03546,419.01,518.70
28.05549,420.25,521.60
28.07493,423.09,518.30
28.09537,423.47,519.66
28.11429,425.98,521.31
28.13512,427.73,519.89
28.15440,430.64,520.66
28.17462,430.43,519.60
28.19474,433.22,519.81
28.21452,431.85,520.52
28.23479,433.78,520.03
28.25561,434.72,521.85
28.27519,434.56,521.51
28.29563,437.80,519.84
28.31465,436.79,520.30
28.33473,437.17,522.71
28.35494,437.25,525.14
28.37525,433.87,525.07
28.39465,432.76,524.78
28.41600,431.65,522.47
28.43448,431.45,522.21
28.45596,434.38,522.04
28.47576,438.94,524.87
28.49568,431.67,528.08
28.51592,458.52,540.04
28.53503,483.68,552.35
28.55453,515.90,567.76
28.57457,546.15,572.23
28.59496,570.47,576.47
28.61575,589.25,577.94
28.63433,598.23,578.50
28.65510,599.70,571.74
28.67549,595.42,572.07
28.69499,582.66,566.78
28.71506,570.55,562.53
28.73510,559.58,552.75
28.75494,547.46,547.36
28.77573,534.59,542.29
28.79704,521.71,538.82
28.81539,509.64,535.23
28.83657,502.27,534.48
28.85643,495.17,529.79
28.87620,487.58,529.57
28.89686,477.87,524.51
28.91667,470.10,526.88
28.93734,466.51,521.09
28.95687,463.38,522.36
28.97705,457.70,520.86
28.99758,452.51,522.06
29.01884,447.72,520.75
29.03846,444.17,517.91
29.05824,441.72,516.63
29.07801,442.08,519.37
29.09825,437.28,519.35
29.11730,434.55,515.96
29.13793,436.36,517.18
29.15893,431.33,516.00
29.17972,431.45,517.35
29.19934,430.81,520.66
29.22055,428.78,517.98
29.24074,425.78,517.86
29.25987,427.43,519.34
29.27999,423.01,518.96
29.29999,421.92,520.61
29.32022,423.58,521.33
29.34018,424.30,519.93
29.35926,422.04,522.89
29.38067,422.89,520.71
29.39920,425.16,521.12
29.41940,421.02,518.59
29.44036,421.11,517.53
29.46101,422.90,518.44
29.48054,420.21,519.79
29.50081,420.76,517.86
29.51912,422.13,520.37
29.53935,421.25,520.36
29.55981,419.00,517.83
29.57939,419.62,520.68
29.60060,420.33,520.16
29.61984,417.72,521.03
29.64004,421.07,521.17
29.65984,419.64,523.31
29.67985,419.54,521.77
29.69966,419.82,521.78
29.71925,419.84,521.53
29.73963,418.93,523.25
29.76077,421.05,522.20
29.78076,418.14,521.69
29.80008,419.07,524.97
29.82046,420.89,520.73
29.84075,421.08,521.43
29.86021,417.14,522.57
29.87994,418.11,522.29
29.90020,417.17,521.65
29.91975,419.33,522.45
29.94013,417.75,523.03
29.95987,420.50,521.80
29.98018,417.87,522.83
29.99993,419.78,522.50
30.01946,420.90,521.74
30.03948,419.24,521.79
30.06001,420.01,520.19
30.08069,423.21,521.42
30.10067,420.73,519.78
30.11914,421.72,519.22
30.14087,418.65,518.90
30.15913,419.42,519.01
30.18098,416.66,518.51
30.19918,420.64,520.47
30.22093,418.41,522.22
30.23989,417.38,520.25
30.26089,420.01,520.45
30.28109,421.73,523.08
30.30024,420.13,525.89
30.31927,422.18,524.19
30.33946,420.56,523.69
30.36081,421.85,522.36
30.38012,421.01,523.89
30.40042,418.67,523.31
30.42066,415.80,524.38
30.44085,416.51,524.05
30.45946,416.03,527.80
30.47986,416.38,527.59
30.50006,418.30,528.08
30.52057,416.65,531.20
30.53939,419.42,530.07
30.55919,420.77,531.39
30.58000,421.20,529.74
30.59916,421.05,532.14
30.62045,419.46,532.21
30.63990,417.86,529.52
30.66061,419.34,528.60
30.68050,421.12,529.11
30.69941,418.34,526.80
30.71969,418.39,526.11
30.73933,415.68,523.42
30.76061,420.23,524.64
30.78097,418.46,523.30
30.79941,419.69,525.99
30.82064,418.93,525.62
30.83914,419.70,524.30
30.86056,417.04,524.26
30.88072,417.90,524.64
30.90038,417.52,525.55
30.92007,415.75,526.77
30.93988,415.98,527.95
30.96072,419.04,525.09
30.97960,415.95,523.30
31.00073,418.55,526.60
31.02013,416.68,523.36
31.03982,418.67,523.84
31.06074,418.48,523.68
31.08093,417.68,523.33
31.10045,415.07,522.78
31.12073,414.50,523.88
31.14043,415.17,525.61
31.16066,418.30,522.22
31.18054,416.56,521.92
31.20141,418.39,522.12
31.22029,418.22,522.24
31.24133,415.83,522.52
31.26168,417.95,522.52
31.28175,416.87,519.80
31.30144,414.28,519.85
31.32189,414.62,516.81
31.34136,417.86,517.35
31.36237,414.69,515.36
31.38250,416.84,517.43
31.40215,416.12,516.87
31.42103,415.84,516.50
31.44200,412.57,513.88
31.46234,412.66,510.83
31.48158,411.66,511.69
31.50252,412.57,512.29
31.52095,412.61,508.67
31.54349,413.29,512.32
31.56399,412.48,511.62
31.58388,413.72,510.09
31.60234,415.23,511.29
31.62298,408.42,514.41
31.64382,397.59,520.05
31.66341,379.04,520.71
31.68271,360.93,516.18
31.70322,342.71,509.54
31.72358,328.00,501.59
31.74341,314.21,495.58
31.76290,301.97,485.35
31.78218,292.96,479.45
31.80373,289.73,472.79
31.82370,287.62,469.64
31.84360,290.14,465.13
31.86295,292.97,460.87
31.88339,296.12,457.07
31.90227,304.93,456.95
31.92233,314.24,456.50
31.94316,323.14,458.28
31.96299,328.47,460.33
31.98253,338.18,464.03
32.00306,348.72,469.03
32.02330,357.33,474.82
32.04300,361.70,479.07
32.06282,368.57,481.81
32.08297,378.63,486.51
32.10314,383.17,491.72
32.12252,385.89,491.72
32.14308,392.55,496.62
32.16304,394.12,498.30
32.18288,399.04,498.69
32.20248,401.14,503.14
32.22278,403.20,507.16
32.24287,409.72,506.61
32.26206,409.83,508.71
32.28293,413.30,508.96
32.30390,410.26,507.02
32.32345,413.49,512.16
32.34209,415.49,514.14
32.36315,412.62,513.35
32.38241,413.38,517.16
32.40318,415.11,515.70
32.42370,416.95,517.05
32.44242,416.60,515.03
32.46260,418.42,516.54
32.48290,418.46,520.45
32.50352,432.06,527.27
32.52384,451.67,539.47
32.54409,474.05,556.49
32.56215,499.72,571.73
32.58361,526.24,583.46
32.60359,553.26,587.75
32.62333,569.84,583.69
32.64390,578.48,578.13
32.66355,581.13,573.46
32.68272,575.37,565.04
32.70373,565.48,558.78
32.72322,554.51,555.32
32.74224,541.77,546.04
32.76349,527.20,543.66
32.78359,518.13,536.91
32.80380,506.01,532.80
32.82228,496.45,528.31
32.84367,484.47,525.56
32.86247,479.91,523.15
32.88311,467.17,523.45
32.90264,463.13,523.25
32.92228,454.83,520.16
32.94244,449.66,519.14
32.96349,447.66,519.38
32.98391,443.78,521.34
33.00326,438.39,520.14
33.02331,437.06,519.16
33.04296,436.58,519.59
33.06355,432.99,523.44
33.08390,434.41,524.06
33.10328,433.89,524.46
33.12358,431.22,523.05
33.14231,425.58,521.88
33.16275,427.89,524.24
33.18320,426.89,519.55
33.20368,425.11,522.63
33.22335,423.67,521.87
33.24245,421.83,522.83
33.26323,419.78,519.33
33.28370,422.48,518.51
33.30364,422.78,520.23
33.32282,419.63,518.99
33.34345,420.46,518.24
33.36413,420.73,521.05
33.38385,423.73,519.59
33.40239,423.96,519.93
33.42405,422.33,520.59
33.44420,422.52,518.38
33.46308,419.59,519.54
33.48331,422.54,520.56
33.50369,421.62,521.70
33.52264,418.39,518.58
33.54402,420.88,515.54
33.56315,421.71,515.70
33.58433,421.84,516.32
33.60433,420.16,513.92
33.62461,421.26,514.66
33.64334,424.25,518.45
33.66388,423.57,517.68
33.68482,424.42,515.67
33.70437,423.77,516.14
33.72415,425.19,516.59
33.74444,425.53,517.45
33.76342,425.63,513.99
33.78465,427.64,514.66
33.80307,426.84,514.77
33.82297,425.63,515.81
33.84463,426.13,515.12
33.86299,426.17,517.11
33.88383,424.72,513.73
33.90337,425.78,513.27
33.92416,426.18,512.87
33.94352,425.59,512.94
33.96310,424.26,514.92
33.98354,425.71,513.28
34.00302,424.11,514.91
34.02377,425.01,516.40
34.04450,428.42,517.80
34.06434,426.35,517.39
34.08538,426.87,516.62
34.10480,428.43,517.83
34.12417,430.88,519.20
34.14401,427.06,517.26
34.16595,426.48,518.52
34.18420,427.60,515.92
34.20507,427.24,518.45
34.22572,425.52,518.65
34.24549,430.18,520.21
34.26408,428.67,518.87
34.28403,428.26,521.67
34.30483,427.56,521.19
34.32521,428.71,520.82
34.34400,426.80,524.13
34.36400,425.41,521.82
34.38589,426.20,524.14
34.40461,424.92,522.95
34.42513,426.44,521.32
34.44464,427.48,519.53
34.46469,426.21,520.63
34.48508,425.78,521.09
34.50555,425.28,521.65
34.52510,425.61,520.30
34.54514,427.23,522.32
34.56484,429.25,522.63
34.58568,425.91,522.43
34.60556,427.87,520.97
34.62518,429.73,522.21
34.64521,427.31,523.27
34.66427,426.19,524.29
34.68570,429.85,521.90
34.70435,429.85,522.21
34.72453,429.63,522.39
34.74504,429.53,524.52
34.76488,430.04,523.80
34.78572,428.98,524.08
34.80436,428.23,524.66
34.82545,430.25,521.14
34.84555,429.42,522.73
34.86484,429.86,523.31
34.88408,428.57,523.23
34.90579,430.40,523.53
34.92484,427.96,520.82
34.94427,431.33,519.94
34.96471,431.09,519.69
34.98508,431.90,520.07
35.00547,431.00,519.08
35.02501,429.74,522.09
35.04425,432.50,521.88
35.06491,430.57,521.66
35.08598,430.65,522.21
35.10592,430.16,518.55
35.12455,433.28,520.84
35.14480,425.60,518.09
35.16532,428.27,516.40
35.18572,429.59,519.06
35.20588,428.31,519.32
35.22457,433.03,520.37
35.24464,433.09,522.15
35.26431,432.76,521.99
35.28417,433.33,521.83
35.30453,432.43,521.56
35.32551,434.67,520.40
35.34416,431.96,518.75
35.36486,432.40,519.15
35.38573,432.30,521.01
35.40445,431.17,521.17
35.42479,429.90,522.25
35.44540,432.06,521.98
35.46590,429.06,519.94
35.48424,427.75,521.05
35.50606,428.61,521.86
35.52469,428.80,523.50
35.54403,431.63,521.11
35.56589,430.17,521.91
35.58592,431.43,520.66
35.60579,434.27,520.39
35.62494,432.94,521.73
35.64517,432.45,518.93
35.66581,430.65,520.96
35.68454,429.59,519.54
35.70500,432.00,517.77
35.72432,432.78,518.57
35.74524,424.47,520.93
35.76415,405.13,517.26
35.78559,382.74,511.73
35.80494,357.22,511.95
35.82502,336.13,505.46
35.84587,317.83,496.20
35.86498,304.49,487.32
35.88515,296.69,479.30
35.90533,294.93,472.98
35.92536,295.26,470.67
35.94597,297.88,468.18
35.96560,305.24,469.54
35.98401,311.60,469.47
36.00541,320.55,470.86
36.02566,329.75,471.98
36.04522,338.09,474.68
36.06402,346.23,479.88
36.08458,354.41,481.60
36.10540,365.35,488.35
36.12462,370.61,490.32
36.14425,377.41,494.69
36.16597,385.21,497.34
36.18551,390.79,498.22
36.20437,396.91,504.15
36.22478,401.69,504.74
36.24583,406.92,506.99
36.26575,412.72,512.04
36.28495,413.67,515.62
36.30548,416.01,514.14
36.32514,418.48,515.87
36.34520,419.02,515.61
36.36462,421.86,517.52
36.38514,424.55,517.36
36.40487,426.97,519.83
36.42509,427.73,521.48
36.44448,430.18,521.66
36.46474,427.05,522.76
36.48587,429.96,523.34
36.50507,436.75,529.69
36.52464,455.50,542.99
36.54566,479.15,553.91
36.56391,508.09,564.50
36.58581,535.55,570.19
36.60525,561.93,580.28
36.62406,585.74,584.38
36.64433,602.55,584.89
36.66423,607.51,577.26
36.68413,603.07,572.33
36.70421,590.44,564.66
36.72479,581.27,556.01
36.74445,566.08,547.89
36.76436,554.55,543.42
36.78497,542.78,540.17
36.80442,528.57,533.61
36.82521,517.01,530.59
36.84485,504.77,527.70
36.86533,495.04,523.56
36.88483,488.21,525.00
36.90482,483.39,521.47
36.92509,474.43,523.57
36.94493,470.28,520.71
36.96473,466.40,520.75
36.98446,462.35,521.06
37.00601,455.99,520.49
37.02498,455.40,517.55
37.04406,450.44,519.14
37.06463,450.16,517.91
37.08567,446.69,518.68
37.10405,446.17,518.49
37.12561,445.03,520.30
37.14535,444.93,518.98
37.16423,441.55,521.51
37.18588,440.46,523.15
37.20588,440.14,520.67
37.22517,439.94,521.03
37.24591,437.19,518.19
37.26538,439.61,519.30
37.28497,436.06,517.40
37.30422,435.13,519.07
37.32517,437.03,519.95
37.34449,435.89,516.94
37.36429,434.12,517.19
37.38494,432.74,517.98
37.40508,435.74,520.66
37.42431,435.03,523.76
37.44498,436.06,525.94
37.46499,436.64,524.92
37.48529,437.48,527.76
37.50525,434.94,526.16
37.52431,435.39,527.56
37.54500,435.57,526.92
37.56421,437.01,525.53
37.58396,436.12,524.65
37.60549,437.75,526.17
37.62443,437.03,525.73
37.64524,436.27,525.41
37.66439,435.63,525.48
37.68415,436.40,526.09
37.70434,437.34,525.76
37.72554,437.74,525.86
37.74510,436.04,526.82
37.76572,434.75,524.69
37.78429,436.99,522.90
37.80403,436.16,525.39
37.82487,434.83,524.56
37.84437,438.93,522.33
37.86381,437.92,521.36
37.88522,438.20,524.86
37.90406,439.63,523.62
37.92476,435.91,520.86
37.94476,439.32,522.04
37.96543,437.04,518.70
37.98492,437.81,518.88
38.00549,438.23,521.73
38.02558,438.92,522.44
38.04537,438.47,523.66
38.06517,439.03,524.99
38.08531,440.61,523.99
38.10414,439.97,523.95
38.12569,441.45,523.89
38.14453,440.43,527.40
38.16580,442.27,526.88
38.18468,441.44,526.69
38.20476,440.56,524.85
38.22585,438.37,524.87
38.24397,439.99,523.55
38.26572,439.09,521.29
38.28540,437.01,522.51
38.30552,437.00,520.86
38.32420,438.49,520.81
38.34590,436.09,522.59
38.36488,437.56,519.34
38.38417,439.67,520.47
38.40572,437.94,522.59
38.42607,437.17,521.51
38.44467,439.03,519.74
38.46465,437.88,520.97
38.48495,437.70,522.68
38.50548,437.63,520.46
38.52483,435.17,522.72
38.54374,437.40,522.33
38.56556,435.70,522.93
38.58466,435.35,520.48
38.60476,437.60,522.30
38.62418,436.78,523.22
38.64551,438.84,520.75
38.66533,439.11,521.25
38.68496,438.79,520.27
38.70482,438.35,521.80
38.72464,439.47,521.39
38.74444,439.26,522.61
38.76446,440.67,520.77
38.78555,439.64,519.61
38.80511,438.48,522.71
38.82417,440.57,522.45
38.84531,439.37,522.75
38.86409,439.10,524.35
38.88520,440.08,524.17
38.90474,440.79,523.47
38.92526,438.96,523.10
38.94391,439.30,519.92
38.96580,440.70,521.84
38.98462,441.07,520.23
39.00522,441.54,520.88
39.02553,443.04,521.34
39.04501,441.41,522.54
39.06459,442.87,523.24
39.08540,442.65,522.46
39.10488,442.69,524.19
39.12514,441.38,523.91
39.14467,440.68,525.02
39.16551,440.91,524.40
39.18489,439.34,526.23
39.20532,441.35,525.72
39.22468,439.74,523.01
39.24561,437.49,523.58
39.26391,438.80,523.99
39.28518,437.71,522.76
39.30481,440.64,524.03
39.32454,440.29,521.65
39.34402,438.52,522.35
39.36535,440.59,520.34
39.38585,441.56,523.24
39.40397,442.65,520.60
39.42487,438.96,521.70
39.44446,440.60,521.94
39.46398,440.55,520.14
39.48445,439.77,520.62
39.50429,437.68,522.09
39.52479,439.80,523.39
39.54413,438.74,520.57
39.56448,438.55,523.68
39.58416,440.09,521.15
39.60402,437.59,520.84
39.62465,437.71,522.69
39.64438,439.11,521.77
39.66464,440.18,520.33
39.68576,438.66,520.01
39.70396,439.83,520.54
39.72467,438.32,522.02
39.74400,441.64,522.21
39.76458,437.71,522.10
39.78437,438.70,519.95
39.80502,439.67,522.04
39.82380,436.10,520.52
39.84475,428.59,517.48
39.86397,408.76,514.43
39.88430,390.13,508.98
39.90568,371.05,504.92
39.92394,352.68,500.28
39.94409,338.68,493.01
39.96423,325.49,489.82
39.98402,315.62,483.86
40.00577,310.09,477.08
40.02386,310.82,476.73
40.04461,312.65,472.88
40.06400,319.23,472.78
40.08398,324.77,475.48
40.10406,333.28,474.74
40.12477,337.71,480.85
40.14526,347.21,484.74
40.16483,354.52,490.01
40.18507,363.07,492.38
40.20449,373.35,496.74
40.22475,378.02,500.31
40.24539,385.25,502.46
40.26408,393.19,503.37
40.28504,400.19,508.27
40.30568,404.82,511.14
40.32453,409.09,513.23
40.34577,411.06,513.98
40.36507,417.37,515.34
40.38461,422.93,516.59
40.40447,425.19,513.70
40.42569,426.21,516.21
40.44508,429.88,516.89
40.46561,431.78,519.06
40.48475,432.76,517.99
40.50398,434.36,521.33
40.52459,432.38,521.64
40.54438,436.69,520.86
40.56572,437.25,523.78
40.58535,437.37,524.80
40.60453,437.38,523.89
40.62443,439.12,520.97
40.64562,436.01,522.17
40.66508,437.76,522.95
40.68571,438.04,520.79
40.70395,440.10,520.49
40.72404,442.55,524.96
40.74467,453.54,531.74
40.76414,473.57,539.65
40.78569,497.12,549.56
40.80547,524.58,557.17
40.82460,547.83,566.55
40.84541,567.38,572.34
40.86397,581.57,573.32
40.88495,587.75,573.72
40.90490,584.04,572.00
40.92536,575.59,567.59
40.94453,567.22,562.67
40.96430,559.83,557.07
40.98542,548.32,554.69
41.00482,536.81,551.02
41.02543,525.23,549.03
41.04410,515.84,543.94
41.06490,503.73,543.63
41.08572,495.97,541.09
41.10555,490.29,537.10
41.12518,481.31,535.90
41.14547,474.11,536.70
41.16437,468.49,532.99
41.18375,465.83,533.42
41.20454,465.64,530.83
41.22402,458.18,529.35
41.24485,456.56,527.76
41.26412,454.43,527.97
41.28469,451.59,527.74
41.30583,447.59,528.46
41.32412,446.22,525.34
41.34557,445.86,526.68
41.36431,446.46,524.99
41.38418,444.51,525.03
41.40410,444.34,522.74
41.42573,440.91,522.91
41.44439,440.92,524.64
41.46547,443.19,523.43
41.48530,441.50,522.32
41.50438,443.59,524.26
41.52454,439.94,523.44
41.54555,441.24,524.30
41.56470,439.36,522.58
41.58574,439.62,522.64
41.60560,438.25,523.63
41.62389,440.03,524.11
41.64465,440.99,522.91
41.66443,440.58,521.12
41.68404,441.83,522.32
41.70382,441.83,523.24
41.72583,441.45,521.76
41.74424,442.07,524.84
41.76416,438.70,523.54
41.78403,439.39,523.92
41.80439,437.30,522.31
41.82423,440.42,525.30
41.84439,439.68,525.64
41.86435,438.88,523.97
41.88555,437.74,524.01
41.90461,439.38,521.83
41.92550,438.97,523.17
41.94395,439.04,522.84
41.96478,437.71,522.50
41.98443,441.02,522.94
42.00520,439.03,526.71
42.02524,442.64,526.19
42.04481,442.23,523.78
42.06584,441.18,524.91
42.08497,441.72,527.55
42.10397,439.66,524.09
42.12516,435.89,524.85
42.14424,438.88,526.30
42.16541,437.35,524.89
42.18430,437.63,527.95
42.20500,437.20,526.54
42.22489,437.28,523.83
42.24439,437.44,523.50
42.26517,437.66,525.16
42.28484,438.62,524.98
42.30434,438.99,523.39
42.32448,436.34,525.37
42.34433,437.70,525.57
42.36499,438.10,522.61
42.38543,434.20,522.95
42.40464,436.15,522.21
42.42461,436.95,524.36
42.44511,438.45,525.29
42.46521,436.57,525.11
42.48563,434.99,522.24
42.50406,436.26,522.34
42.52400,436.07,525.54
42.54446,434.78,525.17
42.56427,437.59,523.99
42.58421,438.11,524.95
42.60501,434.96,523.84
42.62395,436.30,525.59
42.64548,436.81,523.60
42.66492,435.70,524.31
42.68581,435.37,523.17
42.70551,438.45,525.30
42.72398,438.24,524.12
42.74525,435.21,526.17
42.76411,435.23,525.85
42.78414,438.92,526.18
42.80506,436.64,523.68
42.82394,437.28,522.85
42.84493,438.70,523.82
42.86490,437.62,522.77
42.88506,437.97,523.60
42.90399,440.17,524.69
42.92505,436.84,524.21
42.94553,438.04,524.91
42.96585,436.66,525.10
42.98464,438.00,523.19
43.00489,438.28,523.69
43.02393,437.90,525.47
43.04412,436.16,525.34
43.06561,435.65,521.71
43.08462,435.95,524.43
43.10457,436.47,523.37
43.12535,436.38,523.13
43.14601,439.48,525.72
43.16525,435.97,525.76
43.18615,437.41,522.95
43.20625,436.29,523.10
43.22754,436.33,523.99
43.24690,435.88,523.20
43.26710,432.56,522.84
43.28676,434.83,521.81
43.30724,430.96,524.81
43.32629,432.69,523.83
43.34757,433.81,521.08
43.36711,431.51,523.70
43.38790,433.22,521.27
43.40601,432.69,521.10
43.42662,433.29,521.04
43.44643,433.61,524.31
43.46759,434.42,524.23
43.48660,433.51,524.60
43.50728,430.97,524.02
43.52724,432.16,524.81
43.54585,429.01,525.30
43.56593,431.15,522.95
43.58660,430.43,525.98
43.60786,433.52,525.65
43.62718,430.94,523.91
43.64666,430.72,526.56
43.66647,430.83,523.23
43.68735,432.00,524.02
43.70675,429.38,522.96
43.72623,433.01,526.36
43.74752,431.65,525.80
43.76661,432.25,524.92
43.78768,429.61,525.36
43.80653,430.20,524.22
43.82688,427.61,522.32
43.84672,430.10,524.75
43.86608,428.01,523.01
43.88730,430.26,525.26
43.90689,428.99,522.71
43.92720,429.93,525.78
43.94617,431.17,524.76
43.96722,431.17,523.90
43.98620,431.03,522.16
44.00624,429.67,523.31
44.02681,431.25,522.82
44.04644,430.93,525.96
44.06609,430.96,525.34
44.08734,430.16,523.75
44.10626,429.36,522.48
44.12635,432.52,522.46
44.14676,430.25,520.97
44.16765,430.75,523.00
44.18748,427.38,520.83
44.20676,430.85,524.37
44.22754,428.39,522.47
44.24604,431.38,521.31
44.26692,428.60,520.95
44.28713,429.01,523.46
44.30636,427.54,519.84
44.32810,428.20,522.22
44.34819,425.02,523.03
44.36764,424.18,521.73
44.38723,422.50,520.71
44.40784,423.65,521.69
44.42828,423.01,518.67
44.44784,425.27,519.71
44.46821,425.90,521.48
44.48700,426.18,519.33
44.50836,418.10,517.76
44.52736,403.21,514.93
44.54857,379.36,506.97
44.56850,358.87,504.08
44.58730,337.02,502.15
44.60852,321.75,497.36
44.62846,310.35,492.16
44.64695,303.94,485.22
44.66874,299.19,478.97
44.68771,299.99,475.09
44.70783,303.03,472.51
44.72835,305.72,472.47
44.74800,312.70,475.57
44.76751,317.97,477.96
44.78884,328.79,482.86
44.80792,339.98,487.96
44.82770,348.60,490.20
44.84816,355.83,495.70
44.86694,362.07,497.60
44.88689,368.96,499.05
44.90742,378.71,504.37
44.92806,386.54,508.05
44.94800,390.94,511.51
44.96707,393.89,515.17
44.98826,401.52,515.77
45.00857,405.44,516.05
45.02693,406.38,518.97
45.04681,410.51,517.43
45.06791,412.43,522.39
45.08717,412.89,520.02
45.10847,414.73,520.81
45.12791,416.71,523.78
45.14712,416.46,524.72
45.16748,419.93,522.93
45.18869,419.16,524.11
45.20775,416.73,524.32
45.22834,421.00,523.78
45.24770,419.40,522.65
45.26798,420.65,522.27
45.28808,422.62,522.69
45.30808,420.40,522.59
45.32710,422.06,522.48
45.34786,421.72,523.02
45.36790,420.03,525.84
45.38750,420.47,522.03
45.40731,420.12,523.94
45.42838,430.26,529.47
45.44819,446.10,536.57
45.46727,467.60,549.27
45.48670,493.78,560.14
45.50835,523.13,564.68
45.52964,543.70,571.34
45.54797,557.72,570.42
45.56863,561.80,570.65
45.58913,561.24,566.79
45.60892,553.54,562.36
45.62781,545.08,557.27
45.64856,534.35,555.47
45.66843,523.31,553.27
45.68908,515.89,550.67
45.70811,502.16,545.27
45.72791,489.64,542.79
45.74850,479.37,540.64
45.76795,467.69,539.07
45.78813,461.44,536.19
45.80825,456.33,535.81
45.82865,449.74,532.64
45.84914,443.47,532.50
45.86924,440.08,528.29
45.88958,438.60,528.57
45.90800,434.32,526.60
45.92865,429.53,529.12
45.94813,428.06,531.03
45.96790,428.08,527.66
45.98942,424.57,528.89
46.00824,426.66,525.81
46.02819,422.44,526.59
46.04861,423.16,525.43
46.06938,423.13,526.14
46.08810,424.69,528.31
46.10780,422.35,527.19
46.12814,422.02,524.63
46.14899,420.85,526.15
46.16948,420.49,527.49
46.18978,419.15,524.68
46.20935,420.62,527.99
46.22845,421.06,525.74
46.24900,418.68,528.66
46.26907,419.49,528.03
46.28854,417.52,529.75
46.30772,420.33,528.77
46.32803,419.76,530.45
46.34862,420.54,529.80
46.36872,419.42,529.94
46.38826,418.63,530.60
46.40957,419.07,530.77
46.42801,418.76,531.83
46.44873,417.83,528.93
46.46834,419.63,527.46
46.48797,420.68,530.32
46.50909,417.73,526.47
46.52786,418.67,529.96
46.54818,413.96,526.46
46.56943,417.21,528.00
46.58831,417.39,527.52
46.60905,419.43,525.38
46.62811,421.40,529.68
46.64900,424.41,527.60
46.66799,424.89,530.44
46.68963,426.79,528.89
46.70806,426.91,526.55
46.72919,426.35,526.06
46.74939,427.14,524.59
46.76811,426.58,526.50
46.78913,423.35,523.90
46.80884,424.02,527.25
46.82877,422.35,523.60
46.84774,424.40,523.31
46.86784,420.90,524.23
46.89044,418.62,524.65
46.90882,421.62,525.60
46.93003,419.74,523.88
46.94993,416.95,522.98
46.96911,416.71,524.59
46.99037,418.94,524.74
47.00962,418.14,524.86
47.02996,417.58,524.51
47.05105,416.92,523.44
47.07138,418.88,521.72
47.09078,417.21,523.36
47.11074,414.71,522.80
47.12985,416.05,521.48
47.15074,415.73,521.27
47.16996,414.57,522.21
47.18977,418.29,519.49
47.21147,416.96,522.26
47.23143,419.59,520.91
47.25092,418.41,520.88
47.27127,418.63,522.20
47.29138,421.32,522.94
47.31144,421.06,522.23
47.33023,421.31,524.70
47.35159,421.25,524.16
47.36980,420.14,522.78
47.39127,418.21,524.77
47.41032,418.14,522.16
47.43147,417.66,521.23
47.45127,419.53,522.82
47.47046,416.37,519.68
47.49074,416.23,518.95
47.51060,418.73,518.84
47.53054,415.53,521.95
47.55061,416.80,518.39
47.57195,415.88,521.00
47.59226,418.32,518.63
47.61181,415.92,521.03
47.63245,417.45,518.78
47.65290,418.37,519.33
47.67367,420.29,521.07
47.69346,419.50,521.24
47.71473,423.18,523.78
47.73519,426.72,520.78
47.75760,429.44,522.13
47.77629,428.40,522.57
47.79632,432.65,521.30
47.81726,433.24,523.48
47.83703,432.48,521.73
47.85719,434.61,523.38
47.87567,434.40,519.83
47.89654,436.09,523.30
47.91746,435.26,522.51
47.93701,433.59,522.85
47.95634,437.05,522.85
47.97565,434.68,524.98
47.99676,437.24,526.18
48.01694,434.54,524.32
48.03646,434.49,527.43
48.05720,436.04,524.15
48.07670,435.83,524.34
48.09737,435.98,523.24
48.11677,439.17,526.05
48.13667,438.56,524.15
48.15688,437.71,526.55
48.17656,437.69,523.92
48.19565,439.00,525.22
48.21634,438.77,526.23
48.23650,438.60,522.20
48.25628,439.97,526.59
48.27633,437.58,525.04
48.29739,436.24,526.15
48.31598,436.79,522.77
48.33597,436.30,524.59
48.35734,437.23,525.56
48.37735,438.63,524.46
48.39616,438.66,521.05
48.41601,437.19,521.55
48.43713,438.72,519.90
48.45641,438.31,522.96
48.47745,435.22,522.20
48.49684,437.47,522.28
48.51598,439.86,520.48
48.53718,436.56,518.45
48.55564,436.32,518.65
48.57643,438.41,519.30
48.59773,436.24,520.44
48.61827,437.74,521.23
48.63727,440.48,518.62
48.65812,438.43,522.24
48.67818,436.84,517.68
48.69764,438.39,516.79
48.71665,435.66,516.95
48.73838,434.64,519.04
48.75687,423.87,521.64
48.77806,407.92,522.70
48.79819,388.25,526.50
48.81899,365.28,529.91
48.84146,351.64,526.97
48.86157,336.74,520.32
48.88228,326.86,509.50
48.90186,322.05,499.79
48.92291,318.52,494.15
48.94333,320.48,490.55
48.96347,322.20,487.56
48.98315,327.23,485.70
49.00286,334.17,486.60
49.02293,339.84,485.64
49.04270,342.33,486.00
49.06439,347.03,489.95
49.08353,353.38,493.56
49.10375,359.41,499.64
49.12444,367.25,502.22
49.14616,370.32,502.35
49.16573,375.60,503.02
49.18455,383.85,506.54
49.20662,387.84,507.72
49.22836,389.28,508.69
49.24721,393.35,507.76
49.26837,398.28,509.92
49.28821,401.67,512.48
49.30859,403.03,513.74
49.32894,406.09,512.95
49.34945,406.12,511.87
49.37067,407.70,515.27
49.38933,410.03,516.51
49.40883,410.53,516.22
49.42841,412.30,516.80
49.44973,416.06,518.61
49.47028,414.23,517.42
49.48847,416.80,522.18
49.50954,425.03,526.25
49.52876,441.78,536.08
49.55002,467.20,541.63
49.57104,495.62,550.18
49.59024,523.49,552.75
49.61135,544.92,554.36
49.62949,557.05,554.05
49.64960,563.59,548.98
49.67072,559.59,545.82
49.69185,553.10,542.68
49.71120,544.08,540.01
49.73077,537.41,538.26
49.75122,525.95,537.21
49.77122,512.64,535.23
49.79143,502.65,532.00
49.81166,490.91,531.87
49.83208,486.17,530.00
49.85212,480.60,534.39
49.87235,481.38,541.56
49.89257,477.11,544.17
49.91277,472.74,547.22
49.93216,470.54,547.57
49.95287,469.66,542.86
49.97272,463.82,540.82
49.99381,461.02,541.60
50.01323,458.19,539.84
50.03262,453.09,536.81
50.05344,451.40,534.34
50.07388,448.59,534.68
50.09440,450.48,531.88
50.11536,446.37,533.35
50.13510,443.74,532.33
50.15450,442.75,532.09
50.17493,440.68,527.98
50.19382,440.59,527.77
50.21500,440.78,527.64
50.23533,440.47,526.72
50.25371,439.06,528.46
50.27496,438.82,526.88
50.29548,437.10,524.57
50.31415,437.34,525.93
50.33566,435.88,525.76
50.35552,437.85,523.83
50.37466,438.19,522.77
50.39500,434.87,521.94
50.41520,435.64,525.30
50.43410,436.47,523.85
50.45370,436.49,521.90
50.47526,433.78,522.48
50.49395,434.85,521.97
50.51436,434.63,524.08
50.53524,435.06,525.64
50.55356,438.27,524.01
50.57465,437.80,522.72
50.59439,436.28,522.03
50.61481,436.45,524.30
50.63392,438.01,525.72
50.65401,437.58,525.33
50.67418,436.38,524.11
50.69459,436.39,525.79
50.71385,436.22,525.78
50.73473,437.27,524.55
50.75434,437.71,524.57
50.77378,438.14,526.49
50.79380,437.51,526.95
50.81534,439.15,524.04
50.83515,437.45,525.72
50.85444,438.79,524.69
50.87432,439.71,523.02
50.89353,439.17,524.03
50.91510,436.73,523.20
50.93438,436.23,523.52
50.95511,439.22,524.10
50.97493,436.67,525.11
50.99473,435.80,522.55
51.01437,435.69,523.14
51.03386,436.61,523.99
51.05497,437.43,524.16
51.07491,436.35,522.64
51.09495,437.87,525.23
51.11518,439.89,522.67
51.13431,436.28,523.53
51.15438,439.03,522.62
51.17487,436.00,521.54
51.19429,437.17,520.95
51.21437,436.66,521.13
51.23476,437.83,522.77
51.25514,438.71,524.12
51.27426,439.53,521.74
51.29534,438.19,523.73
51.31392,439.54,522.43
51.33451,439.81,523.55
51.35472,438.40,524.22
51.37497,437.69,522.98
51.39465,438.06,524.61
51.41397,438.15,522.95
51.43468,437.83,523.19
51.45405,438.13,521.07
51.47550,437.55,524.54
51.49436,438.12,520.91
51.51534,437.66,523.88
51.53435,436.46,525.26
51.55487,439.18,523.49
51.57443,441.74,523.83
51.59559,439.40,524.68
51.61443,442.25,524.15
51.63380,440.62,521.83
51.65341,441.01,523.18
51.67493,440.58,521.61
51.69463,441.24,522.50
51.71456,438.78,521.34
51.73539,439.48,521.25
51.75404,440.28,525.94
51.77425,439.78,524.59
51.79502,441.44,523.62
51.81443,439.14,524.05
51.83563,436.95,522.41
51.85414,441.70,523.72
51.87421,439.67,523.80
51.89553,442.79,521.92
51.91446,442.82,523.87
51.93371,440.38,522.05
51.95370,439.52,523.91
51.97493,443.94,522.47
51.99456,444.22,523.33
52.01472,441.96,525.67
52.03492,441.39,525.63
52.05529,443.13,522.54
52.07419,441.83,523.56
52.09450,439.64,526.27
52.11534,439.80,525.05
52.13433,438.80,524.89
52.15473,437.28,525.09
52.17549,440.64,523.57
52.19413,440.89,525.26
52.21492,439.23,525.84
52.23468,438.77,523.75
52.25402,440.11,523.69
52.27480,439.54,523.50
52.29499,442.87,526.33
52.31547,441.27,524.78
52.33426,443.81,526.26
52.35451,441.75,523.56
52.37462,445.09,525.20
52.39507,442.46,524.22
52.41620,442.66,519.98
52.43501,444.11,519.75
52.45569,440.51,520.05
52.47588,439.68,522.62
52.49506,440.24,521.13
52.51536,440.29,521.15
52.53612,439.66,520.63
52.55542,438.90,519.91
52.57586,440.21,521.31
52.59541,439.59,523.52
52.61469,439.19,525.43
52.63542,429.02,522.90
52.65556,412.52,516.71
52.67574,392.02,517.18
52.69637,369.72,513.80
52.71554,349.63,508.81
52.73481,335.14,504.47
52.75528,324.10,500.49
52.77580,318.34,493.65
52.79432,313.78,489.65
52.81531,314.81,483.87
52.83469,312.97,481.02
52.85625,319.17,481.32
52.87600,326.51,481.28
52.89586,333.70,481.00
52.91694,341.35,486.33
52.93628,347.01,485.39
52.95563,357.20,488.50
52.97692,362.92,492.66
52.99782,373.48,496.49
53.01765,382.55,498.07
53.04009,386.08,503.06
53.06047,390.95,506.49
53.08218,396.74,508.55
53.10217,399.03,510.12
53.12223,403.47,513.66
53.14058,403.99,517.72
53.16116,409.31,516.00
53.18139,409.87,519.57
53.20148,411.87,516.93
53.22148,411.77,517.86
53.24408,415.23,517.67
53.26398,413.54,519.12
53.28310,413.60,520.54
53.30419,413.15,519.59
53.32285,416.16,519.92
53.34276,414.48,523.07
53.36345,417.19,523.18
53.38251,417.20,524.43
53.40314,415.03,523.61
53.42359,416.95,523.43
53.44360,420.00,521.66
53.46245,416.55,523.55
53.48511,414.74,524.70
53.50506,415.64,523.59
53.52537,417.32,522.62
53.54358,419.31,521.67
53.56398,419.96,525.03
53.58501,431.38,528.29
53.60510,448.98,528.95
53.62624,475.01,534.37
53.64486,498.35,539.58
53.66726,523.01,547.23
53.68715,546.70,555.85
53.70905,563.92,559.65
53.72947,570.74,561.58
53.74892,570.92,561.25
53.76982,567.88,562.00
53.78963,557.02,558.96
53.81112,547.20,552.99
53.83083,537.33,553.22
53.85073,528.49,548.27
53.87098,518.47,545.76
53.89226,509.88,545.01
53.91100,500.40,541.93
53.93219,494.88,538.87
53.95292,487.33,539.46
53.97136,481.87,539.20
53.99396,475.68,539.17
54.01356,473.58,535.02
54.03489,470.11,534.69
54.05602,463.48,535.23
54.07487,460.53,534.14
54.09585,460.48,534.51
54.11513,453.48,531.40
54.13483,453.30,530.91
54.15596,451.42,528.12
54.17643,449.75,528.66
54.19612,445.70,529.67
54.21560,445.60,527.24
54.23684,442.67,526.45
54.25693,442.55,528.05
54.27620,441.55,525.98
54.29719,438.01,527.17
54.31685,439.43,524.52
54.33693,439.10,523.90
54.35554,440.37,525.59
54.37653,438.73,523.56
54.39694,434.58,524.87
54.41789,432.56,524.93
54.43673,430.77,522.81
54.45726,431.56,525.06
54.47731,433.58,526.01
54.49690,430.71,523.39
54.51807,432.41,522.43
54.53748,430.47,522.70
54.55689,432.96,523.12
54.57811,432.15,524.33
54.59638,429.45,523.39
54.61671,430.69,526.38
54.63765,429.59,525.04
54.65631,432.06,524.28
54.67641,429.49,525.76
54.69840,431.37,527.30
54.71788,430.48,524.53
54.73816,431.30,523.94
54.75802,431.04,525.71
54.77647,428.45,525.45
54.79654,430.08,525.41
54.81705,431.97,523.47
54.83818,429.75,523.91
54.85727,429.66,524.93
54.87699,429.35,523.90
54.89801,430.48,523.93
54.91718,430.35,525.51
54.93673,430.33,525.25
54.95704,430.58,524.20
54.97788,428.59,525.11
54.99800,430.08,523.61
55.01778,428.60,523.58
55.03727,429.76,526.97
55.05767,428.23,526.07
55.07681,426.69,523.04
55.09694,429.73,522.71
55.11726,428.10,525.70
55.13660,426.58,525.50
55.15753,427.38,525.47
55.17858,426.22,526.70
55.19876,426.31,528.41
55.21888,422.57,525.72
55.23878,425.87,528.46
55.25847,421.99,525.66
55.27943,424.48,526.83
55.29891,423.40,526.06
55.31856,421.91,525.56
55.33888,421.74,526.03
55.35844,421.80,524.40
55.38022,422.22,527.50
55.40010,421.48,526.38
55.41828,420.01,524.09
55.43924,420.95,528.81
55.45844,420.86,528.81
55.47990,421.19,526.37
55.49861,420.66,526.64
55.51978,418.66,526.92
55.53911,419.51,527.47
55.55847,418.56,524.82
55.57970,420.83,525.92
55.59872,418.55,528.48
55.61861,417.52,527.67
55.63958,416.74,525.40
55.66080,417.75,527.76
55.67965,416.95,526.87
55.70091,417.44,526.77
55.72077,415.85,527.41
55.74021,415.04,525.03
55.76073,415.29,523.42
55.78086,415.77,525.30
55.80087,417.18,525.11
55.82120,417.34,524.91
55.83966,418.08,526.37
55.86031,417.91,522.43
55.87999,416.49,524.84
55.90083,415.42,523.33
55.91990,419.25,522.40
55.94007,417.12,522.97
55.95980,415.36,522.95
55.98067,416.92,519.17
56.00028,416.39,518.47
56.02086,416.42,521.35
56.04050,417.45,520.87
56.06074,418.38,518.49
56.08029,416.56,522.04
56.10063,416.87,520.93
56.12310,418.02,522.03
56.14419,415.93,521.74
56.16378,417.46,522.91
56.18373,417.18,519.56
56.20340,419.11,520.85
56.22240,417.55,522.46
56.24297,419.03,521.05
56.26365,417.68,520.27
56.28257,418.33,522.95
56.30258,415.77,522.06
56.32257,416.63,522.03
56.34251,417.27,520.07
56.36324,416.89,523.11
56.38278,419.04,519.70
56.40394,416.38,520.98
56.42404,417.04,520.44
56.44334,418.31,521.78
56.46404,415.42,519.38
56.48434,418.58,520.57
56.50243,417.56,520.60
56.52291,418.63,519.91
56.54350,418.42,520.99
56.56357,417.63,522.14
56.58393,420.20,520.72
56.60315,417.10,521.38
56.62422,420.89,517.76
56.64404,419.59,520.63
56.66376,418.01,517.19
56.68336,420.18,516.77
56.70402,416.29,517.26
56.72351,407.48,521.03
56.74292,394.99,523.20
56.76355,375.39,524.63
56.78412,358.23,522.55
56.80358,336.86,521.73
56.82289,322.30,520.87
56.84355,310.37,521.34
56.86312,300.25,515.99
56.88323,296.64,511.51
56.90315,295.48,506.72
56.92323,298.56,501.73
56.94337,302.92,496.08
56.96410,305.31,489.38
56.98279,314.03,489.19
57.00321,323.21,487.28
57.02327,331.45,487.76
57.04241,340.36,490.66
57.06237,350.97,489.15
57.08359,357.68,493.35
57.10272,366.80,494.34
57.12411,376.66,494.34
57.14335,380.30,496.90
57.16355,385.69,499.73
57.18317,391.73,503.52
57.20404,400.94,512.34
57.22251,427.27,527.29
57.24349,456.10,540.25
57.26265,490.92,558.43
57.28353,519.96,574.22
57.30326,545.43,587.49
57.32362,565.13,600.56
57.34411,571.29,613.15
57.36424,571.21,623.48
57.38376,569.07,627.13
57.40417,555.93,608.74
57.42292,543.82,584.66
57.44289,527.17,560.11
57.46390,512.70,532.89
57.48322,498.65,512.16
57.50422,484.85,497.67
57.52333,477.56,484.16
57.54390,470.18,473.94
57.56268,462.06,468.71
57.58413,453.61,468.15
57.60357,448.00,465.30
57.62406,444.02,467.92
57.64297,445.14,468.93
57.66383,441.59,472.98
57.68282,437.75,482.52
57.70498,440.12,496.70
57.72385,437.94,523.29
57.74451,427.93,554.11
57.76613,421.95,567.92
57.78427,418.36,567.31
57.80587,416.78,561.47
57.82441,416.16,551.95
57.84562,414.78,538.07
57.86566,418.60,530.16
57.88436,419.83,520.49
57.90544,418.67,511.85
57.92496,421.37,506.29
57.94456,425.62,501.41
57.96601,424.45,497.95
57.98452,426.46,498.85
58.00541,428.23,499.18
58.02638,430.67,497.93
58.04628,433.84,495.15
58.06448,434.16,494.12
58.08611,437.87,497.44
58.10467,436.02,502.55
