Program Time [s],data 0,data 1
26.35360,473.22,609.98
26.37389,468.66,607.34
26.39374,468.37,608.27
26.41262,466.19,604.42
26.43223,466.69,606.62
26.45231,468.28,607.69
26.47318,468.01,607.39
26.49414,465.38,604.24
26.51342,465.58,602.20
26.53418,464.75,603.66
26.55390,462.16,604.20
26.57250,465.30,604.14
26.59422,464.54,603.58
26.61310,462.24,607.43
26.63402,461.04,606.97
26.65351,460.41,608.35
26.67291,459.95,610.48
26.69332,459.89,614.29
26.71245,458.99,615.68
26.73291,459.66,616.16
26.75399,459.48,617.29
26.77226,459.52,618.07
26.79332,459.79,618.49
26.81405,459.08,616.43
26.83485,457.62,617.34
26.85436,455.89,613.94
26.87405,457.57,611.76
26.89459,457.62,609.18
26.91560,456.96,609.61
26.93553,457.60,607.96
26.95614,457.22,605.98
26.97551,458.02,605.01
26.99611,457.58,605.78
27.01430,456.01,603.25
27.03535,457.02,604.95
27.05599,456.71,603.08
27.07592,459.64,603.77
27.09511,459.43,606.50
27.11483,459.17,606.19
27.13572,458.80,608.62
27.15579,458.00,610.33
27.17466,457.75,612.48
27.19530,461.18,612.36
27.21502,458.82,614.77
27.23526,460.01,614.14
27.25432,455.97,613.68
27.27540,458.63,615.80
27.29473,458.88,614.13
27.31564,460.29,613.26
27.33629,457.46,610.50
27.35585,460.20,610.78
27.37598,459.85,610.22
27.39607,459.32,605.88
27.41590,460.80,607.68
27.43559,460.55,610.30
27.45500,460.67,608.85
27.47579,455.09,609.92
27.49466,442.72,604.72
27.51491,423.57,597.34
27.53457,402.75,588.30
27.55437,378.41,578.32
27.57594,360.77,569.53
27.59533,343.25,557.94
27.61411,328.38,550.68
27.63523,320.15,542.64
27.65458,318.19,539.40
27.67513,319.60,540.92
27.69518,322.37,540.76
27.71533,326.93,543.19
27.73553,331.29,548.00
27.75469,340.42,549.74
27.77425,349.07,555.41
27.79487,358.19,556.52
27.81500,368.16,563.59
27.83400,379.03,571.52
27.85566,387.85,574.02
27.87467,397.30,577.71
27.89594,403.78,584.65
27.91587,409.38,585.80
27.93585,417.76,589.21
27.95439,420.64,594.46
27.97581,424.24,597.82
27.99594,428.85,599.82
28.01427,431.83,602.52
28.03445,436.02,603.74
28.05528,439.98,604.22
28.07527,442.01,603.29
28.09559,441.77,603.53
28.11482,447.20,604.98
28.13499,449.85,604.61
28.15534,450.07,605.65
28.17412,452.03,602.30
28.19539,450.98,604.80
28.21548,454.36,603.66
28.23447,456.30,603.18
28.25431,455.64,602.08
28.27427,458.46,604.50
28.29440,456.59,602.78
28.31524,459.33,605.13
28.33570,458.61,605.27
28.35528,460.84,606.67
28.37535,453.24,606.00
28.39490,456.04,608.50
28.41438,451.61,607.52
28.43505,450.99,604.95
28.45593,455.18,607.00
28.47575,457.52,608.33
28.49426,452.56,613.81
28.51450,480.54,624.55
28.53445,509.94,638.87
28.55545,545.62,655.69
28.57442,578.57,664.14
28.59480,604.82,670.15
28.61496,628.12,667.90
28.63390,636.72,667.71
28.65479,637.84,662.11
28.67536,633.13,660.66
28.69477,623.69,655.75
28.71427,611.19,648.79
28.73412,596.19,642.92
28.75590,579.77,636.82
28.77580,565.00,629.52
28.79530,553.30,626.17
28.81533,540.38,619.80
28.83551,531.61,616.03
28.85669,521.33,616.05
28.87676,511.97,614.13
28.89694,505.17,610.05
28.91577,496.88,609.12
28.93709,491.99,606.51
28.95722,484.34,606.09
28.97810,481.30,605.95
28.99834,477.09,603.54
29.01755,472.18,602.87
29.03838,468.03,600.78
29.05751,465.22,602.19
29.07719,460.09,600.49
29.09881,457.94,601.69
29.11778,458.41,601.49
29.13767,455.32,600.77
29.15725,453.74,601.70
29.17844,452.36,602.70
29.19947,451.38,605.05
29.21930,448.55,602.98
29.24079,447.84,601.54
29.26070,444.76,604.18
29.28085,442.72,602.27
29.29916,441.52,604.16
29.32016,443.89,602.29
29.33902,442.02,603.83
29.36056,442.69,606.18
29.37986,444.31,605.32
29.40001,445.14,602.69
29.41991,441.93,600.20
29.44091,439.94,603.25
29.46100,440.08,603.10
29.48059,438.58,601.17
29.49921,438.56,602.66
29.52049,440.75,606.06
29.53999,439.95,602.94
29.56023,438.27,604.41
29.58093,439.02,600.75
29.59961,437.67,601.02
29.62086,438.29,602.98
29.64069,439.97,603.27
29.66038,440.06,604.55
29.68027,439.11,604.18
29.69936,439.14,604.98
29.71913,439.55,606.15
29.73964,438.02,609.23
29.76054,439.89,608.56
29.78005,439.46,605.75
29.79913,439.19,608.13
29.82017,436.47,604.10
29.83990,437.53,605.64
29.86107,436.84,604.80
29.88027,439.49,603.17
29.89969,438.39,604.43
29.92074,437.18,602.51
29.93929,438.72,606.22
29.96099,437.50,605.58
29.97952,438.57,606.17
30.00056,436.49,607.20
30.02007,438.92,604.77
30.03969,441.03,605.96
30.05987,438.96,603.27
30.08072,439.04,605.11
30.10012,440.19,602.20
30.11989,440.77,602.93
30.14099,437.51,600.30
30.15935,438.47,600.58
30.17935,438.05,602.85
30.20034,436.72,603.52
30.21926,437.58,603.52
30.23956,435.88,604.25
30.26074,439.97,607.09
30.28050,439.99,606.46
30.29988,441.17,610.37
30.32007,439.94,608.79
30.33964,442.51,606.97
30.36021,440.69,607.99
30.38086,438.81,607.95
30.40021,435.93,609.42
30.41903,432.95,607.61
30.43940,435.57,610.10
30.45939,435.04,609.96
30.48082,433.55,609.59
30.49952,437.25,613.68
30.51966,435.91,615.76
30.53960,436.29,616.21
30.56049,439.20,616.90
30.57978,439.10,614.37
30.60021,438.78,616.03
30.62070,436.05,613.19
30.64035,437.83,615.02
30.66012,439.38,612.54
30.68083,437.86,613.47
30.69911,437.97,612.28
30.72078,438.23,607.89
30.74080,433.83,606.73
30.76058,437.75,606.35
30.77994,439.06,608.13
30.80042,439.00,608.12
30.82102,437.30,609.49
30.84010,435.67,609.62
30.86101,435.47,607.21
30.88082,436.77,608.22
30.89942,436.40,608.77
30.92077,437.26,608.97
30.94070,438.04,611.30
30.96057,439.08,608.36
30.98011,435.34,608.41
30.99990,436.24,610.32
31.01991,437.29,610.11
31.03961,435.57,608.03
31.06056,436.18,604.92
31.08052,436.64,608.79
31.10028,432.83,609.50
31.12018,431.72,608.95
31.13937,433.79,606.60
31.16075,433.68,609.29
31.18033,436.38,606.55
31.20115,437.22,604.56
31.22108,434.77,604.49
31.24167,437.51,606.58
31.26208,436.99,604.90
31.28280,434.15,600.34
31.30276,435.14,603.48
31.32292,435.85,602.44
31.34166,436.88,600.96
31.36265,434.69,600.43
31.38241,432.99,598.66
31.40268,432.45,599.56
31.42082,432.63,598.14
31.44155,430.37,598.25
31.46162,429.96,595.88
31.48128,429.44,594.34
31.50081,430.05,593.14
31.52146,431.79,593.56
31.54196,433.63,592.24
31.56379,431.53,591.23
31.58388,432.25,590.72
31.60336,432.66,593.92
31.62326,424.16,596.35
31.64406,410.79,600.73
31.66250,394.01,602.81
31.68261,369.60,599.40
31.70215,350.58,592.84
31.72345,332.18,581.73
31.74334,318.48,575.03
31.76315,306.54,563.49
31.78222,296.87,556.07
31.80273,292.98,551.58
31.82349,291.76,546.23
31.84224,293.12,539.93
31.86370,297.56,538.29
31.88405,300.98,533.97
31.90279,311.52,535.62
31.92362,318.14,535.78
31.94352,328.88,535.69
31.96302,338.68,536.19
31.98362,347.29,541.81
32.00288,357.95,547.84
32.02348,368.20,550.05
32.04345,376.03,556.44
32.06351,384.19,560.44
32.08355,390.60,567.71
32.10341,395.87,569.48
32.12299,401.37,574.92
32.14309,408.03,574.79
32.16333,410.25,576.88
32.18328,412.99,582.86
32.20335,419.45,583.61
32.22378,421.99,585.07
32.24283,424.37,588.68
32.26389,425.75,591.96
32.28339,429.85,593.48
32.30232,431.31,591.67
32.32266,429.22,592.73
32.34305,432.19,596.75
32.36246,432.66,596.13
32.38223,430.54,598.14
32.40243,436.56,598.04
32.42235,436.53,597.77
32.44227,437.27,600.70
32.46277,437.49,597.05
32.48398,436.85,601.11
32.50397,452.33,612.99
32.52275,470.94,624.28
32.54221,499.79,642.89
32.56258,531.67,662.75
32.58338,557.76,671.88
32.60349,588.32,676.02
32.62365,608.66,674.58
32.64203,616.09,668.72
32.66311,616.54,660.18
32.68216,612.52,654.87
32.70244,600.25,645.50
32.72220,587.04,641.08
32.74216,576.80,635.36
32.76368,559.90,627.10
32.78337,546.36,621.93
32.80311,534.70,616.40
32.82296,522.78,616.00
32.84363,512.16,610.54
32.86243,505.32,606.49
32.88274,493.92,608.88
32.90348,485.71,606.45
32.92246,477.59,603.72
32.94290,475.25,603.61
32.96223,469.30,603.65
32.98295,464.10,605.44
33.00200,462.13,604.49
33.02251,457.94,603.30
33.04312,455.58,606.58
33.06276,453.93,606.92
33.08245,455.27,605.00
33.10346,453.59,608.12
33.12303,452.69,608.27
33.14312,447.62,605.12
33.16372,449.30,607.78
33.18263,449.86,603.55
33.20287,443.62,604.31
33.22333,443.99,607.32
33.24390,441.08,604.21
33.26278,440.71,603.35
33.28383,439.73,601.49
33.30306,440.57,603.51
33.32293,438.42,603.50
33.34396,439.40,601.79
33.36296,440.88,603.76
33.38206,440.56,604.03
33.40392,442.25,603.76
33.42278,443.60,604.90
33.44226,439.83,603.19
33.46305,440.74,603.03
33.48278,440.64,602.13
33.50367,437.27,601.43
33.52332,438.86,600.50
33.54373,437.72,599.16
33.56489,438.27,598.84
33.58346,440.98,599.59
33.60388,441.49,596.88
33.62457,441.42,596.95
33.64372,440.16,601.60
33.66426,442.12,600.16
33.68469,444.21,599.94
33.70449,444.67,596.74
33.72417,444.19,598.48
33.74416,445.93,599.58
33.76481,445.79,600.34
33.78323,446.98,599.56
33.80450,444.83,596.73
33.82442,446.04,597.80
33.84321,445.98,595.19
33.86332,446.41,597.88
33.88459,445.38,596.67
33.90451,446.04,597.25
33.92439,444.13,597.03
33.94394,444.35,595.53
33.96431,446.32,596.40
33.98424,446.36,598.38
34.00428,446.21,598.12
34.02362,445.78,600.13
34.04534,444.51,599.97
34.06479,446.02,603.17
34.08491,445.25,601.18
34.10554,446.93,600.19
34.12453,448.32,601.91
34.14491,446.44,599.84
34.16521,448.30,600.32
34.18491,444.86,599.69
34.20459,447.34,601.74
34.22487,448.76,601.07
34.24444,446.88,600.29
34.26454,449.73,603.62
34.28413,448.26,605.91
34.30449,449.46,607.28
34.32540,448.66,603.98
34.34565,446.88,606.98
34.36593,447.52,604.18
34.38549,444.88,606.55
34.40476,447.15,605.23
34.42405,445.43,605.13
34.44423,445.54,605.44
34.46439,445.15,601.89
34.48410,446.39,602.68
34.50428,446.82,604.30
34.52522,447.37,603.35
34.54524,445.45,605.32
34.56507,445.65,605.66
34.58510,446.60,604.43
34.60577,445.21,604.36
34.62607,447.33,603.74
34.64498,447.65,606.01
34.66480,449.23,605.11
34.68501,446.77,608.17
34.70540,446.80,607.59
34.72449,449.61,607.69
34.74404,451.06,604.92
34.76415,450.57,607.94
34.78411,447.49,606.13
34.80438,448.86,606.09
34.82587,451.08,607.12
34.84425,450.71,603.57
34.86587,447.62,604.31
34.88441,450.05,603.76
34.90448,448.27,605.75
34.92502,448.17,605.95
34.94445,450.38,605.76
34.96508,451.75,603.32
34.98480,452.46,604.37
35.00568,450.00,605.99
35.02535,451.92,602.76
35.04431,451.02,605.30
35.06503,452.57,604.08
35.08521,449.34,604.59
35.10468,451.45,604.06
35.12564,452.50,600.98
35.14463,447.55,599.08
35.16547,447.41,600.76
35.18474,449.86,600.38
35.20481,450.95,600.10
35.22493,450.74,604.60
35.24582,450.99,605.03
35.26546,451.17,603.22
35.28515,453.15,604.33
35.30463,451.19,604.11
35.32454,455.07,601.88
35.34492,452.14,602.95
35.36563,453.80,600.70
35.38560,448.90,605.13
35.40462,450.55,603.40
35.42595,450.28,603.85
35.44541,450.76,603.69
35.46488,451.88,603.57
35.48470,449.87,604.40
35.50516,449.73,605.64
35.52412,449.57,606.55
35.54570,451.39,603.15
35.56469,451.23,604.04
35.58473,451.73,603.88
35.60459,451.69,606.06
35.62421,453.45,603.71
35.64501,452.42,603.74
35.66439,454.45,603.28
35.68408,453.18,604.22
35.70418,450.83,601.57
35.72511,453.08,603.47
35.74465,443.87,602.43
35.76405,424.80,598.70
35.78449,395.53,595.25
35.80431,368.42,593.49
35.82590,344.05,586.10
35.84461,322.66,576.07
35.86573,308.74,568.38
35.88453,302.80,557.65
35.90600,297.61,552.97
35.92599,299.71,545.92
35.94445,305.33,543.17
35.96555,311.29,543.90
35.98552,318.31,546.56
36.00573,327.94,547.41
36.02421,338.05,552.14
36.04446,346.63,555.95
36.06525,356.43,558.63
36.08558,367.54,559.56
36.10574,374.31,567.25
36.12442,385.97,570.23
36.14465,392.41,576.17
36.16464,398.16,576.18
36.18505,407.39,581.89
36.20416,411.39,581.89
36.22386,418.32,586.58
36.24538,426.51,592.31
36.26413,428.21,596.28
36.28528,431.50,598.22
36.30434,435.13,599.59
36.32448,440.34,598.83
36.34557,439.44,601.21
36.36434,442.87,598.89
36.38472,443.53,602.77
36.40427,444.62,603.66
36.42419,445.46,604.91
36.44480,448.13,604.33
36.46428,447.25,602.93
36.48483,448.80,606.64
36.50475,459.57,611.97
36.52502,478.85,630.52
36.54571,508.17,644.65
36.56412,536.98,653.15
36.58580,567.96,660.53
36.60405,596.61,667.33
36.62558,626.44,676.15
36.64449,643.49,675.83
36.66463,647.80,669.65
36.68399,642.39,661.95
36.70493,629.78,655.48
36.72420,617.08,646.29
36.74513,605.21,636.33
36.76554,590.01,630.80
36.78554,575.62,622.71
36.80427,561.36,618.41
36.82466,548.07,613.51
36.84549,533.78,612.07
36.86494,525.26,609.83
36.88513,517.10,605.76
36.90467,508.71,606.68
36.92456,501.02,603.56
36.94502,494.87,604.00
36.96599,489.47,604.57
36.98560,483.13,602.08
37.00457,479.80,604.01
37.02543,475.22,602.40
37.04458,475.43,603.83
37.06572,469.46,602.72
37.08467,469.19,604.55
37.10535,466.36,601.60
37.12587,464.31,601.70
37.14405,465.80,603.73
37.16410,464.50,602.81
37.18572,461.79,603.80
37.20523,462.61,606.08
37.22400,460.97,602.41
37.24487,460.91,602.94
37.26443,460.01,601.93
37.28543,458.03,603.24
37.30588,457.61,601.45
37.32564,458.03,600.17
37.34466,455.04,601.16
37.36507,453.81,600.61
37.38456,454.84,602.38
37.40568,456.23,605.49
37.42484,456.02,607.56
37.44498,453.71,609.22
37.46471,456.00,608.57
37.48449,457.56,608.41
37.50401,457.46,608.87
37.52562,457.96,611.98
37.54423,455.82,607.97
37.56403,458.36,610.98
37.58507,457.54,610.18
37.60414,455.98,610.98
37.62472,457.33,608.54
37.64483,455.83,609.07
37.66510,455.93,611.56
37.68433,456.99,608.43
37.70467,457.46,611.20
37.72491,457.10,607.75
37.74481,458.36,607.73
37.76533,458.87,610.86
37.78534,457.56,609.01
37.80546,456.85,606.05
37.82400,456.23,607.06
37.84482,458.15,605.20
37.86411,458.10,604.89
37.88418,459.09,604.78
37.90495,459.09,604.26
37.92489,459.14,605.22
37.94378,458.55,606.20
37.96452,457.64,605.80
37.98583,460.55,604.82
38.00486,461.08,604.99
38.02493,459.22,604.03
38.04523,460.40,604.22
38.06396,458.66,607.86
38.08518,460.53,607.55
38.10403,460.66,609.89
38.12552,461.21,610.00
38.14454,460.97,611.18
38.16462,462.87,611.32
38.18503,463.66,609.42
38.20524,461.12,611.41
38.22420,460.32,609.54
38.24393,458.68,609.28
38.26579,456.67,607.23
38.28561,456.51,604.97
38.30550,458.01,604.50
38.32571,458.22,605.09
38.34506,458.88,603.95
38.36540,457.88,601.66
38.38576,459.73,602.08
38.40495,460.56,603.07
38.42556,459.22,604.42
38.44477,456.93,605.21
38.46444,457.80,603.96
38.48514,458.36,603.91
38.50478,457.08,606.23
38.52408,456.37,607.21
38.54554,457.06,605.00
38.56474,456.92,605.16
38.58461,456.62,602.86
38.60511,455.59,604.50
38.62492,458.80,604.59
38.64537,459.03,605.54
38.66422,459.50,603.27
38.68531,457.25,605.30
38.70493,456.66,603.82
38.72521,457.56,604.61
38.74421,458.81,604.21
38.76450,460.41,604.49
38.78407,461.72,602.73
38.80424,458.95,605.32
38.82510,461.97,603.41
38.84419,459.41,606.43
38.86523,460.47,604.41
38.88528,464.81,605.77
38.90490,460.85,607.59
38.92466,462.66,605.01
38.94551,460.38,604.28
38.96491,463.03,604.97
38.98416,463.05,607.57
39.00552,466.03,604.21
39.02568,466.50,603.84
39.04403,463.24,605.77
39.06450,464.04,605.84
39.08485,462.23,604.25
39.10567,463.40,606.59
39.12527,463.74,607.81
39.14440,464.48,607.42
39.16586,462.60,608.63
39.18422,461.15,606.90
39.20591,461.03,607.64
39.22532,460.34,606.42
39.24466,461.84,606.72
39.26427,460.16,606.99
39.28573,458.17,605.18
39.30547,459.91,605.75
39.32518,460.62,604.32
39.34451,461.35,605.59
39.36461,460.51,604.06
39.38435,461.87,606.66
39.40563,460.23,605.75
39.42451,462.16,603.31
39.44566,461.14,605.78
39.46562,461.16,605.74
39.48463,460.12,602.53
39.50394,460.16,603.63
39.52455,459.83,602.94
39.54416,461.20,605.49
39.56469,462.49,605.38
39.58474,458.34,603.95
39.60393,459.25,606.29
39.62387,460.79,606.02
39.64473,461.96,604.23
39.66418,458.99,602.56
39.68579,460.63,605.48
39.70485,457.97,603.21
39.72414,461.33,603.84
39.74420,461.51,605.63
39.76421,461.27,604.44
39.78492,461.94,602.22
39.80512,461.00,604.27
39.82418,459.06,604.35
39.84470,444.82,599.77
39.86560,427.68,594.73
39.88476,407.40,592.17
39.90438,384.84,584.77
39.92534,365.24,580.87
39.94540,344.46,574.54
39.96511,329.79,566.82
39.98413,322.60,559.51
40.00468,315.65,555.92
40.02491,317.06,551.21
40.04578,320.12,551.89
40.06554,323.26,552.02
40.08410,333.50,551.66
40.10509,339.46,554.48
40.12461,346.87,556.47
40.14560,358.33,564.25
40.16538,368.71,566.39
40.18529,376.94,571.34
40.20405,384.89,575.69
40.22494,394.52,580.35
40.24504,401.84,580.99
40.26442,407.13,585.14
40.28517,415.99,590.39
40.30520,421.69,591.75
40.32466,426.50,595.14
40.34455,432.63,594.84
40.36488,435.12,597.63
40.38512,439.25,598.55
40.40505,444.81,596.31
40.42539,446.30,601.71
40.44468,447.48,599.68
40.46519,452.41,601.59
40.48482,452.32,601.22
40.50467,454.46,602.84
40.52496,456.26,605.08
40.54566,454.30,605.37
40.56412,456.63,607.11
40.58487,458.26,607.36
40.60573,456.66,605.89
40.62459,457.97,607.11
40.64452,456.47,608.13
40.66483,458.92,605.85
40.68583,456.42,606.83
40.70490,460.08,605.71
40.72493,465.24,606.52
40.74505,477.66,615.03
40.76459,497.06,626.65
40.78502,525.09,634.41
40.80393,555.69,643.90
40.82429,581.25,653.77
40.84419,605.09,662.05
40.86410,619.88,663.00
40.88449,627.84,661.06
40.90443,624.26,661.01
40.92530,615.08,654.38
40.94399,607.13,649.37
40.96422,594.69,647.52
40.98568,582.00,643.78
41.00391,566.55,639.60
41.02380,554.19,634.84
41.04428,543.03,629.22
41.06553,533.25,626.88
41.08433,522.82,624.82
41.10516,513.86,623.96
41.12545,508.48,620.70
41.14551,500.64,620.63
41.16497,496.86,619.20
41.18413,491.76,617.99
41.20529,487.33,614.06
41.22411,483.83,615.48
41.24552,479.16,611.61
41.26489,477.24,612.64
41.28506,473.24,611.63
41.30516,471.05,611.71
41.32508,469.25,608.03
41.34561,468.64,608.15
41.36542,466.98,607.91
41.38424,464.92,607.16
41.40397,464.25,607.99
41.42421,463.40,608.56
41.44477,465.04,608.63
41.46532,463.80,606.97
41.48491,462.44,605.00
41.50473,463.82,605.92
41.52444,462.60,606.83
41.54568,463.82,605.78
41.56576,461.62,609.66
41.58423,462.62,606.21
41.60408,459.13,606.11
41.62454,461.22,605.20
41.64563,460.14,606.36
41.66565,462.67,605.01
41.68446,461.69,604.68
41.70462,459.87,606.55
41.72545,464.12,608.83
41.74424,461.34,604.88
41.76456,460.45,607.00
41.78453,462.82,605.67
41.80510,460.11,607.66
41.82495,462.45,605.40
41.84523,460.09,608.29
41.86469,459.07,608.05
41.88543,460.98,607.79
41.90453,460.50,607.48
41.92560,458.88,607.43
41.94554,459.02,606.16
41.96531,458.56,608.74
41.98578,459.62,608.28
42.00447,462.65,607.72
42.02468,463.88,609.20
42.04411,462.65,609.53
42.06564,463.11,608.18
42.08477,460.97,611.41
42.10503,460.36,608.63
42.12435,457.35,609.85
42.14424,460.09,612.00
42.16540,459.56,609.55
42.18563,460.31,609.06
42.20567,460.97,607.76
42.22563,457.96,611.20
42.24550,459.31,608.53
42.26533,458.32,609.91
42.28547,457.28,609.15
42.30559,458.91,605.63
42.32431,459.17,606.72
42.34496,459.36,606.15
42.36416,456.53,606.82
42.38451,457.54,607.39
42.40490,456.19,608.42
42.42456,459.51,607.28
42.44440,456.21,606.50
42.46504,458.69,608.27
42.48441,457.37,608.99
42.50574,454.58,608.70
42.52565,457.16,606.91
42.54387,456.18,610.10
42.56521,458.34,608.97
42.58570,458.40,609.62
42.60442,456.97,610.74
42.62552,458.79,608.71
42.64423,457.86,605.92
42.66566,457.68,605.71
42.68559,457.37,606.71
42.70516,457.62,606.26
42.72389,459.32,608.28
42.74450,458.04,609.53
42.76492,458.38,608.78
42.78438,459.18,607.47
42.80495,459.02,610.36
42.82453,457.67,609.73
42.84407,460.09,609.17
42.86537,458.26,608.81
42.88480,460.02,608.65
42.90467,460.68,605.77
42.92445,458.72,607.22
42.94478,458.86,606.63
42.96589,460.84,608.32
42.98520,455.40,609.86
43.00557,458.28,609.80
43.02522,455.83,606.67
43.04391,458.37,606.85
43.06395,459.18,605.11
43.08495,458.88,605.04
43.10453,456.96,607.60
43.12563,459.13,609.79
43.14554,459.92,607.30
43.16558,459.20,606.55
43.18492,458.67,607.80
43.20633,457.29,605.82
43.22758,454.51,608.44
43.24599,454.69,606.57
43.26666,455.64,607.39
43.28677,451.89,606.18
43.30674,450.82,609.07
43.32604,452.16,605.94
43.34564,454.22,605.39
43.36743,453.20,606.78
43.38632,453.79,603.55
43.40615,451.82,607.00
43.42709,452.82,606.08
43.44587,453.47,607.94
43.46630,452.07,608.54
43.48765,450.67,609.29
43.50766,452.62,608.20
43.52688,450.88,606.58
43.54774,450.88,607.03
43.56729,453.68,609.88
43.58751,452.62,606.99
43.60603,454.01,610.87
43.62595,454.05,608.85
43.64671,450.67,606.74
43.66610,450.14,610.52
43.68629,450.54,608.51
43.70581,451.85,610.06
43.72632,452.30,607.95
43.74754,452.62,607.92
43.76741,452.30,609.08
43.78672,450.49,608.63
43.80592,448.13,607.55
43.82740,447.52,609.05
43.84587,450.10,607.49
43.86591,449.49,607.54
43.88587,450.49,608.92
43.90620,449.40,606.89
43.92627,451.77,609.22
43.94690,451.67,607.81
43.96674,451.14,605.71
43.98715,451.19,608.77
44.00718,450.74,609.43
44.02669,450.72,607.44
44.04699,450.28,607.22
44.06707,449.14,608.90
44.08772,452.80,605.02
44.10671,450.72,606.10
44.12660,450.63,605.94
44.14673,452.11,604.11
44.16623,450.81,605.12
44.18628,446.68,604.23
44.20646,448.35,608.43
44.22634,447.02,606.39
44.24732,451.76,604.89
44.26586,450.78,605.88
44.28709,449.54,605.19
44.30664,447.70,605.99
44.32777,448.28,606.08
44.34799,446.90,606.43
44.36846,445.99,602.54
44.38801,441.50,604.56
44.40698,443.16,603.93
44.42703,444.25,604.73
44.44834,445.29,602.16
44.46813,445.97,604.37
44.48757,448.56,605.31
44.50739,437.46,604.20
44.52805,420.11,596.90
44.54778,396.32,590.87
44.56760,371.79,586.47
44.58711,347.62,582.56
44.60719,330.47,577.93
44.62708,314.52,569.44
44.64868,306.42,564.81
44.66876,305.17,559.64
44.68735,301.27,554.46
44.70757,305.23,551.13
44.72833,311.67,550.16
44.74754,317.80,552.50
44.76879,328.65,559.00
44.78879,335.87,561.99
44.80804,348.94,564.08
44.82831,358.75,571.97
44.84731,367.52,576.17
44.86728,377.17,580.26
44.88868,384.21,581.97
44.90869,393.14,587.33
44.92693,398.66,590.04
44.94723,405.99,591.74
44.96748,410.53,596.77
44.98726,416.19,595.85
45.00821,420.73,598.36
45.02689,423.57,602.57
45.04817,428.09,601.87
45.06859,428.32,605.13
45.08726,433.21,604.14
45.10850,435.49,604.03
45.12730,435.99,606.10
45.14704,437.90,608.12
45.16770,436.94,604.22
45.18689,435.52,608.23
45.20834,437.23,607.98
45.22750,438.82,606.48
45.24752,438.06,607.12
45.26819,441.24,607.05
45.28845,439.97,608.67
45.30846,442.55,608.87
45.32759,439.44,606.91
45.34777,441.42,608.50
45.36799,438.24,606.52
45.38706,441.87,609.19
45.40811,442.06,607.03
45.42696,449.58,613.00
45.44687,468.52,621.57
45.46731,493.73,632.96
45.48764,521.04,644.47
45.50856,552.83,652.88
45.52856,578.07,661.57
45.54811,590.86,662.05
45.56933,597.46,659.06
45.58911,594.95,652.96
45.60902,587.66,650.45
45.62926,581.28,648.14
45.64853,568.36,642.72
45.66930,554.57,638.77
45.68988,543.04,635.66
45.70781,527.17,631.91
45.72945,513.17,627.56
45.74882,501.78,625.74
45.76836,492.59,622.65
45.78976,486.61,621.59
45.80792,477.74,618.12
45.82944,472.38,614.92
45.84789,468.30,615.67
45.86935,459.43,614.96
45.88790,458.70,614.45
45.90917,454.30,613.40
45.92927,451.97,611.89
45.94787,446.61,613.88
45.96911,445.00,612.61
45.98922,443.72,613.01
46.00773,444.75,611.05
46.02850,441.53,610.58
46.04906,441.90,610.96
46.06781,444.95,608.51
46.08930,441.72,608.58
46.10780,440.50,611.17
46.12921,438.91,611.56
46.14827,439.22,608.84
46.16908,440.24,611.95
46.18793,440.66,611.62
46.20783,439.79,611.58
46.22774,438.86,608.96
46.24946,437.92,610.99
46.26934,437.60,611.11
46.28804,438.40,611.78
46.30794,438.89,612.12
46.32846,439.85,615.06
46.34907,436.58,613.49
46.36848,437.91,614.11
46.38876,435.85,613.50
46.40940,435.07,616.08
46.42846,435.57,613.57
46.44950,436.81,614.60
46.46980,435.12,613.68
46.48800,438.87,615.34
46.50792,434.23,611.12
46.52885,435.69,612.33
46.54878,435.24,610.62
46.56929,435.21,609.20
46.58977,434.28,612.50
46.60866,437.01,610.91
46.62978,439.93,611.14
46.64898,441.21,611.01
46.66919,444.23,614.95
46.68820,445.04,611.49
46.70847,446.66,611.78
46.72858,444.57,611.07
46.74827,443.68,608.47
46.76949,444.87,611.43
46.78826,443.76,609.60
46.80883,443.35,611.28
46.82768,440.94,609.27
46.84842,441.54,606.49
46.86839,439.70,608.55
46.88945,437.69,609.89
46.91060,438.44,608.16
46.92918,439.73,608.44
46.94883,436.59,608.83
46.97028,438.15,607.87
46.99029,435.53,607.40
47.00969,436.54,606.64
47.03133,434.94,606.39
47.05044,435.23,606.80
47.07006,436.22,604.97
47.09028,435.92,604.60
47.10961,436.71,606.40
47.12986,433.85,606.03
47.15139,436.68,606.45
47.17136,436.51,604.06
47.19142,434.52,603.99
47.21084,433.43,604.26
47.23119,438.03,606.36
47.25068,436.22,603.70
47.27069,436.62,606.66
47.28956,437.31,606.02
47.31047,437.24,603.52
47.33124,439.37,605.01
47.35118,437.66,605.77
47.37051,440.00,607.00
47.39094,438.32,607.62
47.40953,439.41,604.98
47.43093,435.26,607.38
47.45065,438.34,603.69
47.46984,436.68,605.46
47.49002,437.48,603.62
47.50994,435.08,605.05
47.53016,435.96,603.85
47.55126,433.06,603.65
47.57222,433.21,602.36
47.59124,433.39,601.87
47.61179,434.86,602.05
47.63173,435.73,604.05
47.65277,435.11,602.84
47.67373,437.07,605.81
47.69440,440.38,606.63
47.71432,440.25,606.24
47.73544,446.63,605.01
47.75696,446.65,606.50
47.77635,448.04,607.15
47.79690,451.40,604.30
47.81606,453.92,607.59
47.83727,453.55,607.82
47.85578,454.29,607.71
47.87660,456.90,604.59
47.89716,455.92,603.99
47.91552,456.08,605.49
47.93597,456.69,606.03
47.95711,453.95,608.26
47.97661,456.20,607.32
47.99618,458.15,606.33
48.01727,454.95,609.23
48.03606,458.51,608.63
48.05735,457.45,607.97
48.07745,456.57,606.90
48.09663,458.07,608.48
48.11754,460.16,608.54
48.13602,458.04,608.19
48.15590,458.37,606.93
48.17566,459.65,609.73
48.19577,457.19,608.74
48.21689,460.30,607.59
48.23578,457.34,607.65
48.25752,458.28,609.16
48.27758,460.88,607.32
48.29719,457.46,609.79
48.31682,458.67,608.37
48.33657,459.59,608.63
48.35757,457.56,608.92
48.37596,458.03,606.96
48.39586,457.43,604.38
48.41591,459.77,603.73
48.43563,460.72,604.12
48.45609,460.24,603.82
48.47584,458.21,603.79
48.49638,459.04,605.32
48.51567,458.06,601.98
48.53700,459.23,601.64
48.55677,460.95,604.07
48.57616,457.28,603.73
48.59846,457.13,603.78
48.61757,459.32,601.40
48.63667,459.92,602.64
48.65850,458.75,603.86
48.67694,458.08,601.09
48.69769,458.12,601.23
48.71648,458.79,601.89
48.73688,457.85,603.21
48.75714,446.41,606.11
48.77738,423.53,605.96
48.79943,402.24,612.09
48.81878,380.69,616.24
48.84068,358.58,612.19
48.86220,343.69,602.20
48.88159,333.57,592.79
48.90268,326.50,581.40
48.92320,326.68,576.46
48.94326,325.19,570.73
48.96288,327.66,565.67
48.98290,333.42,565.71
49.00178,343.36,563.90
49.02375,345.89,565.13
49.04374,352.37,565.24
49.06548,359.49,570.15
49.08470,364.07,573.39
49.10445,373.08,578.16
49.12482,380.34,583.01
49.14516,385.28,584.56
49.16588,392.41,586.49
49.18450,396.92,587.88
49.20759,403.89,588.37
49.22654,406.51,589.82
49.24702,411.42,591.73
49.26767,412.47,591.95
49.28928,416.54,592.77
49.30922,417.82,593.22
49.32939,422.08,597.17
49.34894,424.04,594.63
49.36913,425.96,596.72
49.38842,429.26,597.85
49.40957,432.13,599.45
49.42865,433.19,599.78
49.44934,430.93,599.84
49.46902,433.33,603.59
49.48957,433.10,606.16
49.50971,445.45,611.69
49.52873,465.63,619.43
49.55034,493.09,629.40
49.57069,526.23,634.76
49.59026,555.65,642.06
49.61046,580.47,641.24
49.63121,595.85,642.64
49.65027,596.35,637.54
49.67076,593.42,632.75
49.69166,589.11,630.52
49.71237,578.45,624.36
49.73193,569.45,622.54
49.75153,555.69,619.64
49.77057,542.20,616.52
49.79146,530.97,616.92
49.81107,517.67,615.81
49.83166,510.05,612.93
49.85205,510.32,619.25
49.87166,506.06,627.40
49.89242,504.14,630.45
49.91209,500.38,634.38
49.93179,494.89,632.08
49.95245,492.11,631.02
49.97270,487.55,628.61
49.99310,483.25,628.19
50.01424,480.69,625.73
50.03443,477.95,624.26
50.05375,473.34,619.57
50.07451,472.33,619.09
50.09518,472.84,618.97
50.11415,470.28,618.37
50.13515,468.32,615.53
50.15422,467.53,615.72
50.17520,465.45,612.42
50.19440,462.10,613.90
50.21542,461.74,611.21
50.23395,458.66,612.87
50.25533,458.68,611.69
50.27450,457.89,610.26
50.29455,458.83,610.09
50.31472,459.50,609.39
50.33565,459.48,609.22
50.35444,458.73,609.12
50.37523,455.62,606.17
50.39545,458.38,606.02
50.41424,454.53,607.29
50.43495,454.92,607.94
50.45551,455.76,608.89
50.47484,458.10,608.23
50.49363,454.30,608.55
50.51515,456.52,606.24
50.53491,455.33,605.95
50.55414,459.68,607.44
50.57383,456.21,607.84
50.59395,459.05,608.05
50.61521,457.90,606.05
50.63461,455.92,608.69
50.65437,459.55,608.62
50.67476,456.68,607.39
50.69444,459.28,608.88
50.71356,457.72,608.46
50.73427,456.29,610.14
50.75449,459.02,609.44
50.77486,458.28,608.29
50.79422,457.80,608.79
50.81391,459.48,608.83
50.83362,458.37,610.49
50.85394,460.57,609.04
50.87375,460.33,607.19
50.89522,460.83,607.04
50.91418,457.65,605.36
50.93394,457.03,608.76
50.95507,460.04,605.12
50.97487,459.11,608.21
50.99367,459.26,608.40
51.01396,456.62,608.41
51.03494,457.36,609.02
51.05432,459.76,607.75
51.07566,458.14,606.49
51.09369,458.22,607.30
51.11498,461.09,607.99
51.13432,459.99,607.39
51.15429,457.76,608.10
51.17458,457.18,606.66
51.19434,457.13,606.81
51.21478,458.25,605.60
51.23386,458.90,605.33
51.25359,456.95,604.60
51.27509,459.08,608.55
51.29412,459.41,607.11
51.31380,460.68,608.93
51.33491,460.15,608.15
51.35497,460.67,606.46
51.37549,458.91,605.43
51.39422,456.22,607.59
51.41421,457.41,608.64
51.43458,456.93,605.07
51.45513,458.25,607.64
51.47422,460.03,607.88
51.49412,460.20,607.59
51.51377,459.00,605.05
51.53368,460.75,608.68
51.55359,459.80,607.66
51.57348,463.29,607.66
51.59484,460.45,606.25
51.61429,460.83,606.82
51.63523,461.47,605.07
51.65475,462.85,605.02
51.67421,462.55,606.36
51.69522,463.25,605.04
51.71540,460.33,607.26
51.73557,462.93,606.10
51.75429,462.62,606.23
51.77532,464.14,607.84
51.79461,461.51,607.41
51.81490,460.13,607.10
51.83507,458.66,607.07
51.85449,462.51,608.70
51.87539,459.40,606.61
51.89531,463.05,605.84
51.91546,461.26,605.02
51.93372,462.93,608.46
51.95399,461.59,608.50
51.97527,464.90,607.95
51.99463,462.78,606.14
52.01433,465.94,608.42
52.03383,466.80,609.32
52.05544,464.31,607.15
52.07361,462.13,607.64
52.09499,462.43,608.58
52.11516,460.45,609.38
52.13499,460.96,607.29
52.15555,457.89,608.98
52.17554,462.80,606.92
52.19398,460.17,608.74
52.21450,460.72,607.85
52.23413,459.89,610.12
52.25513,463.07,609.72
52.27450,461.21,608.78
52.29456,462.87,606.91
52.31446,465.50,609.80
52.33507,463.80,608.26
52.35531,466.16,609.09
52.37385,464.29,605.99
52.39397,466.06,605.79
52.41644,466.51,605.57
52.43484,463.46,606.90
52.45526,464.02,604.56
52.47528,460.62,602.32
52.49574,462.72,603.30
52.51527,462.19,603.32
52.53592,460.76,601.77
52.55643,462.85,602.75
52.57479,463.42,604.95
52.59484,462.08,604.83
52.61656,461.15,606.14
52.63532,451.08,604.02
52.65471,430.22,600.64
52.67645,407.20,598.51
52.69524,381.86,595.39
52.71634,360.03,591.23
52.73605,342.62,587.39
52.75572,332.58,582.16
52.77569,323.85,572.84
52.79468,319.57,569.63
52.81484,318.58,563.46
52.83550,320.15,560.04
52.85582,325.09,559.71
52.87544,330.93,560.69
52.89544,340.06,562.31
52.91674,349.18,562.13
52.93664,357.34,566.75
52.95665,368.51,569.31
52.97718,377.01,575.15
52.99749,387.89,575.58
53.01890,394.20,578.97
53.03875,402.77,585.42
53.05959,408.13,588.69
53.08214,410.50,592.53
53.10109,414.41,592.24
53.12078,416.99,597.58
53.14040,422.74,597.06
53.16093,425.11,598.35
53.18158,426.59,600.28
53.20127,428.09,600.62
53.22303,428.84,603.95
53.24285,430.96,600.71
53.26391,430.49,605.11
53.28418,433.52,602.17
53.30344,432.64,602.57
53.32317,433.22,606.46
53.34265,434.08,607.19
53.36395,434.39,605.53
53.38387,436.08,606.38
53.40406,436.40,604.93
53.42355,435.13,607.56
53.44421,436.62,604.70
53.46342,437.02,604.50
53.48367,434.29,607.18
53.50533,433.55,607.34
53.52414,436.91,607.08
53.54489,437.03,607.15
53.56508,441.22,610.23
53.58517,453.30,609.20
53.60604,473.50,612.87
53.62435,499.42,619.26
53.64435,525.62,627.27
53.66686,554.70,633.80
53.68727,581.22,641.71
53.70812,599.90,646.52
53.73001,609.21,651.12
53.74908,609.50,649.44
53.76895,601.50,647.29
53.79137,594.96,645.68
53.81094,582.17,641.52
53.82955,571.93,639.13
53.85089,562.24,635.76
53.87035,549.90,634.62
53.89207,542.50,630.72
53.91200,530.09,628.21
53.93335,520.97,624.92
53.95231,515.25,623.02
53.97179,508.90,623.05
53.99238,504.41,622.94
54.01465,495.97,622.59
54.03583,493.86,622.72
54.05574,490.09,620.72
54.07546,485.82,621.65
54.09459,483.39,620.32
54.11620,479.13,618.09
54.13551,476.05,616.98
54.15616,472.36,613.72
54.17587,468.61,613.18
54.19487,468.11,612.28
54.21589,464.99,610.99
54.23582,465.02,613.61
54.25657,462.02,612.63
54.27716,459.86,608.63
54.29629,459.68,609.40
54.31657,459.76,608.41
54.33608,459.00,610.68
54.35617,458.16,609.21
54.37677,459.78,609.87
54.39632,455.17,609.86
54.41699,452.49,607.79
54.43773,451.17,607.41
54.45653,453.31,607.09
54.47669,454.77,608.01
54.49670,453.61,605.71
54.51805,450.45,606.92
54.53658,450.40,608.66
54.55811,452.36,608.53
54.57765,450.12,609.52
54.59716,451.04,608.16
54.61658,452.01,608.58
54.63739,449.41,606.73
54.65732,450.10,608.97
54.67707,451.56,608.87
54.69806,449.77,611.56
54.71829,448.51,610.96
54.73760,450.65,609.95
54.75664,448.78,607.94
54.77807,451.00,607.12
54.79643,449.64,609.55
54.81715,449.29,608.94
54.83709,450.81,610.09
54.85740,449.42,608.69
54.87652,449.81,608.90
54.89774,450.33,609.33
54.91729,450.91,608.88
54.93740,450.79,609.85
54.95782,447.78,608.82
54.97711,448.98,609.10
54.99847,447.01,609.94
55.01797,447.96,608.20
55.03669,447.07,607.69
55.05697,450.21,610.53
55.07843,446.14,609.52
55.09740,446.76,607.31
55.11696,444.97,607.97
55.13695,444.94,610.71
55.15732,446.37,608.63
55.17746,446.02,610.69
55.19943,446.00,609.77
55.21973,442.33,609.33
55.23954,443.86,611.45
55.25978,443.10,609.79
55.27942,443.55,609.36
55.29843,440.34,610.93
55.31938,442.75,607.61
55.33981,440.13,609.09
55.35882,442.35,608.25
55.37872,439.83,610.37
55.39901,440.18,610.08
55.41847,442.18,609.80
55.43943,439.16,610.27
55.45974,439.08,612.22
55.47929,438.07,611.21
55.50004,439.33,608.83
55.51931,439.21,612.37
55.53844,439.39,611.27
55.55881,439.42,611.74
55.57911,438.88,612.28
55.59972,437.74,611.22
55.61949,436.26,613.23
55.64075,438.44,610.48
55.65982,438.93,611.73
55.68081,436.14,610.29
55.70134,437.43,611.45
55.72133,435.86,609.38
55.73967,435.45,609.59
55.76103,434.52,610.49
55.77997,431.48,606.01
55.80020,433.38,608.83
55.81994,434.19,608.06
55.83974,433.16,610.52
55.85952,437.16,606.54
55.88131,437.20,605.52
55.89956,435.51,608.56
55.91959,434.72,604.85
55.94063,433.67,604.85
55.96097,435.74,605.25
55.97926,434.54,601.78
55.99964,435.22,604.25
56.02069,433.80,600.92
56.04075,433.48,604.09
56.06089,434.19,602.63
56.08078,435.48,603.55
56.10221,433.22,603.27
56.12273,433.58,605.28
56.14262,433.58,603.53
56.16355,435.26,606.33
56.18334,435.63,606.45
56.20329,437.86,604.44
56.22416,436.46,605.82
56.24302,439.05,605.45
56.26257,435.55,604.88
56.28320,437.59,603.83
56.30310,434.93,602.59
56.32280,434.49,605.06
56.34396,435.95,602.76
56.36400,434.18,604.08
56.38347,434.25,606.81
56.40268,436.45,605.98
56.42367,433.70,603.35
56.44433,435.79,604.37
56.46349,433.57,603.78
56.48287,435.78,603.57
56.50311,435.16,603.76
56.52415,437.21,603.63
56.54407,437.06,601.52
56.56426,438.88,602.31
56.58371,437.16,605.61
56.60411,438.29,603.57
56.62286,440.27,604.82
56.64411,436.95,603.93
56.66247,439.78,600.38
56.68404,439.11,599.65
56.70413,434.54,602.33
56.72419,426.57,604.26
56.74297,408.87,606.95
56.76325,389.75,605.64
56.78251,366.80,606.99
56.80313,347.47,606.46
56.82329,327.62,606.32
56.84318,315.94,603.86
56.86393,305.64,599.03
56.88417,299.04,593.02
56.90253,300.09,584.96
56.92389,304.11,580.61
56.94250,306.52,574.31
56.96293,310.21,571.32
56.98323,320.62,566.04
57.00395,329.44,566.85
57.02326,340.53,565.32
57.04335,350.79,566.47
57.06243,359.27,569.44
57.08447,370.74,572.70
57.10250,379.74,574.23
57.12256,387.23,577.10
57.14343,394.48,579.59
57.16388,402.84,582.38
57.18357,404.23,584.97
57.20246,416.68,594.55
57.22379,444.01,610.30
57.24286,480.14,626.49
57.26380,515.24,646.47
57.28379,551.33,663.22
57.30358,582.07,677.19
57.32331,601.04,691.44
57.34271,608.57,704.88
57.36281,607.02,719.43
57.38249,603.96,720.88
57.40320,591.01,703.51
57.42309,574.56,675.98
57.44404,555.59,644.75
57.46238,539.30,619.16
57.48439,525.14,593.00
57.50415,514.20,576.25
57.52362,500.53,563.74
57.54375,493.70,551.71
57.56330,483.60,548.76
57.58296,478.02,543.51
57.60387,473.58,542.16
57.62286,467.58,542.72
57.64381,466.80,545.37
57.66260,461.80,550.08
57.68339,460.31,558.72
57.70343,461.02,577.08
57.72399,456.43,609.54
57.74465,446.61,641.41
57.76613,439.62,659.11
57.78481,434.09,659.38
57.80466,434.04,647.83
57.82522,435.17,639.05
57.84636,432.81,625.02
57.86497,435.55,611.45
57.88524,438.39,600.91
57.90457,438.17,592.36
57.92508,443.17,586.20
57.94452,445.17,579.94
57.96537,444.82,577.80
57.98453,449.38,577.21
58.00562,449.44,579.97
58.02643,453.02,577.55
58.04525,454.05,575.97
58.06533,455.03,575.09
58.08469,456.45,578.63
58.10531,455.85,580.53
