Program Time [s],data 0,data 1
49.61640,488.47,627.69
49.63621,485.77,624.04
49.65619,487.55,625.81
49.67654,489.00,625.46
49.69543,485.72,626.82
49.71435,488.25,622.43
49.73506,483.50,621.50
49.75597,486.67,621.75
49.77519,487.20,621.03
49.79423,487.33,619.86
49.81447,486.64,620.53
49.83436,483.83,619.98
49.85428,484.88,618.72
49.87576,485.19,617.42
49.89478,487.10,616.20
49.91479,486.73,615.62
49.93643,485.78,619.43
49.95611,484.23,619.39
49.97523,487.21,617.40
49.99549,484.80,616.83
50.01584,485.84,615.84
50.03719,484.11,618.49
50.05728,484.03,617.59
50.07577,483.85,615.70
50.09708,482.33,617.26
50.11552,481.33,617.64
50.13742,484.54,612.26
50.15675,481.64,615.97
50.17587,482.72,614.87
50.19559,484.08,613.96
50.21729,482.33,616.41
50.23607,483.65,615.48
50.25661,483.20,616.88
50.27740,484.69,618.28
50.29627,481.30,615.53
50.31696,484.68,616.29
50.33666,481.10,616.88
50.35562,483.52,619.61
50.37699,481.37,618.95
50.39665,484.78,615.04
50.41618,484.63,613.66
50.43647,484.38,617.19
50.45548,481.03,614.58
50.47732,480.84,617.17
50.49726,470.72,613.48
50.51614,456.60,605.63
50.53598,439.42,599.19
50.55614,417.35,592.17
50.57551,399.92,586.21
50.59673,382.47,573.33
50.61571,370.52,566.91
50.63679,358.25,559.02
50.65695,354.18,552.64
50.67547,351.86,551.34
50.69647,349.50,548.65
50.71783,354.76,547.62
50.73650,357.13,552.77
50.75802,364.78,554.49
50.77776,373.78,560.73
50.79648,380.94,561.86
50.81767,389.32,568.08
50.83724,398.57,573.35
50.85723,407.65,580.10
50.87769,414.59,582.49
50.89711,423.17,586.02
50.91756,428.09,590.22
50.93746,432.09,593.31
50.95685,438.35,597.03
50.97718,444.87,599.89
50.99806,446.38,603.61
51.01745,453.81,606.18
51.03736,455.64,606.45
51.05701,459.06,610.27
51.07685,460.93,611.06
51.09721,465.78,611.97
51.11775,465.67,613.54
51.13729,469.96,615.84
51.15637,469.51,615.53
51.17683,470.78,613.87
51.19640,471.14,614.42
51.21791,474.19,610.61
51.23686,472.56,607.66
51.25800,474.51,608.60
51.27756,476.96,605.25
51.29680,476.31,602.82
51.31797,477.21,605.65
51.33771,476.29,604.75
51.35692,484.89,610.59
51.37626,499.74,620.40
51.39709,519.68,632.44
51.41813,540.90,642.06
51.43763,565.28,656.79
51.45712,589.45,667.60
51.47827,609.11,682.31
51.49980,624.23,688.15
51.51812,626.55,688.51
51.53913,623.43,685.49
51.55874,614.46,678.63
51.57915,605.51,674.54
51.59991,594.62,666.79
51.61921,583.85,660.54
51.63966,569.80,651.82
51.66001,562.61,650.02
51.67901,550.32,642.67
51.70032,539.77,639.24
51.72090,530.83,634.19
51.73973,521.45,632.37
51.76082,516.73,626.90
51.78110,510.99,625.11
51.80183,506.07,626.00
51.82205,501.14,622.68
51.84036,494.13,622.00
51.86026,490.42,623.06
51.88228,484.33,618.65
51.90141,481.57,618.75
51.92046,480.16,618.41
51.94121,479.04,620.14
51.96122,478.28,622.12
51.98211,477.69,624.48
52.00063,477.72,627.09
52.02139,474.83,628.98
52.04155,471.94,632.52
52.06075,470.18,629.05
52.08196,468.55,632.49
52.10114,471.37,627.56
52.12162,469.86,628.35
52.14065,468.18,629.21
52.16084,468.61,628.06
52.18149,469.18,626.35
52.20148,467.88,627.86
52.22144,469.46,623.38
52.24175,469.83,621.66
52.26178,470.99,620.51
52.28052,470.58,618.63
52.30168,469.69,619.18
52.32033,470.19,617.42
52.34178,469.13,617.44
52.36180,469.17,618.97
52.38123,471.64,615.88
52.40138,471.87,616.15
52.42210,470.82,619.81
52.44051,470.19,616.31
52.46057,470.80,618.38
52.48221,467.93,616.12
52.50224,469.42,617.66
52.52157,467.50,615.61
52.54234,468.55,613.15
52.56117,467.96,612.44
52.58062,469.17,611.56
52.60160,469.75,611.48
52.62214,469.72,613.13
52.64041,468.56,613.47
52.66133,468.68,611.98
52.68183,469.97,612.90
52.70205,468.74,614.52
52.72109,469.64,615.05
52.74206,466.20,614.27
52.76188,467.55,613.86
52.78032,466.81,615.48
52.80053,465.68,612.74
52.82202,469.46,612.65
52.84080,465.53,615.56
52.86087,468.24,612.93
52.88054,464.98,609.88
52.90107,466.25,612.65
52.92075,467.92,612.21
52.94123,470.28,611.52
52.96099,468.80,614.48
52.98048,469.56,615.01
53.00116,467.70,614.23
53.02175,470.30,615.79
53.04206,466.09,615.35
53.06096,465.89,613.68
53.08157,469.25,614.25
53.10141,467.18,614.62
53.12045,466.23,615.86
53.14170,467.84,617.39
53.16128,465.90,616.37
53.18148,466.20,615.60
53.20144,468.24,613.50
53.22167,468.50,613.71
53.24174,468.22,612.96
53.26182,466.54,612.80
53.28046,468.26,612.97
53.30196,471.19,612.92
53.32139,471.80,614.61
53.34188,471.43,614.14
53.36162,470.17,612.69
53.38144,470.16,611.97
53.40222,471.40,616.63
53.42109,472.17,613.46
53.44119,472.27,613.04
53.46178,471.80,614.38
53.48119,469.63,613.14
53.50203,468.72,609.65
53.52028,469.05,609.52
53.54052,471.15,609.49
53.56093,469.60,610.92
53.58149,468.70,609.03
53.60227,468.78,605.25
53.62188,468.37,605.47
53.64042,466.72,602.87
53.66190,468.84,602.66
53.68074,468.22,603.90
53.70224,469.11,602.24
53.72125,466.58,604.28
53.74034,469.58,603.47
53.76131,469.46,605.22
53.78189,467.77,606.21
53.80206,469.75,608.29
53.82024,466.99,607.31
53.84060,465.59,607.89
53.86140,468.52,608.51
53.88196,465.39,609.81
53.90295,467.23,614.21
53.92178,466.23,611.67
53.94217,469.72,610.01
53.96161,468.49,611.86
53.98157,466.69,610.61
54.00136,469.62,609.83
54.02283,470.19,612.04
54.04291,469.55,611.34
54.06170,468.37,611.09
54.08180,469.04,611.71
54.10208,466.76,611.41
54.12272,455.35,608.65
54.14146,441.03,602.44
54.16294,419.95,594.21
54.18258,402.85,586.36
54.20196,384.38,578.07
54.22132,369.63,569.28
54.24139,354.06,562.43
54.26165,346.11,554.23
54.28254,344.24,552.46
54.30316,344.45,548.58
54.32206,347.29,544.33
54.34323,351.53,549.24
54.36305,357.70,554.34
54.38387,363.47,557.69
54.40269,370.88,565.54
54.42321,379.75,572.55
54.44316,387.08,576.73
54.46302,394.87,582.51
54.48242,400.79,586.45
54.50232,411.13,591.32
54.52375,416.78,594.74
54.54357,423.33,597.92
54.56338,432.34,601.53
54.58251,435.18,602.24
54.60348,443.52,600.46
54.62325,444.27,606.86
54.64388,449.39,604.39
54.66294,453.22,608.37
54.68402,456.83,610.33
54.70370,459.79,611.84
54.72434,458.84,610.87
54.74353,459.81,613.06
54.76377,464.09,611.88
54.78269,466.15,613.14
54.80248,465.13,612.74
54.82424,466.91,614.79
54.84274,468.56,613.08
54.86291,468.44,614.29
54.88320,470.41,612.67
54.90265,471.98,615.32
54.92232,472.12,615.51
54.94408,470.80,614.04
54.96283,470.87,615.99
54.98284,473.26,613.85
55.00412,471.22,615.47
55.02357,469.91,614.33
55.04340,472.60,612.89
55.06272,472.86,613.75
55.08269,471.17,614.71
55.10236,475.51,614.77
55.12323,481.96,624.10
55.14257,497.48,633.40
55.16330,520.65,650.36
55.18229,542.97,663.70
55.20317,570.60,680.02
55.22344,596.86,695.33
55.24222,618.12,702.49
55.26251,630.07,701.64
55.28313,630.20,697.15
55.30350,628.57,689.77
55.32246,621.79,680.09
55.34424,613.23,674.18
55.36235,599.73,662.02
55.38374,588.38,656.33
55.40269,575.00,653.46
55.42295,563.88,647.05
55.44299,553.01,644.58
55.46296,543.92,636.53
55.48266,533.44,636.69
55.50235,527.75,634.07
55.52242,517.45,630.33
55.54278,514.00,626.22
55.56410,509.40,628.65
55.58328,501.54,626.50
55.60295,498.78,624.97
55.62395,493.04,623.45
55.64405,489.74,621.73
55.66225,486.94,623.16
55.68326,487.17,620.61
55.70411,483.14,619.24
55.72310,480.11,618.44
55.74415,481.29,617.57
55.76403,476.44,615.25
55.78431,475.70,616.70
55.80348,479.37,612.35
55.82428,476.91,612.47
55.84445,477.05,610.98
55.86444,479.22,612.82
55.88324,477.07,610.55
55.90494,477.49,613.64
55.92404,475.61,614.66
55.94467,474.52,614.32
55.96367,476.72,615.98
55.98491,477.15,615.04
56.00467,478.07,613.82
56.02362,476.42,614.33
56.04390,474.94,614.32
56.06358,476.52,615.06
56.08495,477.09,616.59
56.10431,478.36,613.08
56.12345,480.86,612.98
56.14407,478.29,612.45
56.16375,476.77,613.78
56.18499,479.80,614.46
56.20356,479.49,613.53
56.22340,478.16,611.02
56.24464,478.76,610.65
56.26341,477.77,604.70
56.28342,476.22,605.46
56.30425,478.39,600.72
56.32405,476.72,603.12
56.34424,477.53,602.51
56.36375,478.18,604.84
56.38487,476.81,605.59
56.40466,476.86,606.02
56.42317,477.57,607.44
56.44463,478.23,610.04
56.46429,475.50,611.71
56.48412,478.42,612.73
56.50322,477.44,613.36
56.52395,477.48,613.59
56.54408,479.18,616.27
56.56433,477.33,616.87
56.58398,477.94,615.12
56.60467,480.72,616.59
56.62489,480.26,614.61
56.64456,481.34,614.51
56.66462,477.58,614.45
56.68465,479.56,617.62
56.70383,478.81,616.94
56.72427,477.62,617.39
56.74452,475.66,617.84
56.76515,476.42,616.19
56.78420,474.99,619.66
56.80506,474.38,620.49
56.82364,475.70,623.35
56.84462,477.84,626.98
56.86523,474.03,627.60
56.88460,476.52,626.59
56.90401,478.21,627.94
56.92468,476.47,626.78
56.94521,475.20,625.16
56.96453,476.04,625.43
56.98457,475.92,623.65
57.00333,475.38,623.17
57.02492,478.13,622.60
57.04361,477.35,622.46
57.06467,476.76,623.94
57.08500,476.53,619.35
57.10491,476.95,620.73
57.12487,477.50,615.99
57.14352,478.94,616.88
57.16420,475.76,617.47
57.18456,476.63,615.87
57.20484,477.89,615.11
57.22351,477.11,615.24
57.24317,474.99,615.04
57.26501,476.03,612.45
57.28474,478.89,613.28
57.30493,478.42,612.62
57.32485,481.00,613.12
57.34442,480.66,612.77
57.36427,480.60,614.47
57.38476,477.37,614.11
57.40352,479.76,613.43
57.42406,481.33,610.43
57.44504,479.30,608.87
57.46391,480.07,607.61
57.48469,480.09,607.62
57.50539,481.48,607.33
57.52601,479.97,607.19
57.54667,480.15,607.46
57.56679,485.14,608.36
57.58676,486.05,606.61
57.60699,483.85,610.95
57.62637,484.49,607.63
57.64650,486.60,609.40
57.66721,486.03,609.78
57.68752,487.45,610.68
57.70769,488.01,610.69
57.72847,486.14,612.93
57.74846,486.42,611.65
57.76832,485.44,612.75
57.78948,485.40,612.78
57.80941,486.47,612.84
57.82993,487.82,611.73
57.84943,487.27,613.43
57.86897,487.56,612.71
57.88875,487.39,611.56
57.90928,485.75,612.95
57.92956,489.54,612.45
57.94966,489.07,608.13
57.96925,488.02,610.97
57.98896,488.52,611.77
58.00973,488.04,610.15
58.02801,485.81,610.51
58.04909,490.26,611.12
58.06867,487.04,611.52
58.08945,488.46,611.80
58.10945,490.22,611.89
58.12852,490.63,612.66
58.15017,492.27,615.43
58.16943,490.79,612.51
58.18868,493.67,615.47
58.20919,487.58,612.53
58.22842,472.84,614.18
58.24986,456.12,614.40
58.26842,433.07,614.72
58.28919,412.61,614.13
58.30945,395.02,607.16
58.32942,380.55,596.13
58.35003,366.83,585.17
58.36960,361.89,569.50
58.38877,358.01,551.29
58.40850,359.54,540.75
58.42859,361.47,530.66
58.44943,366.03,529.93
58.47018,373.57,528.27
58.48869,380.19,530.20
58.50950,389.28,536.82
58.52858,396.04,540.73
58.54984,406.70,547.55
58.56857,414.49,552.49
58.58856,423.10,562.67
58.60978,429.27,566.81
58.62843,436.61,572.20
58.64860,445.91,577.42
58.66864,449.95,584.00
58.68999,455.59,585.76
58.70894,459.62,588.21
58.72893,465.65,595.08
58.74988,466.89,596.14
58.76986,471.54,598.72
58.78958,472.57,603.63
58.80946,472.14,604.70
58.82999,475.73,605.18
58.84901,477.20,607.86
58.86930,479.15,607.26
58.88981,478.54,610.85
58.90985,483.41,612.92
58.92920,481.78,612.39
58.94855,483.76,608.94
58.96955,481.63,610.88
58.98909,483.59,610.85
59.00832,484.74,609.95
59.02972,490.08,610.48
59.04854,489.19,609.58
59.06974,488.76,607.75
59.08966,489.91,604.58
59.10899,494.35,603.39
59.12987,499.27,608.50
59.14885,511.09,616.50
59.16966,528.12,630.60
59.18904,550.32,649.24
59.21004,578.43,665.92
59.22861,602.68,677.70
59.24827,624.84,688.90
59.26842,646.09,696.04
59.28899,649.76,693.10
59.30887,651.15,686.32
59.32955,644.52,678.73
59.34818,631.71,673.33
59.36967,620.76,665.23
59.39015,609.12,658.57
59.40956,596.71,651.29
59.42954,583.30,647.59
59.45019,571.52,641.60
59.47001,565.82,639.61
59.48934,554.49,634.90
59.50924,546.37,632.40
59.52990,537.95,630.52
59.54899,530.25,627.96
59.56968,528.67,627.82
59.58956,521.14,623.17
59.60905,518.80,623.19
59.62958,512.03,622.92
59.64961,511.44,622.04
59.66971,509.52,620.68
59.68938,504.91,619.99
59.70838,503.82,620.72
59.73004,503.16,617.06
59.74953,498.83,617.81
59.76825,499.11,618.87
59.78905,497.42,618.99
59.80907,496.92,619.47
59.82827,492.79,620.36
59.84955,493.49,620.03
59.86936,491.40,623.80
59.88858,492.14,624.91
59.90922,495.18,628.13
59.92894,493.40,628.14
59.94928,492.54,630.57
59.96941,494.22,631.27
59.98893,492.78,629.59
60.00903,490.55,631.33
60.02924,491.04,631.59
60.04941,492.20,629.96
60.07082,491.38,628.37
60.08974,492.00,626.34
60.11017,492.73,625.30
60.13008,491.68,627.66
60.15101,491.58,624.96
60.17106,489.10,624.28
60.19077,490.67,622.76
60.21074,490.37,622.65
60.23024,490.05,622.77
60.25102,486.94,622.85
60.27027,489.98,622.37
60.28910,490.71,620.08
60.31040,487.05,618.80
60.33011,487.38,620.79
60.34981,489.11,616.95
60.37016,490.66,619.91
60.39038,488.30,616.89
60.41045,487.97,618.69
60.43074,489.44,619.65
60.45005,489.04,619.25
60.47121,489.10,620.63
60.49008,485.47,618.20
60.51052,488.38,618.06
60.53076,486.18,620.75
60.55095,486.43,618.23
60.56949,485.83,617.17
60.59075,487.01,617.52
60.61085,485.41,618.14
60.63007,488.23,614.74
60.64994,488.99,615.05
60.67111,488.13,614.15
60.69064,485.56,615.07
60.70999,486.32,613.55
60.73024,488.46,614.39
60.75080,489.87,612.31
60.77189,488.71,612.99
60.79202,486.36,614.26
60.81104,483.48,614.36
60.83080,485.86,613.88
60.85123,484.39,612.40
60.87033,487.60,614.27
60.89125,488.91,615.99
60.91075,488.67,614.06
60.93071,486.91,616.23
60.95154,488.56,616.66
60.97091,489.51,618.63
60.99176,490.50,617.46
61.01182,488.74,616.36
61.03242,485.55,613.29
61.05168,482.71,614.16
61.07307,485.40,613.11
61.09119,483.52,611.91
61.11273,480.13,616.14
61.13172,482.06,615.99
61.15318,478.85,615.17
61.17135,481.72,615.59
61.19295,481.89,617.02
61.21158,480.38,617.34
61.23129,479.00,616.77
61.25108,482.03,618.02
61.27132,481.58,614.73
61.29224,478.69,617.46
61.31245,481.40,617.68
61.33289,479.96,614.28
61.35273,479.30,613.73
61.37222,480.83,614.13
61.39258,480.91,615.95
61.41184,479.93,614.44
61.43246,480.50,613.04
61.45135,482.18,615.02
61.47159,482.26,613.43
61.49181,480.92,614.23
61.51251,482.82,612.13
61.53290,480.51,611.59
61.55199,481.25,614.64
61.57231,481.66,612.60
61.59128,482.92,614.26
61.61278,481.29,614.15
61.63221,480.43,613.60
61.65269,479.67,615.09
61.67255,478.37,617.35
61.69283,480.58,616.08
61.71095,477.93,617.26
61.73285,470.22,616.62
61.75146,453.87,615.54
61.77246,429.91,617.22
61.79207,407.58,616.58
61.81327,388.84,610.24
61.83189,374.10,601.57
61.85286,359.06,591.52
61.87240,353.28,577.75
61.89109,349.12,566.89
61.91152,346.40,554.64
61.93276,346.45,548.75
61.95131,347.99,542.25
61.97184,354.77,538.08
61.99189,361.48,539.80
62.01186,370.66,541.49
62.03128,379.82,546.41
62.05210,389.80,553.00
62.07193,399.43,558.52
62.09221,406.38,561.33
62.11112,415.05,568.57
62.13114,424.87,575.25
62.15083,432.28,581.82
62.17174,438.95,586.48
62.19180,442.45,588.13
62.21180,446.01,590.96
62.23171,448.87,593.08
62.25117,456.52,594.66
62.27301,458.65,598.99
62.29241,461.72,599.74
62.31179,466.70,601.30
62.33087,467.61,600.20
62.35300,472.70,598.97
62.37242,472.95,599.71
62.39278,471.83,598.59
62.41289,474.47,599.86
62.43181,477.38,601.89
62.45279,474.93,600.76
62.47222,474.93,602.03
62.49147,477.18,602.67
62.51183,479.46,607.68
62.53211,492.44,617.53
62.55120,505.91,627.38
62.57216,525.85,639.08
62.59288,551.99,652.56
62.61266,576.27,661.81
62.63229,601.82,676.15
62.65212,621.44,683.90
62.67186,638.30,690.02
62.69147,644.21,691.48
62.71235,640.76,685.16
62.73198,634.92,679.02
62.75218,623.57,671.91
62.77250,610.06,663.93
62.79268,598.89,658.37
62.81189,583.80,653.61
62.83261,570.82,646.68
62.85260,561.84,643.31
62.87203,551.11,637.91
62.89133,539.24,634.19
62.91123,531.76,630.35
62.93136,526.60,628.15
62.95286,520.26,624.26
62.97290,517.27,622.74
62.99274,508.79,620.56
63.01259,505.30,618.35
63.03186,502.50,617.60
63.05162,496.09,616.96
63.07222,496.77,618.67
63.09291,492.94,616.08
63.11194,488.55,617.82
63.13216,488.43,615.89
63.15107,486.14,617.19
63.17250,484.97,617.13
63.19245,486.20,617.79
63.21188,486.01,621.81
63.23185,485.16,622.56
63.25138,481.47,627.45
63.27165,481.11,627.41
63.29249,480.11,626.60
63.31138,479.89,626.04
63.33264,479.41,625.17
63.35233,475.48,627.55
63.37252,478.23,624.12
63.39281,473.39,623.53
63.41193,474.77,623.54
63.43181,478.70,624.94
63.45200,479.95,623.42
63.47273,477.54,625.42
63.49117,479.81,623.54
63.51101,477.69,621.92
63.53163,480.68,619.71
63.55113,480.58,620.38
63.57106,479.50,618.01
63.59162,478.70,619.75
63.61175,476.56,619.75
63.63287,476.11,619.99
63.65120,477.04,618.94
63.67271,478.89,619.22
63.69129,479.71,617.19
63.71238,478.30,616.68
63.73264,477.64,616.22
63.75166,475.54,617.75
63.77245,479.83,618.67
63.79296,476.52,618.35
63.81133,477.15,618.14
63.83240,476.70,616.16
63.85226,478.86,615.58
63.87113,477.33,614.33
63.89252,476.69,616.37
63.91103,478.36,616.54
63.93227,480.46,615.75
63.95203,477.38,616.91
63.97213,477.25,616.20
63.99157,478.25,614.69
64.01142,476.85,618.46
64.03170,480.52,616.46
64.05258,479.37,617.73
64.07249,477.72,617.48
64.09220,478.28,615.52
64.11227,477.39,616.87
64.13352,479.30,617.32
64.15307,477.13,616.53
64.17481,475.36,617.69
64.19563,472.64,620.08
64.21527,472.40,617.69
64.23423,473.52,619.51
64.25421,474.83,619.41
64.27487,473.57,617.15
64.29586,472.89,618.68
64.31514,470.60,615.86
64.33420,472.62,615.97
64.35450,469.60,615.30
64.37424,471.96,616.22
64.39566,471.35,613.48
64.41574,468.34,617.46
64.43444,468.37,615.91
64.45451,471.42,614.50
64.47492,469.28,616.32
64.49466,468.52,617.03
64.51563,469.44,614.62
64.53591,468.43,616.28
64.55392,467.34,615.75
64.57497,469.53,616.18
64.59488,467.67,616.78
64.61445,467.56,615.23
64.63563,467.54,615.37
64.65563,467.27,616.18
64.67582,467.79,616.49
64.69508,466.00,616.39
64.71504,468.49,618.13
64.73503,470.18,618.36
64.75590,469.39,615.69
64.77543,468.39,617.42
64.79663,470.97,617.59
64.81619,469.63,616.86
64.83574,471.48,616.95
64.85672,469.23,615.56
64.87610,469.08,614.21
64.89580,468.93,614.96
64.91776,468.67,614.59
64.93720,468.48,616.67
64.95816,469.07,612.81
64.97737,472.25,614.30
64.99840,470.73,614.08
65.01791,469.80,610.89
65.03737,463.99,607.69
65.05767,451.30,599.99
65.07862,429.60,595.61
65.09875,409.25,590.00
65.11772,386.74,585.98
65.13806,368.58,578.01
65.15877,355.89,575.53
65.17753,348.38,568.37
65.19770,341.81,563.80
65.21744,338.43,557.84
65.23869,338.40,554.95
65.25859,340.60,553.61
65.27811,347.94,553.08
65.29819,354.35,552.47
65.31841,361.17,552.86
65.33773,371.53,553.69
65.35860,376.55,558.17
65.37780,387.91,563.12
65.39796,397.31,567.63
65.41835,405.90,573.21
65.43778,412.34,576.03
65.45761,418.95,581.64
65.47856,425.76,584.61
65.49773,430.44,589.64
65.51774,435.29,592.97
65.53864,441.06,595.58
65.55734,444.76,594.49
65.57699,450.10,600.97
65.59824,452.48,603.06
65.61841,453.48,603.15
65.63764,453.70,605.69
65.65877,458.67,605.51
65.67873,468.79,610.55
65.69778,493.68,625.37
65.71744,521.42,647.50
65.73841,552.95,662.70
65.75715,583.86,675.06
65.77725,609.76,685.10
65.79764,629.29,688.38
65.81701,636.36,686.19
65.83872,637.88,677.85
65.85799,629.33,672.72
65.87809,620.30,665.49
65.89821,607.89,656.08
65.91883,594.10,651.01
65.93798,583.29,645.41
65.95770,572.92,641.15
65.97868,559.49,638.20
65.99912,547.63,636.87
66.01827,539.88,633.41
66.03912,530.40,628.25
66.05916,526.57,629.89
66.07914,520.16,625.55
66.09921,513.97,627.27
66.11893,508.62,624.96
66.13949,502.42,624.64
66.15966,501.07,624.30
66.17812,495.30,621.69
66.19991,492.50,619.40
66.21819,490.30,617.46
66.23792,489.36,616.66
66.25817,484.57,617.44
66.27798,484.74,618.01
66.29928,480.45,618.48
66.31862,480.30,615.58
66.33858,481.85,615.16
66.35985,480.73,616.19
66.37826,480.02,612.97
66.39978,479.88,611.88
66.41850,478.08,611.75
66.43941,476.52,614.33
66.45979,477.70,611.48
66.47879,476.68,612.10
66.49870,476.25,614.07
66.51939,477.19,613.30
66.53989,476.44,610.90
66.55872,478.28,612.77
66.57966,478.39,611.97
66.59864,476.25,614.45
66.61917,475.36,614.38
66.63968,478.16,614.44
66.65946,476.54,614.69
66.67844,474.65,614.74
66.69870,478.41,612.58
66.71824,478.32,613.18
66.73926,476.74,613.01
66.75976,473.50,611.20
66.77836,473.00,614.48
66.79927,475.17,614.65
66.81963,474.31,611.45
66.83893,476.91,612.77
66.85841,473.82,612.10
66.87972,474.85,611.97
66.89886,476.76,614.13
66.91953,475.90,610.89
66.93848,475.01,610.38
66.95940,476.27,613.31
66.97808,473.43,612.46
66.99899,476.88,614.21
67.01834,474.51,612.04
67.03864,475.65,612.65
67.05963,476.34,613.54
67.07980,474.34,615.07
67.09856,475.75,615.19
67.11837,474.16,615.75
67.13896,475.94,614.07
67.15880,476.69,613.08
67.17959,480.38,613.72
67.19819,481.03,615.48
67.21957,479.52,615.69
67.23965,480.16,612.23
67.25793,480.36,612.91
67.27876,479.46,616.72
67.29823,475.76,614.95
67.31839,474.58,616.66
67.33852,475.61,614.66
67.35907,477.54,615.62
67.37820,476.05,615.35
67.39834,477.23,614.66
67.41955,478.83,616.43
67.43903,476.71,614.13
67.45856,478.83,614.26
67.47963,475.84,616.24
67.49923,478.62,612.40
67.51944,474.74,613.67
67.53881,474.38,609.89
67.55823,474.92,609.14
67.57801,475.51,604.05
67.59952,473.35,605.17
67.61814,473.05,604.34
67.63874,477.00,603.62
67.65967,477.61,604.26
67.67975,478.88,602.52
67.69821,478.01,603.63
67.71943,478.48,606.91
67.73954,476.57,606.13
67.75800,477.59,606.56
67.77906,475.34,609.44
67.79938,475.72,606.36
67.81810,474.67,607.89
67.83953,476.29,610.81
67.85840,475.87,610.90
67.87898,475.85,611.34
67.89884,476.60,610.07
67.91900,474.50,612.98
67.93935,473.73,611.59
67.95911,474.39,614.30
67.97958,475.55,613.49
67.99888,473.79,610.29
68.01941,473.67,613.56
68.03911,474.75,610.98
68.05881,474.45,611.89
68.07940,476.21,611.52
68.09932,475.27,609.07
68.11820,474.78,610.27
68.13804,474.17,610.09
68.15976,474.06,612.27
68.17912,474.96,610.91
68.19896,474.27,612.80
68.21889,475.94,612.53
68.23918,476.47,612.23
68.25926,474.88,611.79
68.27896,474.76,612.59
68.29872,476.35,613.69
68.31857,474.33,612.72
68.33957,475.10,610.37
68.35838,475.34,612.62
68.37922,477.56,611.32
68.39837,476.96,613.21
68.41905,478.52,612.10
68.43961,477.09,610.20
68.45880,467.63,608.16
68.47925,449.22,603.70
68.49927,428.92,597.00
68.51880,406.01,594.84
68.53937,385.04,593.07
68.55821,367.00,586.07
68.57804,353.07,576.89
68.60009,343.31,565.84
68.61819,339.86,557.86
68.63828,340.39,553.72
68.65925,340.52,551.15
68.67810,346.60,546.59
68.69826,353.31,550.45
68.71881,359.18,552.67
68.73900,366.54,559.59
68.75874,377.30,565.49
68.77940,383.89,570.34
68.79934,392.02,577.06
68.81789,399.82,582.81
68.83990,410.90,585.53
68.85870,415.48,589.70
68.87867,425.71,593.88
68.89802,429.76,598.59
68.91942,436.94,600.69
68.93825,440.71,604.38
68.95953,447.21,603.58
68.97969,450.57,605.72
68.99912,454.45,606.14
69.01898,455.07,606.87
69.03859,456.48,606.49
69.05863,461.43,608.15
69.07943,464.79,609.73
69.09816,465.15,610.59
69.11848,465.27,609.80
69.13861,466.59,612.22
69.15932,468.39,612.44
69.17987,470.47,608.71
69.19886,471.73,610.02
69.21985,472.58,610.53
69.23960,480.94,612.42
69.25789,495.33,617.27
69.27892,516.11,626.12
69.29872,540.83,638.54
69.31973,572.92,648.45
69.33911,603.34,660.17
69.35875,623.84,670.25
69.37859,639.45,675.88
69.39829,643.72,675.38
69.41793,638.68,674.21
69.43805,629.14,672.73
69.45828,617.08,667.64
69.47851,606.91,660.38
69.49874,595.76,656.84
69.51935,580.82,652.98
69.53846,571.90,646.56
69.55872,561.45,644.40
69.57886,550.67,640.27
69.59931,540.39,637.15
69.62028,532.86,636.20
69.63962,524.04,634.75
69.65960,518.71,629.86
69.68027,513.63,627.64
69.70088,509.25,626.65
69.72056,505.92,622.61
69.73981,504.29,624.00
69.75986,498.41,621.54
69.77993,497.10,620.87
69.80049,492.25,622.40
69.81969,493.63,620.05
69.83909,491.78,619.78
69.85942,488.03,619.01
69.88049,486.00,618.49
69.89971,484.13,617.58
69.92031,485.76,619.13
69.93895,483.84,617.31
69.96013,486.03,617.90
69.97988,484.17,615.62
70.00031,483.52,615.63
70.01889,483.44,616.92
70.03896,485.26,615.05
70.06086,482.67,612.75
70.07872,487.27,613.91
70.09983,486.95,612.10
70.12002,486.14,611.96
70.14083,483.72,611.94
70.15919,482.84,613.30
70.17955,481.14,614.20
70.20004,480.05,611.70
70.21934,480.85,611.45
70.23981,483.15,612.48
70.25959,480.74,611.33
70.28140,482.68,612.21
70.30044,485.69,613.19
70.32070,486.52,613.94
70.34140,484.96,611.22
70.36104,486.71,612.56
70.38036,485.43,612.34
70.40075,488.70,611.39
70.42013,489.66,613.37
70.44085,489.31,614.94
70.46141,488.11,613.50
70.48123,487.47,615.62
70.50096,486.75,613.05
70.51992,487.68,612.70
70.54155,486.29,613.23
70.56083,485.21,612.08
70.58189,487.49,614.92
70.60234,485.06,612.89
70.62104,485.52,613.88
70.64195,487.40,611.30
70.66156,484.64,613.29
70.68114,484.72,611.93
70.70193,483.78,614.66
70.72141,484.96,613.95
70.74216,486.52,612.23
70.76109,485.67,611.47
70.78119,484.33,611.83
70.80196,487.77,613.77
70.82165,486.30,611.88
70.84261,487.31,610.79
70.86229,485.65,612.35
70.88113,490.05,613.18
70.90258,487.54,613.05
70.92064,488.22,614.39
70.94229,486.57,614.49
70.96225,486.34,615.86
70.98228,485.96,611.98
71.00140,484.61,613.97
71.02157,484.45,613.25
71.04157,483.86,612.62
71.06253,483.89,614.59
71.08126,484.90,612.13
71.10214,485.34,613.98
71.12283,485.43,613.93
71.14102,485.62,616.06
71.16191,486.59,613.93
71.18152,486.71,615.06
71.20206,488.45,614.80
71.22182,489.64,614.88
71.24137,488.45,615.10
71.26227,492.84,614.15
71.28187,491.73,614.83
71.30229,493.31,615.23
71.32127,489.63,615.03
71.34114,488.33,617.12
71.36249,488.05,614.75
71.38255,488.42,618.06
71.40266,491.97,614.37
71.42145,490.25,616.42
71.44260,490.68,617.06
71.46159,488.85,615.50
71.48255,489.15,615.67
71.50224,487.98,616.91
71.52288,487.85,616.13
71.54169,489.26,614.72
71.56129,491.40,613.38
71.58106,490.28,614.45
71.60250,491.64,614.97
71.62150,491.42,610.90
71.64169,491.91,613.36
71.66192,492.26,611.78
71.68120,488.79,614.14
71.70194,489.48,613.74
71.72239,491.55,614.84
71.74138,490.60,614.87
71.76232,492.69,614.49
71.78099,492.44,615.34
71.80130,492.35,615.89
71.82153,491.77,615.10
71.84273,493.65,615.34
71.86102,494.03,614.60
71.88167,493.78,614.11
71.90239,492.40,617.16
71.92129,491.08,614.07
71.94142,491.32,613.19
71.96192,492.62,614.56
71.98278,492.94,613.10
72.00122,489.50,612.73
72.02193,488.99,606.61
72.04139,476.80,599.12
72.06158,456.89,593.27
72.08263,435.40,584.33
72.10137,415.32,578.40
72.12203,392.69,573.42
72.14098,374.95,564.36
72.16200,365.17,560.64
72.18160,352.18,556.18
72.20215,351.67,554.20
72.22197,347.18,553.80
72.24111,349.29,552.64
72.26212,357.74,554.21
72.28220,362.24,559.19
72.30221,369.45,562.73
72.32104,379.41,566.67
72.34181,390.93,570.86
72.36250,400.24,574.67
72.38089,410.97,578.99
72.40158,419.73,584.67
72.42268,429.02,587.10
72.44096,433.82,591.47
72.46142,442.77,593.79
72.48080,452.67,593.80
72.50090,456.13,596.93
72.52227,461.37,598.45
72.54266,463.06,599.44
72.56236,468.29,602.65
72.58251,470.49,602.66
72.60181,472.18,605.63
72.62097,472.43,604.96
72.64112,475.32,606.97
72.66130,481.26,611.14
72.68279,482.57,609.97
72.70221,480.82,613.27
72.72247,481.47,611.85
72.74202,482.94,613.99
72.76133,482.72,615.83
72.78215,488.03,613.93
72.80181,488.09,616.45
72.82205,489.03,615.63
72.84138,486.30,613.25
72.86255,488.83,612.88
72.88241,487.69,615.76
72.90172,500.92,620.89
72.92093,522.86,628.22
72.94098,552.98,642.54
72.96080,580.99,650.35
72.98247,604.47,658.57
73.00077,630.22,666.06
73.02206,645.04,670.91
73.04198,647.73,669.06
73.06216,644.63,664.11
73.08231,635.92,662.50
73.10141,629.02,656.32
73.12274,615.26,653.15
73.14224,602.85,648.08
73.16149,594.18,642.24
73.18077,581.51,641.07
73.20117,570.63,636.62
73.22146,560.72,634.72
73.24207,552.49,633.53
73.26215,544.84,631.57
73.28269,539.77,629.19
73.30198,533.02,624.75
73.32215,524.78,624.93
73.34177,519.38,623.44
73.36266,517.91,624.06
73.38180,514.44,621.47
73.40227,511.37,618.44
73.42157,506.37,619.08
73.44120,501.92,618.31
73.46141,499.84,617.31
73.48142,499.49,617.42
73.50159,499.48,618.09
73.52245,499.69,617.39
73.54122,497.03,617.16
73.56110,495.45,615.08
73.58072,493.63,615.17
73.60120,493.60,618.63
73.62098,490.77,619.55
73.64086,493.27,617.97
73.66067,491.94,617.53
73.68148,490.46,619.48
73.70068,491.85,619.82
73.72163,489.60,618.68
73.74216,490.25,617.70
73.76256,489.73,618.09
73.78128,489.26,619.38
73.80258,490.98,618.57
73.82239,489.82,619.53
73.84138,493.28,616.41
73.86090,494.04,619.68
73.88220,494.81,617.37
73.90165,495.12,618.31
73.92091,493.91,616.82
73.94219,491.57,618.48
73.96154,494.27,617.65
73.98119,494.05,617.11
74.00153,493.78,615.98
74.02085,493.75,616.75
74.04191,494.51,617.65
74.06072,494.46,617.78
74.08130,494.27,620.03
74.10100,491.12,619.23
74.12264,493.72,618.89
74.14202,493.69,619.79
74.16112,494.12,617.95
74.18130,494.53,619.21
74.20132,497.85,621.06
74.22171,500.82,622.35
74.24109,499.91,624.83
74.26203,501.05,621.93
74.28122,502.69,623.65
74.30240,503.56,623.13
74.32239,504.08,623.26
74.34116,503.74,623.20
74.36126,499.90,623.11
74.38169,497.77,621.99
74.40124,496.39,618.87
74.42080,498.13,619.96
74.44258,495.82,617.16
74.46240,496.35,620.77
74.48111,495.74,619.59
74.50086,493.46,617.49
74.52114,493.64,617.94
74.54090,492.73,616.88
74.56184,496.05,618.35
74.58182,494.39,616.54
74.60208,493.87,617.22
74.62115,492.48,614.32
74.64094,495.37,618.07
74.66105,493.78,613.33
74.68154,491.19,609.97
74.70227,494.07,606.46
74.72183,493.07,603.63
74.74179,491.56,604.59
74.76219,491.88,603.47
74.78262,491.00,605.48
74.80135,492.00,603.62
74.82085,489.12,605.25
74.84222,489.33,606.77
74.86114,493.41,604.73
74.88150,492.59,605.42
74.90182,493.29,606.27
74.92110,492.19,608.20
74.94085,494.05,610.15
74.96141,493.24,609.57
74.98216,495.22,610.42
75.00211,494.72,610.59
75.02181,491.87,613.12
75.04135,492.69,613.58
75.06078,490.26,613.39
75.08265,492.77,614.68
75.10253,491.97,617.08
75.12134,494.96,614.03
75.14258,494.63,613.85
75.16140,496.15,613.63
75.18233,495.34,614.67
75.20155,496.39,617.14
75.22153,495.32,617.73
75.24088,492.46,613.72
75.26095,493.76,615.50
75.28201,490.70,612.48
75.30277,491.08,613.90
75.32199,493.17,613.66
75.34187,493.84,614.98
75.36347,496.73,613.75
75.38368,494.39,613.14
75.40298,493.33,613.81
75.42344,492.72,612.92
75.44207,492.89,612.54
75.46280,490.32,612.94
75.48226,489.71,616.37
75.50231,488.77,614.19
75.52283,489.07,615.81
75.54226,488.35,615.18
75.56169,489.33,614.94
75.58242,488.41,614.00
75.60225,488.16,613.34
75.62308,487.97,614.93
75.64351,489.14,615.90
75.66359,487.23,612.48
75.68304,487.96,613.37
75.70252,486.99,611.82
75.72251,487.79,614.99
75.74369,488.29,611.88
75.76365,489.81,614.21
75.78267,490.82,612.51
75.80166,489.19,612.57
75.82334,488.70,613.37
75.84359,491.65,613.87
75.86286,491.62,613.46
75.88259,489.71,612.57
75.90317,491.03,613.72
75.92219,489.48,613.68
75.94369,491.61,616.66
75.96247,490.32,618.67
75.98311,488.07,618.16
76.00203,491.31,618.64
76.02228,488.50,617.91
76.04317,489.27,615.52
76.06366,487.59,616.15
76.08281,487.11,618.34
76.10335,488.53,618.88
76.12173,488.08,615.48
76.14176,490.48,617.81
76.16218,490.90,620.59
76.18262,489.48,621.23
76.20179,487.77,621.77
76.22251,491.58,623.26
76.24241,491.71,626.11
76.26244,490.07,625.05
76.28265,487.88,623.43
76.30309,486.78,621.69
76.32261,484.49,620.48
76.34257,486.23,623.16
76.36297,485.87,623.39
76.38313,489.04,624.43
76.40279,487.08,626.04
76.42242,485.92,627.42
76.44373,488.42,624.49
76.46167,488.83,625.51
76.48285,487.08,623.56
76.50195,485.74,626.39
76.52293,488.56,623.13
76.54238,485.56,624.24
76.56253,487.95,622.65
76.58267,486.19,619.65
76.60366,489.24,623.35
76.62366,486.77,622.50
76.64173,488.19,617.45
76.66248,488.66,618.86
76.68283,485.57,616.89
76.70316,485.42,620.59
76.72186,484.94,620.24
76.74248,484.30,619.98
76.76178,487.19,619.31
76.78326,480.53,620.30
76.80270,462.82,620.69
76.82273,437.31,621.43
76.84235,412.39,626.80
76.86161,387.39,626.57
76.88291,366.40,622.94
76.90208,356.15,614.55
76.92349,346.75,609.07
76.94332,342.69,598.46
76.96171,344.26,591.02
76.98378,347.26,583.13
77.00240,350.68,576.76
77.02199,357.59,572.09
77.04239,364.05,569.76
77.06217,375.87,567.84
77.08297,387.17,565.16
77.10225,395.27,565.18
77.12208,406.26,565.62
77.14262,412.09,568.58
77.16261,421.93,572.89
77.18213,428.30,577.78
77.20190,437.08,582.46
77.22340,442.76,583.22
77.24212,450.63,587.02
77.26300,454.94,588.58
77.28225,460.14,595.23
77.30187,461.76,595.57
77.32355,466.79,599.16
77.34340,467.62,600.40
77.36226,470.31,602.49
77.38353,472.33,603.01
77.40279,476.37,604.25
77.42226,476.86,607.53
77.44339,478.81,606.97
77.46251,488.29,612.34
77.48227,510.39,619.91
77.50318,534.74,628.72
77.52326,565.28,643.59
77.54250,595.94,651.39
77.56263,624.98,659.18
77.58265,646.65,666.66
77.60284,655.82,669.31
77.62331,658.95,668.17
77.64268,649.36,668.45
77.66222,638.95,661.67
77.68303,625.25,656.85
77.70278,615.10,650.94
77.72273,603.41,647.26
77.74213,591.02,643.30
77.76316,576.03,637.84
77.78242,565.09,634.00
77.80308,555.16,632.24
77.82205,548.76,630.88
77.84195,538.92,627.97
77.86283,533.95,624.86
77.88355,529.28,625.03
77.90187,520.33,623.80
77.92228,516.20,620.80
77.94221,512.86,621.41
77.96201,508.66,619.04
77.98338,505.84,618.11
78.00183,500.92,619.39
78.02299,498.85,618.82
78.04252,497.96,618.55
78.06206,496.32,616.06
78.08345,495.14,614.02
78.10277,491.86,617.51
78.12257,490.82,617.56
78.14243,490.95,615.43
78.16278,492.70,618.11
78.18272,491.91,617.70
78.20170,490.22,618.95
78.22230,488.91,620.30
78.24205,488.24,618.52
78.26318,488.01,618.98
78.28310,490.30,616.12
78.30195,488.45,617.69
78.32205,488.27,618.98
78.34189,489.26,616.79
78.36295,486.85,619.12
78.38338,489.07,618.96
78.40233,488.54,619.49
78.42249,488.58,619.12
78.44230,487.23,619.35
78.46184,485.98,617.57
78.48272,489.58,617.45
78.50300,487.79,617.35
78.52289,489.01,617.80
78.54301,488.64,619.80
78.56275,488.44,617.57
78.58278,485.94,615.25
78.60234,485.23,614.75
78.62243,486.23,618.02
78.64307,486.04,614.17
78.66285,487.26,614.67
78.68223,485.35,617.20
78.70331,486.25,619.53
78.72311,485.47,617.58
78.74331,486.35,618.71
78.76196,486.95,617.01
78.78316,489.30,617.68
78.80304,487.03,618.87
78.82306,489.84,619.46
78.84178,488.56,617.75
78.86303,484.88,617.72
78.88180,484.88,618.00
78.90346,484.44,619.35
78.92327,484.38,617.70
78.94363,485.58,618.14
78.96328,486.34,618.65
78.98272,487.01,617.09
79.00217,484.87,615.47
79.02272,485.63,616.38
79.04210,488.40,618.15
79.06221,486.80,616.81
79.08202,483.64,614.27
79.10199,482.88,614.44
79.12206,484.75,615.18
79.14323,483.67,615.42
79.16290,483.99,618.28
79.18336,483.11,616.19
79.20291,485.59,619.69
79.22229,484.75,618.39
79.24342,485.18,619.15
79.26346,487.62,619.47
79.28204,488.76,617.10
79.30318,488.19,617.56
79.32331,486.32,614.75
79.34345,486.08,615.65
79.36277,485.81,616.19
79.38190,485.49,613.58
79.40272,485.51,614.61
79.42181,482.42,612.53
79.44325,484.08,613.27
79.46358,487.12,614.20
79.48310,484.81,612.81
79.50317,483.71,616.02
79.52198,483.97,615.34
79.54172,483.85,612.89
79.56253,486.05,616.83
79.58361,484.50,614.47
79.60405,483.99,615.66
79.62429,486.32,615.90
79.64343,482.70,614.87
79.66448,485.64,612.06
79.68350,484.82,612.09
79.70337,486.43,615.82
79.72444,485.73,613.99
79.74380,487.51,615.67
79.76384,486.51,614.04
79.78355,486.89,612.90
79.80295,486.78,613.97
79.82322,485.21,615.72
79.84310,483.37,613.28
79.86444,481.61,616.00
79.88337,482.08,614.81
79.90276,483.36,614.17
79.92345,484.49,613.32
79.94382,483.39,614.87
79.96469,485.29,613.92
79.98561,483.19,613.66
80.00466,480.67,613.20
80.02539,479.71,616.54
80.04540,479.24,613.58
80.06622,478.54,614.74
80.08646,481.39,614.56
80.10571,480.48,616.47
80.12664,479.49,614.93
80.14629,478.15,615.15
80.16552,479.82,615.54
80.18539,480.63,613.71
80.20520,478.47,614.90
80.22648,479.81,614.94
80.24479,477.30,612.78
80.26665,479.56,613.24
80.28671,475.65,616.51
80.30569,476.44,616.72
80.32590,475.21,615.86
80.34713,473.88,616.17
80.36753,472.22,615.24
80.38713,471.46,613.67
80.40754,472.24,616.53
80.42585,470.77,617.17
80.44699,470.42,613.56
80.46807,469.52,614.38
80.48778,469.56,614.82
80.50818,470.44,613.92
80.52736,473.69,612.67
80.54696,473.40,612.00
80.56773,471.74,610.99
80.58733,471.85,612.48
80.60684,473.46,612.62
80.62807,474.21,611.82
80.64827,471.19,610.14
80.66732,469.75,611.09
80.68673,469.81,612.19
80.70782,471.41,611.92
80.72792,467.46,612.69
80.74823,469.60,611.63
80.76869,469.49,613.19
80.78736,468.55,613.36
80.80733,469.60,611.26
80.82689,470.31,609.90
80.84801,462.96,608.84
80.86843,444.07,606.32
80.88820,421.74,603.16
80.90803,398.69,602.97
80.92815,379.11,600.36
80.94697,360.59,597.68
80.96738,348.10,593.21
80.98737,340.55,587.72
81.00666,335.81,582.12
81.02708,333.22,577.19
81.04772,334.24,572.51
81.06674,341.82,572.23
81.08842,349.22,571.73
81.10668,354.28,568.34
81.12737,363.62,567.86
81.14821,368.23,568.21
81.16762,377.96,568.75
81.18769,387.55,570.05
81.20748,395.81,571.92
81.22749,401.27,576.93
81.24794,411.54,580.49
81.26683,418.45,582.10
81.28703,424.17,586.37
81.30763,432.14,588.32
81.32735,437.55,591.72
81.34745,441.64,594.14
81.36714,445.16,598.18
81.38809,450.26,600.72
81.40858,449.19,601.89
81.42802,453.31,602.26
81.44694,461.34,605.80
81.46931,478.66,606.98
81.48902,497.99,612.40
81.50897,524.48,619.68
81.52929,553.51,626.49
81.54967,580.07,637.04
81.56932,597.99,647.18
81.58779,616.63,655.30
81.60943,627.09,662.78
81.62838,631.17,665.76
81.64765,627.53,667.48
81.66841,621.28,664.18
81.68812,608.55,660.30
81.70813,597.15,656.28
81.72837,583.26,650.65
81.74907,572.54,644.85
81.76880,561.08,642.04
81.78956,550.29,635.95
81.80813,539.48,634.06
81.82767,528.71,631.21
81.84790,520.10,629.11
81.86864,512.27,626.20
81.88845,509.03,624.00
81.90768,502.34,622.18
81.92923,495.53,618.32
81.94885,493.11,619.66
81.96865,485.70,616.20
81.98935,480.98,616.30
82.01027,479.19,612.97
82.02952,477.87,613.29
82.04946,478.98,612.54
82.06973,473.92,611.29
82.08942,471.94,611.74
82.10913,471.04,612.20
82.12921,470.58,611.80
82.14976,472.55,611.05
82.16931,470.10,612.04
82.18863,471.35,612.34
82.21043,468.65,614.00
82.22915,471.35,613.94
82.24906,469.65,610.35
82.26873,468.61,613.25
82.28987,466.70,612.46
82.30856,465.14,610.72
82.32942,465.69,611.36
82.34955,465.22,614.80
82.37011,467.57,612.64
82.38970,469.92,609.78
82.40949,470.43,611.11
82.42927,470.07,611.50
82.45048,467.62,610.01
82.46975,469.02,609.63
82.48894,471.04,610.45
82.51001,470.42,609.35
82.52938,469.14,608.96
82.54972,471.41,610.19
82.57057,472.73,610.21
82.58864,470.73,609.84
82.60949,470.46,610.27
82.62924,471.77,613.05
82.64942,469.71,612.57
82.66889,470.46,613.18
82.69027,469.84,614.99
82.70954,469.92,613.63
82.72892,467.93,614.00
82.75030,469.90,614.41
82.77033,468.50,614.22
82.79004,468.77,612.87
82.81018,468.81,612.42
82.83005,467.88,613.64
82.85056,469.73,614.19
82.86933,468.12,612.19
82.88997,468.10,613.01
82.90986,470.99,613.80
82.92975,469.00,614.48
82.94942,469.49,613.27
82.97029,470.52,612.56
82.99026,467.68,613.38
83.00883,469.86,610.77
83.03007,469.46,612.42
83.04955,468.65,612.75
83.07041,467.87,611.55
83.09035,469.70,612.94
83.10986,469.80,614.56
83.13013,467.98,613.67
83.14909,470.84,612.48
83.16951,468.79,611.10
83.18877,468.95,611.27
83.20887,467.99,613.81
83.23006,467.14,611.13
83.24964,467.53,612.49
83.26998,470.17,611.34
83.29029,467.35,610.40
83.30868,469.43,611.25
83.32898,470.79,609.68
83.34841,470.08,611.72
83.36992,468.02,609.61
83.39001,470.84,608.67
83.40873,470.07,608.08
83.43009,469.29,610.02
83.44947,470.29,609.89
83.47021,472.16,609.66
83.48974,471.60,609.93
83.50909,473.01,608.94
83.53043,472.28,609.94
83.55017,469.60,609.33
83.56976,468.87,609.49
83.59057,471.18,611.29
83.61129,470.94,611.21
83.63072,468.32,608.55
83.65109,468.85,610.10
83.67075,471.05,609.58
83.69010,469.10,612.67
83.71062,472.47,612.34
83.73146,470.55,610.58
83.75075,469.47,611.88
83.77024,470.22,609.10
83.78946,472.68,610.41
83.81079,471.14,608.72
83.83048,471.45,608.49
83.85002,470.86,611.11
83.87065,471.19,609.72
83.89127,470.75,610.00
83.91065,470.24,608.19
83.93079,472.14,608.14
83.95008,471.72,609.80
83.97058,468.63,609.92
83.99115,469.69,610.10
84.01128,468.27,610.29
84.03024,467.47,610.97
84.04959,469.31,612.56
84.07038,470.61,610.04
84.08954,470.48,612.69
84.10963,472.21,611.52
84.13097,470.06,610.57
84.15048,468.64,610.20
84.16950,469.72,610.44
84.19050,472.04,609.97
84.21042,470.90,612.25
84.23021,469.99,610.10
84.25102,473.53,611.54
84.27042,471.69,609.45
84.28963,470.72,612.05
84.31013,471.16,608.87
84.32971,471.46,611.57
84.35115,474.18,613.10
84.37079,466.18,613.07
84.39040,452.82,612.02
84.41138,439.52,608.25
84.43080,419.97,606.69
84.44973,404.44,606.58
84.47118,391.42,595.74
84.48949,382.56,590.32
84.51040,372.82,583.53
84.53078,368.05,573.04
84.55129,363.54,566.83
84.57081,357.99,564.90
84.59007,359.43,560.76
84.61099,358.61,560.16
84.62971,363.16,560.28
84.65079,362.87,563.36
84.66931,368.56,565.82
84.69066,371.05,567.54
84.70976,376.37,570.59
84.73103,379.74,575.68
84.75121,384.78,580.43
84.77109,389.51,583.97
84.79105,399.32,584.19
84.81050,404.98,586.62
84.82961,411.73,588.90
84.84970,419.11,593.28
84.87123,425.59,595.02
84.89009,432.63,596.31
84.91134,434.69,597.45
84.93123,439.82,601.67
84.95002,445.93,601.00
84.96978,449.19,604.07
84.99011,453.29,603.06
85.01114,455.41,604.24
85.02969,454.80,605.57
85.05160,455.35,606.70
85.07113,457.55,607.52
85.09059,461.38,607.60
85.10959,462.43,611.46
85.13045,467.21,612.62
85.14971,464.49,610.27
85.17123,469.20,610.66
85.19007,474.24,611.19
85.21106,484.94,615.17
85.23013,503.02,618.32
85.25093,526.30,628.50
85.27040,553.52,632.04
85.29085,578.76,635.83
85.31037,595.56,638.59
85.33138,612.69,643.25
85.35048,628.18,647.16
85.37122,632.61,648.77
85.39058,631.13,654.50
85.41002,625.81,653.44
85.42989,614.57,652.73
85.44984,604.53,650.56
85.46975,589.51,645.44
85.49063,579.52,644.60
85.51052,564.96,640.50
85.53100,552.94,635.58
85.55124,543.75,631.18
85.57078,534.54,629.55
85.59086,525.02,626.61
85.61070,517.92,622.98
85.63059,513.03,621.07
85.65112,509.79,620.20
85.67003,505.49,620.07
85.69023,499.86,621.02
85.71075,496.87,618.05
85.72983,492.36,617.84
85.75110,490.37,619.72
85.77035,487.64,617.86
85.78973,484.43,617.83
85.81020,482.82,613.49
85.83040,480.89,616.96
85.85118,481.93,615.87
85.87055,478.54,616.23
85.89134,477.35,616.11
85.91089,475.46,617.02
85.93040,474.83,617.37
85.94979,476.91,616.60
85.97222,478.02,616.89
85.99051,477.12,615.10
86.01215,476.79,617.39
86.03131,476.24,616.51
86.05222,477.81,614.44
86.07197,477.08,613.53
86.09197,475.77,613.88
86.11060,475.17,612.01
86.13043,476.22,614.72
86.15172,476.10,615.13
86.17141,477.36,612.17
86.19064,479.26,613.10
86.21108,477.58,614.68
86.23166,475.55,614.08
86.25049,474.66,612.70
86.27216,473.67,612.85
86.29209,472.90,612.78
86.31216,473.17,612.53
86.33102,473.86,612.42
86.35043,476.67,613.79
86.37127,474.66,610.88
86.39134,477.24,610.71
86.41112,476.18,610.32
86.43228,478.11,611.45
86.45162,477.43,613.67
86.47102,476.82,612.98
86.49132,475.02,614.77
86.51224,476.14,613.74
86.53278,477.26,612.63
86.55262,477.57,615.32
86.57205,477.29,615.07
86.59333,478.86,614.61
86.61252,481.59,614.06
86.63361,482.55,614.57
86.65251,482.04,615.81
86.67403,481.84,617.95
86.69411,484.81,616.84
86.71282,485.80,615.79
86.73265,484.54,616.18
86.75397,485.88,618.34
86.77290,487.40,616.76
86.79350,487.62,614.46
86.81358,487.66,613.67
86.83418,487.90,611.50
86.85273,487.77,613.55
86.87414,486.11,615.47
86.89275,487.32,612.72
86.91393,487.83,613.23
86.93508,488.06,616.08
86.95364,485.11,612.93
86.97372,486.00,613.19
86.99520,486.12,615.65
87.01405,486.10,614.79
87.03350,487.32,615.09
87.05346,491.11,615.47
87.07357,492.16,613.65
87.09369,491.96,612.17
87.11636,491.65,615.75
87.13523,494.36,613.06
87.15539,489.49,616.50
87.17608,490.39,613.81
87.19519,490.82,616.29
87.21491,492.97,614.88
87.23525,492.80,616.22
87.25539,493.91,614.91
87.27587,492.48,615.11
87.29541,492.34,615.97
87.31627,490.10,614.47
87.33628,490.93,614.72
87.35482,489.48,616.78
87.37463,488.62,615.23
87.39610,491.55,613.82
87.41476,491.59,613.19
87.43571,489.38,614.58
87.45463,488.56,613.68
87.47631,490.21,614.64
87.49474,490.38,614.80
87.51618,489.01,612.78
87.53630,492.22,612.33
87.55606,491.14,611.62
87.57451,490.25,612.16
87.59651,491.10,615.20
87.61621,492.35,615.34
87.63499,490.95,611.99
87.65607,490.99,615.43
87.67532,492.27,613.80
87.69507,493.96,613.68
87.71577,492.49,613.09
87.73543,490.28,616.79
87.75594,493.55,615.26
87.77570,493.30,617.05
87.79432,489.43,615.12
87.81643,489.92,615.14
87.83524,489.81,612.12
87.85610,489.79,612.74
87.87504,490.10,615.08
87.89609,490.36,614.52
87.91601,490.67,613.85
87.93586,490.86,616.88
87.95615,491.16,615.25
87.97704,489.12,617.88
87.99689,486.34,618.09
88.01601,487.60,615.76
88.03638,489.15,618.62
88.05580,487.59,615.94
88.07611,489.41,616.55
88.09526,491.59,618.39
88.11634,489.23,618.67
88.13728,489.84,617.83
88.15740,491.21,616.47
88.17662,488.94,617.56
88.19677,490.45,615.37
88.21729,490.01,616.14
88.23545,483.60,616.70
88.25593,464.06,613.34
88.27574,442.23,619.10
88.29590,418.83,619.43
88.31628,394.18,623.40
88.33602,376.91,623.31
88.35657,362.87,618.73
88.37634,352.13,612.68
88.39742,344.57,605.18
88.41643,343.51,598.97
88.43695,345.78,594.84
88.45564,349.35,587.21
88.47636,356.16,580.59
88.49560,363.68,577.57
88.51639,371.14,576.41
88.53689,381.91,575.71
88.55692,389.07,577.90
88.57660,402.15,578.23
88.59685,410.65,576.66
88.61616,419.27,579.64
88.63560,424.66,580.91
88.65688,434.60,585.85
88.67547,439.03,587.90
88.69701,449.17,590.78
88.71656,452.42,593.48
88.73585,462.00,596.69
88.75645,464.96,599.45
88.77672,468.88,601.76
88.79656,468.87,603.82
88.81666,472.50,603.06
88.83596,472.88,603.26
88.85580,475.52,605.44
88.87549,479.55,605.64
88.89588,479.74,607.60
88.91632,482.05,608.23
88.93573,486.78,615.60
88.95718,495.69,621.72
88.97630,513.52,630.54
88.99607,535.60,641.14
89.01665,557.26,653.78
89.03659,581.63,659.28
89.05719,606.69,660.81
89.07654,627.24,658.38
89.09611,645.63,656.96
89.11707,653.59,651.69
89.13732,659.79,647.62
89.15653,654.51,643.36
89.17728,645.72,637.85
89.19624,634.97,637.68
89.21639,619.23,630.57
89.23625,609.24,629.92
89.25688,600.61,626.90
89.27620,585.04,624.86
89.29748,575.15,624.47
89.31626,565.03,622.27
89.33714,553.01,616.48
89.35681,545.25,616.35
89.37608,539.59,617.25
89.39567,533.13,614.69
89.41562,526.91,615.83
89.43676,522.02,612.47
89.45570,514.91,616.07
89.47660,512.34,613.30
89.49706,508.14,614.05
89.51732,507.70,612.25
89.53729,502.66,612.16
89.55581,500.45,610.32
89.57665,499.35,611.64
89.59713,498.90,614.36
89.61599,495.42,613.39
89.63585,494.78,614.93
89.65692,492.99,614.46
89.67664,494.88,617.74
89.69732,492.40,617.09
89.71605,492.08,618.42
89.73651,495.17,619.30
89.75743,491.25,618.77
89.77651,492.63,616.18
89.79693,489.50,618.17
89.81538,489.27,619.82
89.83556,487.33,617.81
89.85570,487.33,616.88
89.87705,488.98,618.01
89.89703,490.24,618.25
89.91719,487.68,621.21
89.93629,488.02,620.80
89.95696,488.04,619.91
89.97722,486.82,619.46
89.99593,489.44,619.36
90.01644,485.75,618.23
90.03668,488.28,621.79
90.05629,490.63,621.27
90.07695,489.90,619.18
90.09596,489.44,620.88
90.11626,488.55,617.68
90.13554,487.75,619.93
90.15591,490.76,620.80
90.17650,488.74,620.29
90.19697,488.53,618.29
90.21709,489.03,620.62
90.23761,488.48,618.01
90.25738,488.39,620.32
90.27906,487.96,619.71
90.29900,484.71,619.61
90.31789,485.41,619.71
90.33902,483.86,617.70
90.35825,486.14,616.50
90.37805,486.88,619.13
90.39893,486.07,619.77
90.41899,485.07,617.63
90.43944,483.38,619.70
90.45806,486.04,618.14
90.47835,482.93,620.15
90.49938,483.78,618.79
90.51899,480.89,621.19
90.53822,479.89,621.42
90.55807,480.23,620.75
90.57876,480.62,621.45
90.59903,484.43,623.29
90.61899,483.91,624.54
90.63820,481.37,610.30
90.65843,478.16,588.66
90.67901,472.50,575.02
90.69856,469.25,566.69
90.71852,467.53,562.34
90.73757,468.22,563.42
90.76035,471.07,563.00
90.77870,469.94,566.20
90.79851,468.63,571.42
90.81945,470.92,579.66
90.83978,472.37,583.14
90.85858,471.00,589.62
90.87937,472.36,594.98
90.90022,473.07,603.07
90.92019,472.45,604.73
90.93886,476.28,609.35
90.96104,477.03,612.84
90.98093,476.17,616.60
90.99936,476.70,616.44
91.01996,478.04,613.12
91.03999,477.06,616.08
91.05968,478.97,612.44
91.08041,476.21,614.86
91.10094,478.52,611.98
91.12023,477.32,614.85
91.13946,474.54,620.13
91.15991,476.81,621.15
91.18113,476.18,622.34
91.20019,473.83,624.64
91.22010,476.86,623.04
91.24084,474.05,623.54
91.26089,471.95,625.57
91.28294,472.10,628.37
91.30185,474.03,628.85
91.32304,473.68,628.43
91.34201,473.82,629.25
91.36237,472.66,630.51
91.38289,467.03,628.57
91.40310,469.61,629.44
91.42241,472.56,632.58
91.44214,477.22,631.29
91.46195,472.79,631.06
91.48179,478.45,627.14
91.50307,477.62,626.63
91.52313,476.07,625.38
91.54219,477.17,624.06
91.56307,482.46,627.48
