Program Time [s],data 0,data 1
96.2601,498.32,565.91
96.2801,498.45,565.13
96.3,495.36,563.9
96.32,494.29,564.92
96.3401,493.63,561.94
96.36,495.31,560.15
96.3801,492.84,557.52
96.3999,494.48,556.82
96.4199,493.98,559.25
96.44,490.58,558.2
96.4599,493.07,553.76
96.48,494.25,560.41
96.4999,499,558.93
96.5199,500,559.94
96.5399,496.6,560.55
96.56,495.28,563.04
96.5799,495.23,564.03
96.5999,496.58,564.83
96.6199,501.86,563.46
96.64,500.89,564.97
96.6599,501.11,563.58
96.6799,502.09,563.06
96.7,500.27,561.85
96.72,499.82,556.48
96.74,499.85,556.58
96.76,500.48,555.27
96.7801,502.59,554.41
96.8002,500.87,554.53
96.82,497.7,555.22
96.84,499.36,555.78
96.86,498.89,554.42
96.8801,499.31,556.14
96.9003,499.25,554.91
96.92,499.2,553.13
96.9401,498.16,554.1
96.9599,498.13,555.08
96.9801,497.3,556.47
97,497.44,558.17
97.02,495.35,559.14
97.04,495.08,558.31
97.0611,497.07,559.05
97.082,497.45,558.04
97.1029,496.56,560.63
97.123,494.45,559.3
97.144,494.36,559.64
97.1639,494.09,557.72
97.1839,493.27,555.77
97.2039,491.82,555.42
97.224,491.65,554.73
97.244,490.72,555.39
97.264,490.38,555.51
97.284,491.1,555.21
97.3039,489.68,556.77
97.3239,491.35,559.41
97.344,493.68,558.13
97.365,494.74,558.9
97.385,494.79,561.92
97.405,495.43,563.34
97.426,495.95,564.07
97.446,494.76,565.86
97.4661,496.41,567.09
97.4859,496.73,564.27
97.5059,497.38,563.01
97.5262,498.7,563.21
97.5471,498.76,562.17
97.5669,497.21,560.34
97.5869,496.57,560.67
97.6069,495.45,562.73
97.6269,494.36,563.99
97.6471,493.09,561.79
97.6669,492.87,561.83
97.6871,492.9,568.27
97.7079,490.12,589.21
97.728,483.89,630.17
97.748,477.52,682.54
97.7679,476.81,703.83
97.7879,475.25,718.86
97.8079,476.6,728.89
97.8279,479.88,725.31
97.848,484.3,716.05
97.8689,488.44,709.24
97.8889,491.55,698.39
97.909,491.84,684.71
97.929,494.67,674.77
97.9489,495.34,664.42
97.9689,496.47,650.73
97.9889,498.98,638.39
98.0089,499.58,624.31
98.0289,499.67,618.05
98.049,498.53,613.04
98.0689,499.83,602.43
98.0889,499.26,592.94
98.109,497.21,593.56
98.1289,496.77,586.44
98.1489,496.61,587.96
98.1689,498.89,610.56
98.189,506.91,628.05
98.209,516.13,622.04
98.2299,525.1,579.03
98.25,529.28,511.03
98.2699,526.43,438.62
98.2899,519.34,377.3
98.3099,512.87,338.84
98.3299,509.7,318.07
98.3499,506.76,309.26
98.3699,503.41,311.2
98.3899,502.33,318.16
98.4101,501.46,330.93
98.4299,499.17,348.54
98.45,498.33,368.84
98.4699,497.47,386.47
98.49,497.57,403.77
98.5099,496.46,421.02
98.5299,496.77,438.62
98.5499,495.21,454.49
98.5701,495.97,470.39
98.5899,495.58,484.52
98.6101,494.86,495.01
98.6309,493.29,505.81
98.651,492.83,513.65
98.6709,491.67,521.72
98.691,492.73,527.17
98.711,493.99,532.54
98.731,493.79,535.43
98.7509,492.83,536.75
98.7709,493.06,537.8
98.7909,492.65,542.44
98.8109,493.92,546.35
98.8311,494.94,548.68
98.8511,493.75,551.34
98.871,494,552.68
98.8909,494.6,554.74
98.9109,494.48,556.59
98.9309,495.58,557.47
98.951,494.67,558.18
98.971,495.33,557.54
98.992,495.67,558.43
99.0121,496.33,558.35
99.033,495.67,558.88
99.0529,493.93,556.9
99.0729,493.35,556.12
99.0929,493.28,553.3
99.1131,494.22,554.24
99.1329,494.78,553.79
99.1529,492.82,552.23
99.1732,492.06,551.99
99.1929,490.85,549.19
99.213,492.28,549.95
99.233,492.62,549.36
99.2531,492.5,550.09
99.273,492,549.47
99.2929,493.6,546.98
99.3129,496.68,543.58
99.3331,495.14,543.27
99.3531,493.31,544.01
99.373,491.65,543.21
99.3929,491.32,541.57
99.4129,492.06,540.85
99.433,492.45,539.48
99.453,491.36,541.19
99.4741,491.29,540.75
99.4939,492.63,540.8
99.5139,493.9,540.44
99.5339,492.92,540.15
99.5539,493.34,539.72
99.5739,494.27,540.18
99.5941,494.02,541.34
99.6139,494.01,541.27
99.634,494.81,539.82
99.654,494.85,539.05
99.6739,495.28,539.44
99.694,496.42,540.96
99.714,495.94,541.16
99.735,496.35,542.73
99.7549,497.48,542.39
99.7749,495.78,542.11
99.7949,496.23,543.09
99.8149,497.78,542.07
99.8349,499.43,542.26
99.855,498.34,543
99.875,496.07,544.4
99.8949,495.06,546.32
99.9149,496.25,546.66
99.9349,495.6,547.13
99.955,494.08,548.7
99.9749,488.26,583.96
99.996,483.21,625.57
100.016,479.97,664.46
100.036,477.57,704.96
100.056,476.66,720.97
100.076,474.53,731.78
100.096,477.42,731.02
100.116,478.94,724.42
100.136,481.35,717.53
100.156,483.48,704.83
100.176,486.98,694.26
100.196,488.99,678.21
100.216,488.99,665.77
100.236,488.59,649.21
100.256,489.07,636.37
100.276,491.26,627.1
100.296,491.41,619.08
100.316,492.13,613.46
100.336,492.7,611.37
100.356,494.16,601.5
100.376,494.73,594.6
100.396,495.98,588.68
100.416,496.39,581.94
100.436,495.71,578.55
100.456,495.57,585.04
100.476,499.65,602.03
100.496,509.12,619.03
100.516,520.1,622.82
100.536,531.08,594.66
100.556,537.86,536.13
100.576,538.49,471.1
100.596,531.19,411.68
100.616,521.35,366.54
100.636,515.08,339.44
100.656,508.07,326.95
100.676,503.65,326.96
100.696,501.12,336.77
100.716,498.5,352.01
100.736,496,367.41
100.757,494.6,388.33
100.777,494.28,407.46
100.797,493.62,424.37
100.817,493.5,442.3
100.837,492.4,459.64
100.857,492.72,473.91
100.877,492.58,484.33
100.897,492.06,497.06
100.917,493.05,506.85
100.937,494.24,516.28
100.957,493.59,523.82
100.977,495.87,528.26
100.997,496.9,531.21
101.017,495.92,534.17
101.037,494.53,539.93
101.057,494.23,542.35
101.077,494.38,544.48
101.098,494.31,549.78
101.118,494.24,553.23
101.138,494.4,552.58
101.158,494.52,553.26
101.178,496.01,555.01
101.198,494.61,556.21
101.219,494.49,555.97
101.24,493.79,557.77
101.26,495.23,560.02
101.28,494.79,560.62
101.3,495.23,561.29
101.32,494.98,562.23
101.34,494.79,562.59
101.36,494.83,564.07
101.381,495.66,565.26
101.4,495.33,566.8
101.42,495.86,567.64
101.44,497.09,568.71
101.46,498.47,570.57
101.48,499.78,570.26
101.5,499.62,570.61
101.52,498.5,569.68
101.54,498.4,567.55
101.56,499.92,567.64
101.58,500.74,568.91
101.6,499.99,570.53
101.62,499.79,570.02
101.64,499.43,570.02
101.661,500.55,569.81
101.681,500.64,568.25
101.701,500.31,567.4
101.721,500.65,564.52
101.741,499.92,560.82
101.761,499.33,561.45
101.781,497.27,561.36
101.801,498.61,558.49
101.821,499.49,560.79
101.841,499.59,559.63
101.861,498.67,560.71
101.881,498.74,559.97
101.901,498.79,558.17
101.921,499.43,558.94
101.941,499.15,556.15
101.961,498.92,558.72
101.981,499.13,557.98
102.001,499.51,560.18
102.021,499.01,560.54
102.041,496.6,562.64
102.061,495.88,560.91
102.081,496.91,562.93
102.101,495.53,563.74
102.121,496.22,564.19
102.141,496.98,563.75
102.161,498.98,565.6
102.181,499.58,565.08
102.201,498.67,563.07
102.221,498.53,563.85
102.241,498.03,565.48
102.261,498.22,566.39
102.281,497.38,566.91
102.301,497.7,567.33
102.321,497.96,566.86
102.341,497.97,567.09
102.361,499.58,569.67
102.381,497.06,586.34
102.401,490.25,618.27
102.421,480.4,651.22
102.441,474.52,666.17
102.461,469.82,704.74
102.481,467.25,721.79
102.501,468.8,728.03
102.521,472.84,722.63
102.541,478.47,712.3
102.561,481.58,707.04
102.581,484.06,704.63
102.601,484.45,695.51
102.621,486.56,687.8
102.641,488.65,675.04
102.661,490.72,661.04
102.681,491.57,646.43
102.701,492.46,630.54
102.721,491.97,623.83
102.741,493.17,614.67
102.761,494.14,608.13
102.781,494.11,598.11
102.801,494.89,596.09
102.821,497.11,605.27
102.841,502.29,620.61
102.861,507.63,629.49
102.881,515.91,604.79
102.901,522.72,545.03
102.921,527.98,481.03
102.941,526.18,426.82
102.961,522.35,385.26
102.981,518.88,360.61
103.001,515.7,350.49
103.021,512.16,353.79
103.041,507.73,364.63
103.061,505.78,375.3
103.081,504.83,392.04
103.101,503.26,410.43
103.121,501.61,425.35
103.141,499.49,444.88
103.161,499.19,458.9
103.181,497.55,474.52
103.201,497.04,489.22
103.221,497.23,499.97
103.241,496.79,509.18
103.261,497.43,517.14
103.281,496.34,524.31
103.301,495.87,532.25
103.321,495.1,539.6
103.341,495.68,545.08
103.361,496.14,547.66
103.381,496.32,551.33
103.401,495.65,554.27
103.421,494.52,556.41
103.441,494.22,559.13
103.461,494.77,561.9
103.481,495.42,561.92
103.501,495.14,562.54
103.521,494.91,563.23
103.541,493.93,566.38
103.561,494.14,565.31
103.581,494.31,565.85
103.601,493.65,566.08
103.621,494.32,566.86
103.641,493.86,567.29
103.661,494.09,566.83
103.681,494.27,565.27
103.701,496.21,564.81
103.721,497.97,562.45
103.741,498.78,561.16
103.761,498.42,560.73
103.781,497.34,558.78
103.801,496.87,556.83
103.821,496.5,556.46
103.841,496.8,554.97
103.861,496.44,554.57
103.881,496.55,553.86
103.901,497.44,553.09
103.921,496.75,554.07
103.941,496.4,557.46
103.961,495.92,558.77
103.981,496.94,560.81
104.001,496.55,564.05
104.021,496.24,564.04
104.041,495.59,562.83
104.061,494.47,560.47
104.081,494.38,561.37
104.101,494.9,559.9
104.121,495.52,560.32
104.141,495.22,559.05
104.161,494.97,558.64
104.181,493.98,561.11
104.201,494.18,558.69
104.221,494.95,556.35
104.241,495.56,553.28
104.261,494.85,555.23
104.281,495.68,553.58
104.301,495.54,555.46
104.321,495.43,555.17
104.341,495.95,555.34
104.361,495.76,555.87
104.381,496.41,554.9
104.401,495.92,555.52
104.423,495.34,557.01
104.441,494.27,560.21
104.461,494.82,561.97
104.481,495.25,560.97
104.501,495,559.38
104.521,496,561.3
104.541,495.6,561.64
104.561,495.08,561.11
104.581,497.07,562.09
104.601,494.45,573.27
104.621,494.16,589.42
104.641,489.33,620.93
104.661,486.46,648.35
104.681,483.97,686.08
104.701,478.58,728.46
104.721,475.86,737.57
104.741,474.69,735.06
104.761,475.35,727.24
104.781,477.08,717.4
104.801,477.06,706.12
104.821,478.85,688.69
104.841,480.28,676.95
104.861,481.23,666.16
104.881,483.18,658.73
104.901,486.74,648.38
104.921,489,640.91
104.941,492.2,630.33
104.961,493.76,626.06
104.981,495.21,614.45
105.001,494.76,605.96
105.021,495.21,597.97
105.041,495.77,594.77
105.061,496.42,590.02
105.081,495.73,584.62
105.101,496.99,584.69
105.121,501.99,594.55
105.141,506.79,611.44
105.161,514.03,607.35
105.181,522.03,569.88
105.201,529.42,514.71
105.221,534.54,459.77
105.241,528.83,413.81
105.261,522.46,377.25
105.281,515.17,357
105.301,510.34,350.6
105.321,505.27,352.88
105.341,502.22,361.7
105.361,500.77,374.36
105.381,498.62,391.69
105.401,497.49,409.95
105.421,496.2,427.96
105.441,494.76,446.77
105.461,494.81,464.02
105.481,494.44,480.21
105.501,493.76,491.97
105.521,494.4,498.58
105.541,494.52,507.86
105.561,494.62,515.29
105.581,493.89,522.43
105.601,494.52,528.94
105.621,493.81,533.76
105.641,493.05,538.6
105.661,493.04,541.08
105.681,493.83,543.47
105.701,493.67,547.37
105.721,492.13,548.7
105.741,491.71,551.16
105.761,492.36,551.53
105.781,492.49,552.02
105.802,492.99,552.42
105.822,494.19,552.93
105.842,494.16,551.55
105.862,495.72,551.24
105.882,496.58,550.39
105.902,495.46,550.91
105.923,495.37,550.93
105.943,495.7,550.74
105.963,496.36,550.2
105.983,495.89,549.56
106.004,496.11,548.04
106.024,495.69,545.64
106.044,494.55,547.31
106.064,494.44,548.05
106.084,494.15,547.44
106.104,493.12,545.55
106.124,492.7,546.24
106.144,492.96,544.99
106.164,492.57,546.39
106.184,492.05,545.51
106.205,492.44,545.61
106.225,492.15,544.89
106.245,492.52,542.71
106.265,492.82,541.77
106.285,494.25,540.42
106.305,495.4,538.93
106.325,497.32,536.95
106.345,496.86,536.96
106.365,497.29,537.17
106.385,498.03,536.33
106.405,498.82,534.27
106.425,499.46,533.21
106.445,497.77,534.37
106.465,496.81,534.5
106.485,495.45,534.8
106.505,495.16,535.24
106.525,495.13,536.39
106.545,494.7,538.51
106.565,494.36,537.81
106.585,495.69,537.25
106.605,494.15,540
106.625,494.32,541
106.645,492.86,541.8
106.665,493.09,541.04
106.685,492.87,540.43
106.705,491.89,541.55
106.725,491.52,542.24
106.745,492.01,543.99
106.765,491.41,544.19
106.785,490.33,544.35
106.805,491.06,541.28
106.825,491.85,540.83
106.845,492.08,543.46
106.865,491.06,567.57
106.885,485.85,616.25
106.905,483.28,666.2
106.925,479.22,731.76
106.945,476.58,764.81
106.965,475.26,786.25
106.985,475.01,781.4
107.005,473.21,767.12
107.025,472.17,742.1
107.045,474.13,711.68
107.065,474.11,687.54
107.085,476.69,661.03
107.105,479.55,645.23
107.125,480.84,625.98
107.145,482.67,612.18
107.165,484.34,603.75
107.185,485.87,595.6
107.205,487.5,581.28
107.225,487.4,573.62
107.245,487.72,566.5
107.265,487.57,554.4
107.285,488.06,553.72
107.305,488.85,554.58
107.325,489.68,552.66
107.345,490.54,541.13
107.365,489.83,540.9
107.385,491.87,540.32
107.405,501.69,540.66
107.425,513.75,552.53
107.445,525.4,556.62
107.465,537.52,540.9
107.485,543.62,507.32
107.505,544.69,459.65
107.525,538.76,415.52
107.545,528.8,379.82
107.565,519.84,351.45
107.585,512.47,345.56
107.605,506.78,346.45
107.625,502.42,354.36
107.645,498.54,366.09
107.665,495.83,381.87
107.685,493.87,398.7
107.705,493.69,419.36
107.725,492.75,432.89
107.745,492.6,448.11
107.765,493.08,461.29
107.785,493.27,473.63
107.805,494.21,484.3
107.825,494.97,496.44
107.845,494.78,503.75
107.865,494.02,509.2
107.885,493.82,512.16
107.905,493.25,514.13
107.925,492.4,517.5
107.945,491.52,521.8
107.965,493.22,524.24
107.985,494.17,527.39
108.005,495.14,528.12
108.025,495.51,530.09
108.045,495.21,530.27
108.065,494.37,532.02
108.085,493.69,534.62
108.105,493.76,533.69
108.125,494.6,533.75
108.145,495.28,535.4
108.165,495.23,535.12
108.185,496.38,533.5
108.205,495.71,534.6
108.225,494.76,534.28
108.245,494.81,531.22
108.265,495.45,532.58
108.285,496.16,530.66
108.305,495.73,530.73
108.325,495.98,530.38
108.345,495.39,534.51
108.365,495.31,535.81
108.385,495.85,535.24
108.405,496.68,534.8
108.425,495.54,538.04
108.445,495.03,538.43
108.465,495.03,539.94
108.485,494.82,538.55
108.505,493.66,538.44
108.525,493.53,538.36
108.545,493.02,535.68
108.565,493.22,535.55
108.586,493.57,535.84
108.606,493.06,535.27
108.626,491.65,534.42
108.646,491.72,533.93
108.666,490.57,533.75
108.686,490.66,534
108.706,492.33,531.6
108.726,491.66,531.88
108.746,491.93,532.5
108.766,491.74,534.4
108.786,492.79,536.72
108.806,492.04,537.98
108.826,492.23,539.58
108.846,492.18,537.67
108.866,492.55,538.53
108.886,492.64,540.23
108.906,493.11,540.38
108.926,493.89,541.7
108.946,496.31,544.56
108.966,490.85,566.45
108.986,481.28,597.76
109.006,470.42,638.81
109.026,461.54,674.65
109.046,454.03,711.92
109.066,451.42,733.13
109.086,451.14,737.11
109.106,452.91,737.29
109.126,457.33,727.23
109.146,463.06,711.98
109.166,470.85,693.19
109.186,476.48,672.35
109.206,480.78,647.88
109.226,487.23,631.7
109.246,492.58,616.96
109.266,495.07,598.57
109.286,496.45,592.66
109.306,496.76,593.72
109.326,497.81,586.38
109.346,496.45,577.3
109.366,495.76,571.04
109.386,495.41,564.43
109.406,496.33,562.95
109.426,496.46,550.96
109.446,494.37,554.17
109.466,494.29,549.13
109.486,494.24,545.71
109.506,494.19,545.17
109.526,497.55,554.13
109.546,503.04,572.11
109.566,509.83,561.48
109.586,519.67,525.59
109.606,526.53,479.47
109.626,529.63,432.98
109.646,525.9,389.98
109.666,517.92,360.18
109.686,511.74,338.75
109.706,507.39,325.6
109.726,503.31,327.88
109.746,501.45,336.1
109.766,498.96,346.28
109.786,496.17,364.63
109.806,494.73,384.1
109.826,494.39,401.48
109.846,493.91,416.98
109.866,494.53,434.59
109.886,494.62,449.47
109.906,493.7,464.98
109.926,493.56,478.58
109.947,494.25,490.06
109.967,493.2,498.25
109.987,493.56,503.6
110.007,493.05,506.28
110.027,494.04,511.82
110.047,494.03,513.86
110.067,494.82,517.49
110.087,495.26,521.39
110.107,496.41,522.91
110.127,496.53,525.93
110.147,495.82,528.94
110.167,494.66,531.36
110.187,493.73,533.28
110.208,494.58,532.03
110.228,495.06,533.42
110.248,495.05,534.54
110.268,493.84,536.23
110.288,494.47,538.18
110.308,494.38,538.15
110.328,495.1,538.72
110.348,494.68,539.17
110.368,495.15,539.14
110.388,494.12,539.71
110.408,494.69,541.17
110.428,495.95,541.94
110.448,496.96,540.55
110.468,495.17,541.04
110.488,494.74,540.23
110.508,493.79,538.58
110.528,493.23,539.07
110.548,492.59,537.45
110.568,492.07,538.36
110.588,490.05,539.69
110.608,490.84,539.35
110.628,490.07,538.68
110.648,490.06,540.95
110.668,492.25,538.96
110.688,491,539.77
110.708,490.2,539.61
110.728,491.76,540.09
110.748,492.01,539.67
110.768,491.81,539.54
110.788,492.44,539.03
110.808,492.96,538.82
110.828,493.76,538.46
110.848,494.41,537.77
110.868,495.53,538.61
110.888,495.02,537.29
110.908,495.82,536.63
110.928,494.65,537.71
110.948,494.32,537.77
110.968,493.46,540.41
110.988,493.77,540.13
111.008,493.41,541.1
111.028,492.93,541.08
111.049,492.34,540.47
111.069,492.28,542.17
111.089,493.62,543.54
111.109,494.3,543.43
111.129,495.24,544.74
111.149,494.39,545.8
111.169,495.11,543.44
111.189,495.69,544.15
111.209,496.35,544.72
111.229,496.88,543.38
111.249,497.71,542.7
111.269,495.56,541.56
111.289,495.05,541.05
111.309,494.64,542.64
111.329,493.71,544.91
111.349,494.57,548.73
111.37,493.86,549.98
111.39,495.68,551.59
111.41,495.55,551.87
111.43,495.04,550.1
111.45,493.83,560.68
111.47,491.46,600.74
111.49,491.97,640.19
111.51,494.78,686.95
111.53,496.02,754.16
111.55,495.22,807.93
111.57,496.77,812.94
111.59,493.22,798.96
111.61,489.38,774.16
111.63,484.1,752.33
111.65,482.08,727.27
111.67,480.86,697.21
111.69,479.89,677.17
111.71,482.91,658.14
111.73,484.73,644.51
111.75,485.38,631.81
111.771,487.11,616.05
111.791,488.29,604.44
111.811,488.03,600.55
111.831,488.22,596.64
111.851,489.18,594.11
111.871,490.14,584.29
111.891,491.11,579.03
111.911,490.69,577.03
111.931,489.95,575.42
111.951,492.76,578.34
111.971,498.41,579.87
111.991,504.33,593.3
112.011,509.86,592.64
112.031,515.89,570.71
112.051,521.91,531.37
112.071,522.53,484.69
112.091,519.82,439.75
112.111,513.06,407.6
112.131,506.05,383.48
112.151,501.44,365.79
112.171,497.75,365.83
112.191,494.4,366.46
112.211,492.52,378.37
112.231,490.62,394.1
112.251,490.49,409.28
112.271,490.79,422.22
112.291,490.84,440.58
112.311,492.27,459.86
112.331,493.21,473.09
112.351,493.97,486.07
112.371,494.78,497.26
112.391,493.82,505.61
112.411,493.06,509.88
112.431,492.65,516.51
112.451,492.92,520.61
112.471,494.13,526.08
112.491,493.91,531.27
112.511,494.93,535.61
112.531,494.14,538.69
112.551,494.31,541.55
112.571,494.05,541.04
112.591,493.04,543.63
112.611,493.43,544.91
112.631,494.15,548.33
112.652,493.52,552.06
112.672,493.21,555.85
112.692,492.97,558.08
112.712,493.38,559.26
112.732,493.5,558.61
112.752,493.4,559.29
112.772,493.32,559.83
112.792,492.66,561.46
112.812,491.93,561.97
112.832,492.14,562.78
112.852,493.11,563.22
112.872,493.09,561.58
112.892,494.27,560.86
112.912,494.82,561.09
112.932,494.25,561.27
112.952,494.4,560.62
112.973,493.52,561.69
112.994,493.02,561.76
113.014,493.01,562
113.034,493.81,560.6
113.054,495.65,559.08
113.074,495.52,558.87
113.094,496.02,558.89
113.115,497.01,557.71
113.136,496.61,559.17
113.156,497.69,559.74
113.176,497.55,558.79
113.196,495.84,558.43
113.216,496.07,558.55
113.236,496.46,558.04
113.256,496.57,557.23
113.276,496.85,558.38
113.296,496.48,558.91
113.316,496.79,558.93
113.336,498.03,558.14
113.356,499.02,558.11
113.376,497.82,558.29
113.396,497.25,555.83
113.416,497.2,555.27
113.436,496.16,554.21
113.457,497.13,553.17
113.477,496.7,551.54
113.498,496.96,551.43
113.518,495.77,551.34
113.538,496.02,550.27
113.558,494.81,552.82
113.578,494.65,553.06
113.598,494.52,553.24
113.619,495.22,550.2
113.64,495.57,548.76
113.66,496.46,548.81
113.68,496.97,550.24
113.7,496.57,548.6
113.72,497.46,548.68
113.74,497.77,547.34
113.76,497.01,545.27
113.78,495.61,547.82
113.8,495.49,545.85
113.82,495.79,547.28
113.84,495.23,548.83
113.86,494.99,549.06
113.88,495.59,546.85
113.9,495.27,549.08
113.92,493.62,550.06
113.94,493.09,550.85
113.96,493.27,545.68
113.98,493.62,543.34
114,493.5,546.08
114.02,493.8,561.86
114.04,494.64,595.49
114.06,495.11,622.19
114.08,493.29,662.95
114.1,490.03,697.56
114.12,490.82,713.45
114.14,490.26,722.76
114.16,491.61,712.41
114.18,490.29,714.73
114.2,491.23,708.98
114.22,491.78,697.78
114.24,493.83,681.23
114.26,494.46,665.18
114.28,494.97,653.95
114.3,494.78,640.16
114.32,494.42,622.93
114.34,494.14,611.14
114.36,494.91,600.31
114.38,493.93,596.45
114.4,494.54,596.56
114.42,494.23,591.45
114.44,493.79,586.76
114.46,494.43,582.81
114.48,493.54,578.05
114.5,492.83,576.44
114.52,493.07,574.55
114.54,494.25,569.64
114.56,496.8,568.71
114.58,500.04,577.97
114.6,501.63,584.78
114.62,504.11,560.22
114.641,508.49,510.58
114.661,508.59,454.86
114.681,505.07,408.89
114.701,501.66,381.31
114.721,500.13,364.65
114.741,499.1,358.32
114.761,498.28,365.06
114.781,497.22,373.84
114.802,495.78,391.28
114.822,496.02,406.42
114.842,496.42,421.74
114.862,497.14,438.39
114.882,496.31,453.31
114.902,495.05,467.85
114.922,492.44,484.48
114.942,490.35,493.38
114.962,489.48,498.91
114.982,490.18,502.53
115.002,490.35,506.22
115.022,490.88,511.18
115.042,491.3,517.34
115.062,492.84,521.67
115.082,492.47,521.14
115.102,492.78,525.11
115.122,492.82,529.09
115.142,493.86,530.87
115.162,493.09,534.9
115.182,493.07,537.72
115.202,494.06,536.97
115.222,493.24,539.38
115.242,493.4,537.5
115.263,493.72,537.8
115.283,493.77,539.64
115.303,492.22,541.51
115.323,492.37,543.21
115.343,492.9,543.97
115.363,493.92,543.78
115.383,493.94,542.02
115.403,493.75,541.02
115.423,492.8,543.61
115.443,491.64,545.09
115.463,489.91,547.87
115.483,490.53,545.3
115.503,491.82,547.04
115.523,491.46,547.03
115.543,492.17,547.82
115.563,492.33,547.46
115.583,492.87,547.57
115.603,493.69,548.05
115.623,492.75,548.04
115.643,493.6,547.43
115.663,493.48,545.75
115.683,492.79,547.6
115.703,492.23,547.68
115.723,492.38,547.14
115.743,492.91,546.71
115.763,493.33,546.57
115.783,492.66,545.66
115.803,492.33,547.93
115.823,492.06,549.14
115.843,492.65,547.11
115.863,492.92,546.89
115.883,493.94,545.91
115.903,491.95,544.33
115.923,493.16,545.26
115.943,493.53,544.01
115.963,495.22,543.41
115.983,496.78,539.73
116.003,498.02,539.98
116.023,495.02,538.59
116.043,494.21,539.07
116.063,494.17,542.85
116.083,492.94,543.68
116.103,494.15,542.75
116.123,492.32,541.6
116.143,492.66,542.68
116.163,493.92,544.14
116.183,491.34,543.91
116.203,492.67,543.73
116.223,491.94,543.58
116.243,489.95,542.47
116.263,487.76,542.97
116.283,486.81,542.18
116.303,489.25,538.94
116.323,489.6,539.35
116.343,489.68,540.08
116.363,489.94,541.47
116.383,490.15,540.77
116.403,490.52,541.82
116.423,490.42,541.66
116.443,491.33,552.12
116.463,489.67,575.9
116.483,486.73,601.32
116.503,482.59,632.06
116.523,479.87,657.64
116.543,476.9,676.92
116.563,475.12,687.13
116.583,476.49,694.71
116.603,478.99,694.16
116.623,481,691.73
116.643,484.8,685.39
116.663,488.84,673.91
116.683,492.07,660.53
116.703,494.06,646.22
116.723,494.64,635.18
116.743,495.52,628.14
116.763,495.41,616.31
116.783,495.53,606.05
116.803,496.02,596.24
116.823,497.22,584.79
116.843,497.38,579.63
116.863,496.7,573.91
116.883,495.96,568.33
116.903,496.17,564.86
116.923,495.53,566.69
116.943,499.03,573.35
116.963,500.22,592.88
116.983,504.58,602.5
117.003,510.46,605.6
117.023,516.97,583.48
117.043,522.98,537.99
117.063,522.58,482.99
117.083,516.26,433.39
117.103,510.01,393.71
117.123,503.41,367.97
117.143,499.53,355.38
117.163,497.42,354.9
117.183,494.54,362.12
117.203,493.23,374.1
117.223,493.58,388.68
117.243,493.87,405.54
117.263,493.29,423.83
117.283,493.64,439.67
117.303,492.71,454.93
117.323,491.97,468.95
117.343,489.97,479.76
117.363,490.98,492.01
117.383,490.78,498.8
117.403,493.23,504.64
117.423,493.58,509.92
117.443,494.26,516.13
117.463,494.21,521.51
117.483,494.77,524
117.503,495.82,527.6
117.523,495.45,532.28
117.543,495.96,533.23
117.563,496.17,534.98
117.583,495.14,537.78
117.603,494.71,540.03
117.623,493.97,541.02
117.643,493.17,541.22
117.663,493.54,541.17
117.683,495.03,542.14
117.703,494.22,544.71
117.723,494.18,545.37
117.744,493.94,546.9
117.765,493.96,548.52
117.786,493.16,551.21
117.807,493.13,552.77
117.827,492.91,553.22
117.847,492.92,554.17
117.868,491.74,555.74
117.889,490.79,557.39
117.91,491.03,559.91
117.931,491.83,562.73
117.951,492.06,563.78
117.972,494.85,565.83
117.993,497.28,566.06
118.014,497.42,564.25
118.034,496.74,564
118.054,496.39,562.4
118.074,495.31,560.92
118.094,496.25,560.14
118.114,497.2,558.71
118.134,497.36,558.57
118.154,495.29,558.65
118.174,494.23,558.52
118.194,493.78,556.02
118.214,493.23,554.81
118.234,493.38,554.65
118.254,492.11,555.92
118.274,491.88,556.14
118.294,491.51,556.31
118.315,491.81,554.45
118.335,492.84,553.56
118.355,494.68,553.85
118.375,495.14,553.68
118.395,495.11,552.94
118.415,495.49,552.35
118.435,495.39,553.48
118.455,496.51,554.19
118.475,496.81,553.35
118.495,495.25,554.48
118.515,495.2,555.38
118.535,494.96,553.51
118.555,494.37,553.21
118.575,495.09,553.16
118.595,495.48,553.33
118.615,496.58,553.27
118.635,496.06,553.41
118.655,495.25,553.33
118.676,496.2,550.46
118.696,495.16,550.77
118.716,494.73,551.82
118.736,493.98,550.65
118.756,493.99,550.32
118.776,494.59,551.26
118.797,493.47,549.21
118.817,494.78,548.57
118.837,494.42,549.05
118.857,494.94,547.44
118.877,494.75,545.55
118.897,493.8,548.04
118.917,492.04,558.83
118.937,489.23,591.27
118.957,486.79,621.21
118.977,482.63,651.97
118.997,481.5,679.38
119.017,479.2,689.9
119.037,479.56,698.52
119.057,483.05,696.82
119.077,486.24,688.45
119.097,489.19,679.36
119.117,493.15,667.89
119.137,496.32,651.91
119.157,497.46,639.33
119.177,499.37,626.86
119.197,501.49,622.49
119.217,502.59,611.19
119.237,502.28,601.55
119.257,502.02,592.24
119.277,500.62,584.39
119.297,499.29,578.92
119.317,498.43,572.73
119.337,496.95,572.39
119.357,497.16,567.51
119.377,495.73,563.21
119.397,495.98,559.77
119.417,496.18,557.81
119.437,495.95,556.25
119.458,495.16,556.4
119.478,496.13,567.52
119.498,500.1,582.42
119.518,504.68,580.73
119.538,507.14,549.39
119.558,511.52,502.31
119.579,510.61,455.25
119.599,504.29,408
119.619,498.83,381
119.639,494.87,367.8
119.659,492.09,365.84
119.679,491.27,369.87
119.699,490.42,376.3
119.719,491.14,388.64
119.739,489.51,406.31
119.759,490.41,419.45
119.779,490.13,433.36
119.799,491.7,445.69
119.819,491.36,458.35
119.839,490.89,469.48
119.859,491.71,480.78
119.879,491.77,490.03
119.899,491.61,497.22
119.919,491.89,503.58
119.939,492.11,508.86
119.959,491.89,517.69
119.979,490.71,522.15
119.999,489.77,526.12
120.019,487.62,530.1
120.039,486.49,535.08
120.059,486.59,537.26
120.079,487.28,538.41
120.099,488.22,538.53
120.119,487.98,541.02
120.139,488.98,543.42
120.159,489.18,544.53
120.179,489.15,546.23
120.199,489.92,544.58
120.219,491.33,545.67
120.24,491.27,545.73
120.26,491.01,545.99
120.28,490.41,548.19
120.3,490.33,548.75
120.32,489.66,548.6
120.34,489.13,548.08
120.36,489.5,546.26
120.38,489.6,546.41
120.4,489.68,545.73
120.42,490.55,545.58
120.44,491.24,544.67
120.46,491.99,543.33
120.48,493.39,539.27
120.5,493.51,540.01
120.52,492.21,542.41
120.54,492.57,543.13
120.56,492.85,543.1
120.58,493.88,539.68
120.6,493.51,540.95
120.62,494.61,540.16
120.64,495.28,540.53
120.66,493.63,544.22
120.68,493.3,543.18
120.7,492.24,543.14
120.72,493.59,542.11
120.741,494.47,542.89
120.761,494.18,545.11
120.781,494.34,547.09
120.801,495.08,546.87
120.821,494.86,546.7
120.841,494.69,547.56
120.861,495.15,547.45
120.881,494.12,545.76
120.901,493.3,544.21
120.921,492.24,544.76
120.941,491.39,543.61
120.962,491.11,545.69
120.982,491.49,544.75
121.002,492.79,544.4
121.022,492.63,544.72
121.043,493.91,547.38
121.063,493.73,549.7
121.083,494.38,552.16
121.103,492.7,567.93
121.124,488.76,605.94
121.145,485.01,666.55
121.166,479.01,735.44
121.186,474.61,792.75
121.206,470.09,824.4
121.226,470.27,822.32
121.246,474.01,798.26
121.266,480.41,771.41
121.286,486.93,738.13
121.306,494.14,707.7
121.326,500.71,677.96
121.346,505.37,653.17
121.366,507.3,633.33
121.386,508.84,616.87
121.407,508.67,602.09
121.427,508.74,591.88
121.448,507.79,581.9
121.469,504.83,576.32
121.489,504.86,569.46
121.509,505.09,566.96
121.529,502.67,567.17
121.55,501.14,564.74
121.571,500.71,565.79
121.592,499.17,565.63
121.612,498.34,564.91
121.632,498.47,566.12
121.653,496.57,570.7
121.673,495.86,586.76
121.693,494.89,604.81
121.713,493.11,597.85
121.733,497.69,557.68
121.753,499.55,505.34
121.773,500.24,457.67
121.793,499.59,418.74
121.813,499.67,388.39
121.833,498.54,365.71
121.853,497.83,363.97
121.873,497.87,368.78
121.893,498.69,378.42
121.913,497.55,390.14
121.933,497.44,405.51
121.953,496.75,422.01
121.973,496.4,436.01
121.993,496.72,451
122.013,496.38,465.2
122.033,495.1,475.36
122.053,494.28,486.69
122.073,495.63,495.95
122.093,496.1,504.56
122.113,495.48,511.05
122.133,495.98,517.24
122.153,497.19,522.19
122.173,496.75,528.55
122.193,496.4,531.24
122.213,495.32,535.79
122.233,494.46,537.84
122.253,494.96,539.47
122.273,495.17,541.17
122.293,496.14,542.94
122.313,495.11,545.95
122.333,494.89,549.96
122.353,494.11,551.17
122.373,494.69,552.54
122.393,494.55,553.23
122.413,494.44,553.18
122.433,493.95,554.15
122.453,493.76,553.12
122.473,493.01,553.49
122.493,493.21,553.39
122.513,494.97,551.12
122.533,494.97,551.69
122.553,494.18,549.95
122.573,494.14,548.96
122.593,493.31,548.17
122.613,494.45,545.94
122.633,494.96,545.95
122.653,494.37,545.36
122.673,494.3,545.69
122.693,494.44,545.55
122.713,493.95,546.84
122.733,493.76,546.47
122.753,493.01,547.38
122.773,492.41,548.1
122.793,493.32,546.28
122.813,493.86,548.63
122.833,494.69,550.7
122.853,495.15,552.96
122.873,494.92,553.97
122.893,496.34,555.77
122.913,496.67,554.42
122.933,496.34,555.14
122.953,496.67,554.31
122.973,497.53,552.65
122.993,497.63,551.72
123.013,496.3,550.77
123.033,497.04,550.62
123.053,496.23,547.9
123.073,495.39,546.92
123.093,494.71,545.13
123.113,495.97,546.71
123.133,496.77,547.97
123.153,496.42,547.57
123.173,497.34,547.66
123.193,496.27,547.33
123.213,495.01,547.86
123.233,495.01,547.69
123.253,496.41,546.35
123.273,496.73,545.28
123.293,497.78,544.82
123.313,496.43,544.86
123.333,496.54,545.09
123.353,495.83,543.07
123.373,495.27,548.66
123.393,493.01,572.12
123.413,487.61,602.5
123.433,481.89,642.4
123.453,478.11,683.92
123.473,473.89,733.74
123.493,471.31,769.99
123.513,470.65,781.39
123.533,472.12,767.91
123.553,476.1,749.13
123.573,480.68,722.9
123.593,486.74,699.12
123.613,490.79,677.9
123.633,494.03,656.52
123.653,496.63,636.62
123.673,498.7,616.89
123.693,500.96,604.11
123.713,501.77,593.09
123.733,502.42,585.07
123.753,501.13,579.66
123.773,500.51,569.13
123.793,501.2,560.9
123.813,500.36,559.12
123.833,500.09,555.9
123.853,498.27,553.92
123.873,497.42,553.13
123.893,496.73,553.51
123.913,495.39,569.81
123.933,492.91,586.04
123.953,493.13,580.44
123.973,494.7,544.15
123.993,497.56,494.12
124.013,499.05,447.3
124.033,500.44,412.84
124.053,502.15,390.47
124.073,502.12,377.78
124.093,501.5,373.82
124.113,500.6,377.86
124.133,500.88,389.08
124.153,501.3,400.27
124.173,500.04,413.41
124.193,500.43,428.73
124.213,500.35,443.79
124.233,499.08,457.03
124.253,497.26,469.62
124.273,499.01,479.1
124.293,498.61,487.08
124.313,497.89,496.06
124.333,496.31,501.25
124.353,496.85,507.6
124.373,496.08,515.08
124.393,496.26,521.46
124.413,495.81,525.17
124.433,497.65,528.14
124.453,496.92,530.91
124.473,496.53,531.53
124.493,496.63,533.82
124.513,495.9,536.26
124.533,494.72,538.21
124.553,494.78,540.16
124.573,494.42,538.33
124.593,493.74,538.47
124.613,494.79,537.57
124.633,494.63,536.06
124.653,494.71,538.85
124.673,494.56,538.08
124.693,493.65,536.46
124.713,494.92,538.17
124.733,494.14,538.54
124.753,494.31,536.63
124.773,494.05,537.7
124.793,494.04,538.56
124.813,493.03,539.45
124.833,493.22,538.16
124.853,493.58,539.13
124.873,493.46,540.7
124.893,492.97,541.76
124.913,493.78,541.21
124.933,494.82,541.97
124.953,493.66,541.97
124.974,494.53,542.18
124.994,494.42,542.14
125.014,493.54,540.91
125.034,493.03,541.33
125.055,491.42,540.87
125.075,492.74,540.09
125.096,493.59,538.87
125.116,493.67,538.5
125.136,493.74,538.6
125.156,492.19,539.48
125.176,491.55,539.98
125.196,491.84,540.99
125.216,491.67,539.79
125.236,491.34,541.63
125.256,491.87,542.51
125.276,492.3,543
125.296,490.04,549.4
125.316,491.63,549.52
125.336,491.3,548.82
125.356,492.44,548.05
125.376,491.95,547.04
125.396,492.16,548.03
125.416,492.33,548.83
125.436,492.26,550.46
125.456,493.41,548.77
125.476,494.13,549.42
125.496,494.1,550.53
125.516,495.48,549.83
125.536,494.79,548.46
125.556,494.03,549.97
125.576,493.82,547.58
125.596,494.66,546.26
125.616,496.13,545.21
125.636,497.5,545.57
125.656,496.8,552.25
125.676,495.24,581.4
125.696,493.39,611.12
125.716,489.51,644.3
125.736,484.61,675.24
125.756,481.69,696.59
125.776,477.55,710.27
125.796,478.44,712.02
125.816,479.35,707.41
125.836,480.48,700.93
125.856,481.59,684.55
125.876,482.67,664.84
125.896,484.33,645.87
125.916,485.67,631.1
125.936,489.13,616.48
125.956,490.91,603.18
125.976,490.93,596.34
125.996,491.74,588.48
126.016,492.79,580.98
126.036,493.63,568.18
126.056,494.71,564.55
126.076,494.57,563.84
126.096,493.85,565.47
126.116,495.08,575.98
126.136,499.27,587.98
126.156,508.41,591.18
126.176,519.33,582.75
126.196,526.06,563.2
126.217,528.65,528.16
126.237,522.32,483.53
126.257,515.26,441.42
126.277,510.81,410.94
126.297,508.44,390.95
126.317,504.76,385.16
126.337,503.2,384.53
126.357,501.16,392.22
126.377,499.33,400.58
126.397,497.26,412.46
126.417,496.61,424.17
126.437,495.29,437.54
126.458,495.03,447.23
126.478,494.03,461.18
126.498,493.62,470.95
126.518,492.9,482.76
126.538,492.72,492.41
126.558,492.97,498.92
126.579,492.18,507.34
126.599,492.54,514.87
126.619,494.03,518.9
126.639,494.03,524.32
126.659,493.42,526.05
126.679,492.74,530.64
126.699,492.19,533.31
126.719,491.95,537.25
126.739,492.96,538.4
126.759,493.77,542.32
126.78,494.62,544.26
126.8,495.09,547.81
126.82,496.47,549.84
126.84,496.78,550.88
126.86,495.62,552.1
126.88,496.3,553.28
126.9,494.84,555.42
126.92,494.27,554.74
126.94,493.42,556.19
126.96,492.93,556.35
126.98,492.55,554.68
127,493.04,555.35
127.02,492.03,555.28
127.04,490.82,555.82
127.06,491.26,555.46
127.08,492.01,554.97
127.1,493.41,554.97
127.12,492.92,555.38
127.14,494.74,554.7
127.16,493.99,555.16
127.18,493.79,556.53
127.2,494.83,553.82
127.22,494.47,554.66
127.24,493.57,554.93
127.26,494.26,554.74
127.28,494.41,554.99
127.3,493.93,554.99
127.32,494.14,555.2
127.34,494.71,555.56
127.36,495.37,556.25
127.38,496.1,557.2
127.4,496.28,558.96
127.42,496.02,557.77
127.44,494.82,558.61
127.46,494.45,557.69
127.48,493.96,559.35
127.5,493.77,559.28
127.52,493.82,558.43
127.54,493.85,559.34
127.56,493.88,559.27
127.58,494.71,560.02
127.6,495.36,559.21
127.62,495.29,558.97
127.64,494.63,560.98
127.66,495.91,561.78
127.68,497.33,563.03
127.7,497.66,562.02
127.72,497.53,562.02
127.74,496.02,564.01
127.76,495.82,564.81
127.78,494.25,564.45
127.8,493.6,562.96
127.82,494.48,561.97
127.84,494.59,561.77
127.86,495.67,560.42
127.88,495.94,558.54
127.9,496.15,559.83
127.92,495.52,560.46
127.94,494.01,560.57
127.96,493.41,558.46
127.98,494.13,558.36
128,493.5,556.49
128.02,492.8,555.39
128.04,493.84,555.11
128.06,492.47,555.49
128.08,492.18,555.59
128.1,492.74,555.67
128.12,492.99,557.14
128.14,492.6,558.91
128.16,492.68,559.53
128.18,491.74,558.62
128.2,491.59,558.3
128.22,492.07,559.04
128.24,492.26,558.23
128.26,491.61,556.59
128.28,492.09,557.67
128.3,491.67,558.73
128.32,491.14,559.99
128.34,491.11,558.59
128.36,491.69,556.87
128.38,491.35,557.9
128.4,491.88,558.72
128.42,491.3,560.17
128.44,491.64,560.34
128.46,491.51,558.87
128.48,491.81,556.3
128.5,492.05,553.44
128.52,491.64,552.15
128.54,491.31,553.92
128.56,491.25,554.74
128.58,489.8,557.99
128.6,489.44,562.79
128.62,488.75,567.83
128.64,488.6,570.67
128.66,487.88,576.13
128.68,486.9,583.51
128.7,489.92,600.61
128.72,496.54,630.28
128.74,506.23,684.83
128.76,519.18,733.66
128.78,528.35,769.53
128.8,534.08,803.02
128.82,544.46,816.42
128.84,556.37,823.14
128.86,566.5,814.91
128.88,559.4,815.33
128.9,537.52,806.46
128.92,520.81,803.77
128.94,505.05,804.22
128.96,497.44,792.57
128.98,456.75,792.86
129,423.8,768.09
129.02,394.84,757.07
129.04,352.07,745.26
129.06,310.66,730.8
