Program Time [s],data 0,data 1
4.59529,488.34,562.12
4.61525,487.67,563.29
4.63531,487.74,565.23
4.65545,487.39,565.79
4.67518,487.71,565.23
4.6952,488.77,563.58
4.71517,490.42,561.47
4.73515,489.73,560.97
4.75523,490.39,559.58
4.77525,488.91,559.06
4.79514,488.53,558.65
4.81517,488.22,559.32
4.8352,488.38,559.06
4.85513,487.9,559.45
4.87514,488.52,560.96
4.89513,488.02,561.76
4.91518,487.01,562.01
4.93519,485.01,562.01
4.95515,484.41,562.81
4.97513,484.73,562.05
4.99514,485.18,562.64
5.01514,484.95,562.51
5.03513,482.56,561.21
5.05514,481.64,560.97
5.07514,479.52,561.37
5.09515,478.61,562.1
5.11513,477.49,562.68
5.13515,478.19,562.54
5.15514,479.55,563.23
5.17517,480.64,567.39
5.19515,479.51,588.91
5.21514,477.21,618.53
5.23513,475.17,654.22
5.25518,471.14,694.58
5.27515,467.71,716.66
5.29518,465.97,731.13
5.31514,465.77,736.1
5.33517,466.82,730.48
5.35526,469.05,719.99
5.37513,470.24,706.99
5.39522,472.8,693.99
5.41514,473.84,678.19
5.43513,473.87,665.55
5.45524,473.9,652.84
5.47513,476.32,642.67
5.49522,475.65,633.74
5.51514,477.92,618.79
5.53517,478.94,610.63
5.55513,479.55,604.51
5.57524,479.44,596.01
5.59522,479.95,590.2
5.61515,480.96,586.36
5.63523,481.77,582.49
5.65524,482.22,579.39
5.67523,483.97,582.91
5.69514,488.18,604.93
5.71513,491.94,634.15
5.73515,497.95,653.52
5.75522,504.96,643.61
5.77513,511.77,601.09
5.79513,515.02,539.47
5.81515,511.81,476.18
5.83525,505.65,422.14
5.85522,502.32,383.71
5.87513,500.86,363.77
5.89516,498.29,355.22
5.91514,496.43,356.37
5.93515,492.74,363.3
5.95514,490.79,376.44
5.97515,489.04,392.75
5.99515,488.43,409.4
6.01514,487.54,426.12
6.03513,487.23,442.1
6.05523,486.19,457.88
6.07515,482.35,474.1
6.09513,480.88,486.68
6.11515,481.1,497.95
6.13514,481.88,507.36
6.15519,481.71,516.08
6.17516,481.97,523.47
6.19514,481.77,529.37
6.21516,482.22,534.7
6.23515,480.77,540.96
6.25514,480.42,544.97
6.27514,480.74,548.17
6.29514,479.59,552.74
6.31521,478.67,555.59
6.33614,477.74,556.27
6.35622,477.39,558.42
6.37613,478.11,559.33
6.39615,477.89,558.87
6.41622,477.11,559.89
6.43614,477.89,559.32
6.4562,478.71,559.05
6.47627,478.37,559.04
6.49715,477.5,557.23
6.51705,478.4,556.99
6.53728,479.92,557.19
6.55728,480.93,556.35
6.57714,481.55,554.68
6.59714,481.64,554.74
6.61814,482.71,553.4
6.63816,482.77,551.12
6.65822,483.21,548.69
6.67807,483.37,548.15
6.69813,484.3,546.92
6.71816,485.64,546.94
6.73915,487.51,545.95
6.75922,487.61,544.96
6.77922,487.09,545.17
6.79903,486.47,545.74
6.81926,484.98,544.39
6.83914,484.18,544.71
6.85906,484.94,543.17
6.87914,485.16,542.73
6.89913,485.72,542.19
6.91915,486.58,541.95
6.93914,486.66,539.36
6.95922,486.53,537.49
6.97907,486.62,538.19
6.99914,487.3,537.55
7.01917,486.64,537.84
7.03906,485.91,538.67
7.05916,485.93,539.14
7.07916,486.54,538.71
7.09916,486.43,539.37
7.11905,485.35,539.7
7.1394,484.88,539.96
7.15923,485.7,538.96
7.17916,485.36,538.97
7.19915,485.49,538.98
7.21913,485.79,539.18
7.23904,485.43,540.35
7.25914,486.55,541.68
7.27917,486.24,541.74
7.29911,486.39,543.99
7.3192,485.71,567.19
7.34016,483.37,607.56
7.36006,480.5,650.04
7.38022,476.2,683.04
7.40005,473.96,714.03
7.42006,470.77,730.82
7.44024,470.01,726.06
7.46006,469.41,716.45
7.48017,468.93,697.36
7.50002,467.54,678.29
7.52013,466.63,664.83
7.5402,467.51,650.06
7.56021,468.21,634.05
7.58114,470.16,624.24
7.6012,472.33,615.79
7.62215,474.27,607.23
7.64215,476.01,594.19
7.6622,476.61,582.15
7.6822,478.29,572.32
7.7022,478.43,566.26
7.72305,478.94,562.8
7.74314,476.96,558.64
7.76318,479.56,565.11
7.78416,483.45,581.49
7.80416,488.76,598.39
7.82419,496.41,588.91
7.84515,504.13,546.73
7.86519,508.3,484.79
7.88503,507.24,423.43
7.90515,504.59,369.34
7.9252,501.07,330.07
7.94614,497.26,309.26
7.96616,493.41,302.81
7.98614,492.13,305.05
8.00603,488.9,312.24
8.02605,487.52,325.19
8.04605,485.02,345.15
8.06613,484.21,365.52
8.08637,482.77,384.22
8.10715,482.42,405.17
8.12723,482.33,424.94
8.14722,482.87,441.15
8.16736,482.69,455.72
8.18715,480.95,469.78
8.20706,479.96,482.62
8.22705,479.77,492.7
8.24714,480.82,501.16
8.26706,481.05,507.53
8.28706,481.24,514.62
8.30707,481.19,519.7
8.32719,481.56,523.56
8.34722,481.64,529.05
8.36716,482.52,531.64
8.38715,482.41,532.71
8.40714,482.93,534.17
8.42704,483.54,536.93
8.44718,483.84,539.75
8.46731,483.67,542.8
8.48703,484.13,544.84
8.50702,483.51,545.87
8.52717,483.81,547.1
8.54708,483.44,546.88
8.56717,483.16,547.3
8.58704,483.12,547.64
8.60721,482.9,548.31
8.62731,482.72,548.45
8.64732,482.58,547.96
8.66803,481.66,548.37
8.68821,481.73,547.89
8.70861,481.78,547.72
8.728,482.03,548.77
8.74831,482.62,548.22
8.76815,482.5,547.97
8.78902,482.6,549.18
8.8093,481.88,549.74
8.82915,481.3,549.59
8.8493,482.24,550.68
8.86915,482.59,550.54
8.88926,481.87,552.03
8.91002,481.1,553.43
8.93024,480.68,554.34
8.95019,480.14,555.27
8.97114,480.32,557.02
8.99105,480.45,557.81
9.01114,479.76,560.05
9.03116,478.81,560.64
9.05213,478.45,561.91
9.07205,479.56,562.93
9.09216,479.45,562.74
9.11213,480.36,562.4
9.13313,481.69,562.32
9.15414,482.35,560.85
9.17424,483.08,560.48
9.19413,484.66,560.79
9.21405,485.33,561.43
9.23442,484.86,562.34
9.25414,485.89,563.87
9.27412,485.71,564.1
9.29402,486.57,563.68
9.31402,486.46,564.14
9.33422,487.17,565.91
9.35416,487.13,571.93
9.37407,484.31,601.95
9.39407,480.84,637.16
9.41421,477.08,688.73
9.43427,472.26,724.78
9.45413,468.81,753.02
9.47403,465.85,766.02
9.49414,464.08,758.82
9.51502,463.26,748.65
9.53535,462.61,737.72
9.55516,461.69,722.98
9.57503,462.55,704.58
9.59504,461.44,690.67
9.61504,463.95,676.73
9.63519,464.36,659.19
9.65507,464.69,647.15
9.67521,466.75,637.52
9.69513,468.4,630.82
9.71528,470.32,622.65
9.73502,472.06,610.72
9.7551,473.05,605.18
9.77503,477.44,602.14
9.79514,482.95,614.51
9.81505,489.36,636.21
9.83524,495.09,637.37
9.85522,503.27,602.09
9.87503,514.42,548.28
9.8952,520.73,495.02
9.91523,523.19,443.82
9.93515,519.15,395.65
9.95515,516.52,360.32
9.97517,512.62,341.66
9.99504,509.09,336.13
10.0151,505.27,340.5
10.0352,502.02,351
10.0552,498.02,366.4
10.0751,496.21,384.52
10.095,494.37,404.82
10.1151,492.1,423.65
10.1351,490.88,441.92
10.155,489.7,457.94
10.175,489.96,469.55
10.1951,489.97,479.84
10.2151,489.38,488.07
10.2352,488.1,495.66
10.255,488.48,504.13
10.275,487.38,511.7
10.2952,486.51,521.36
10.3151,485.81,528.69
10.3352,485.04,535.15
10.3552,483.44,541.32
10.3751,483.35,546.26
10.3951,483.88,549.61
10.415,483.7,552.28
10.4352,483.16,554.23
10.4561,484.53,554.98
10.4762,482.42,554.59
10.497,482.14,553.67
10.517,482.11,551.53
10.537,482.29,549.43
10.557,481.43,545.74
10.577,482.95,543.39
10.597,482.76,541.52
10.6171,483,542.21
10.6372,483.2,541.57
10.6571,483.16,541.06
10.6771,482.33,540.04
10.6971,482.66,541.24
10.7171,483.13,542.59
10.737,482.11,541.67
10.7571,482.28,541.74
10.7772,482.43,543.99
10.7971,482.54,544.79
10.8171,481.83,546.83
10.8371,481.87,545.87
10.8571,481.29,546.89
10.8771,479.83,545.91
10.8971,479.67,545.73
10.918,480.13,544.79
10.9381,481.51,543.43
10.9592,481.61,542.74
10.9791,482.28,542.39
10.999,482.83,541.52
11.019,481.66,540.61
11.0391,482.13,539.49
11.0592,482.3,539.99
11.079,482.64,539.79
11.0991,482.71,539.43
11.1191,484.17,539.95
11.14,484.54,539.16
11.16,484.23,539.13
11.1803,482.98,538.7
11.2001,482.19,537.76
11.22,481.95,537.01
11.24,483.56,536.01
11.26,483.25,535.41
11.2801,482.4,533.92
11.3001,481.52,534.14
11.3201,481.41,533.71
11.3401,482.13,532.57
11.36,481.51,532.26
11.3801,481,532.6
11.4001,481.8,532.68
11.4201,482.24,531.95
11.441,482.19,532.96
11.4611,482.36,533.17
11.481,482.48,532.53
11.5012,482.59,530.63
11.5211,483.47,531.3
11.5411,482.58,545.24
11.561,480.46,579.59
11.5812,478.37,626.67
11.6021,475.09,679.74
11.6232,471.48,728.19
11.643,467.38,758.35
11.6631,463.3,764.48
11.683,462.04,751.99
11.7032,462.23,726.79
11.724,464.59,702.23
11.7442,465.47,676.78
11.7642,466.38,655.23
11.7841,467.7,632.18
11.804,468.96,614.35
11.824,470.37,592.88
11.844,472.09,584.1
11.8641,473.08,575.08
11.8842,475.06,567.66
11.904,477.45,559.33
11.924,477.36,556.07
11.9441,478.49,551.85
11.964,478.39,550.48
11.9842,478.31,550.19
12.004,479.05,551.95
12.0241,479.04,550.76
12.0441,481.63,556.81
12.0642,487.51,565.85
12.0842,493.8,568.08
12.1041,504.84,545.46
12.1242,514.27,499.17
12.1451,519.42,446.14
12.1653,515.54,399.51
12.1852,511.03,365.81
12.2053,506.62,348.45
12.225,503.1,343.36
12.245,498.68,348.48
12.2652,495.74,356.79
12.2853,494.39,371.03
12.3054,491.92,388.42
12.325,490.73,405.54
12.345,489.19,423.23
12.3652,487.95,438.19
12.3852,485.76,451.95
12.4052,483.61,464.76
12.4252,482.69,477.21
12.445,480.55,486.97
12.4651,480.84,494.37
12.4851,481.67,501.3
12.505,480.94,505.44
12.525,481.35,507.75
12.5451,481.68,512.2
12.565,482.54,516.56
12.585,483.83,520.85
12.6051,484.27,523.48
12.625,485.01,527.98
12.6451,486.01,529.99
12.6661,485.21,533.79
12.686,484.97,535.23
12.7061,484.37,534.18
12.7261,485.7,534.75
12.746,485.96,534
12.7661,485.57,535.4
12.786,486.45,536.32
12.8062,485.76,536.06
12.826,485.81,532.64
12.846,484.25,532.92
12.866,486.2,529.73
12.886,485.96,529.79
12.9061,485.77,528.23
12.9261,485.81,528.58
12.9462,484.45,528.87
12.9661,483.36,530.69
12.9861,483.29,534.95
13.006,483.03,536.36
13.0261,481.82,538.09
13.0462,481.86,538.07
13.0661,482.09,540.06
13.086,481.27,540.85
13.1062,480.82,539.48
13.1262,481.65,541.58
13.1461,481.52,543.47
13.1662,481.62,542.97
13.186,481.09,544.38
13.206,481.28,543.3
13.2261,480.42,542.64
13.2461,480.54,535.51
13.2673,480.03,538.41
13.2871,481.42,539.73
13.307,480.94,542.78
13.327,481.35,544.03
13.3471,481.28,541.22
13.3672,480.82,543.18
13.387,480.06,543.14
13.4071,480.65,544.91
13.4272,480.92,545.93
13.447,480.93,546.74
13.4671,480.75,545.2
13.4871,480.4,546.16
13.5072,480.92,548.53
13.5272,481.13,549.22
13.547,481.31,550.38
13.5671,481.45,551.1
13.587,481.76,551.48
13.607,482.41,551.38
13.6271,481.72,548.71
13.647,481.98,547.37
13.667,481.38,546.29
13.687,482.51,544.63
13.7072,481.01,559.31
13.7272,474.8,607.05
13.747,464.44,680.64
13.7671,458.15,732.31
13.7871,452.12,751.25
13.807,448.7,748.8
13.827,448.96,737.04
13.847,452.37,719.43
13.8671,456.49,701.14
13.8871,460.8,685.12
13.907,463.64,670.89
13.9271,468.71,654.11
13.947,471.37,641.49
13.967,473.49,631.99
13.9872,476.79,621.79
14.0072,478.84,612.04
14.027,480.47,602.83
14.0471,480.18,597.66
14.067,479.74,592.13
14.087,480.39,587.5
14.1072,481.71,585
14.127,482.57,572.6
14.147,483.26,567.28
14.167,483.41,561.43
14.187,484.12,558.94
14.207,485.3,551.75
14.2271,484.64,553
14.2471,483.31,554.8
14.2671,486.45,568.44
14.2871,489.56,591.15
14.307,493.05,601.32
14.3271,499.04,592.86
14.3471,510.03,580.69
14.367,519.02,560.35
14.387,522.62,518.08
14.4073,521.3,463.66
14.427,514.64,413.13
14.447,507.91,378.1
14.467,503.73,359.08
14.4872,499.38,352.47
14.507,495.71,354.37
14.527,492.16,364.7
14.547,490.93,378.36
14.5671,489.55,393.29
14.5872,487.44,411.43
14.607,486.55,428.94
14.6271,485.04,442.76
14.6471,483.83,455.4
14.667,483.87,468.92
14.687,482.49,481.14
14.7072,480.39,490.31
14.727,479.31,501.25
14.747,478.05,510
14.767,477.64,518.2
14.787,477.51,523.96
14.8072,476.81,527.77
14.827,476.45,532.01
14.8471,475.96,534.61
14.867,477.17,536.89
14.8872,476.93,539.71
14.9071,477.75,543.17
14.9272,479.4,544.14
14.947,480.92,543.91
14.967,480.93,543.73
14.987,480.55,545.78
15.0072,481.84,545.22
15.0272,482.67,545.58
15.0472,484.74,545.86
15.0682,485.59,546.69
15.0882,486.67,547.55
15.108,486.74,548.44
15.1282,486.59,549.55
15.148,486.47,548.84
15.168,486.98,548.47
15.188,486.58,548.98
15.208,485.07,549.18
15.2282,484.65,550.35
15.2482,483.92,551.08
15.2681,482.74,551.66
15.289,481.99,551.53
15.309,480.99,553.02
15.3291,479.19,555.82
15.349,478.35,558.26
15.3691,479.08,558.2
15.389,479.07,557.36
15.409,478.45,558.69
15.4291,478.36,560.55
15.4492,479.09,560.64
15.4691,479.67,560.71
15.489,480.74,560.17
15.5091,482.59,560.54
15.5291,483.07,560.83
15.5491,482.86,561.06
15.569,483.09,561.45
15.59,484.47,560.76
15.61,484.78,561.21
15.6302,484.02,562.77
15.65,483.82,563.61
15.67,484.25,564.89
15.69,484.4,563.71
15.7104,484.52,563.17
15.7301,485.42,562.94
15.7502,485.33,563.35
15.77,484.67,567.28
15.7903,482.73,590.42
15.8101,479.59,626.94
15.8301,474.47,663.35
15.85,470.38,693.88
15.8699,466.5,715.9
15.8903,463,734.12
15.9101,461,744.7
15.9302,459.8,754.36
15.9501,459.64,778.49
15.97,460.11,775.39
15.99,462.09,752.51
16.01,463.87,720.01
16.0302,466.9,685.01
16.05,470.52,657.21
16.0701,473.61,634.16
16.0901,475.49,610.13
16.1101,477.39,599.71
16.13,479.11,588.76
16.15,480.09,580.61
16.1702,481.07,571.49
16.19,481.86,568.19
16.21,482.09,563.75
16.2302,482.67,558
16.25,485.14,555.8
16.27,486.31,553.64
16.2899,486.85,550.71
16.3102,486.68,552.17
16.3302,485.74,553.94
16.35,485.99,556.95
16.3701,483.39,564.36
16.3902,483.92,585.29
16.4101,486.73,607.63
16.43,489.59,612.7
16.4504,491.47,596.16
16.4699,495.78,558.13
16.49,499.62,504.3
16.5102,500.9,448.44
16.5302,500.72,401.35
16.5502,500.97,371.08
16.5705,498.78,357.27
16.59,497.82,356.01
16.6101,496.06,362.41
16.6303,494.05,375.53
16.651,493.04,392.42
16.671,492.23,411.14
16.691,491.58,429.91
16.711,490.07,447.33
16.731,489.45,461.66
16.7511,488.76,478.53
16.7712,488.01,490.42
16.7912,488.21,500.54
16.8119,488.17,508.63
16.832,488.33,514.31
16.8532,487.67,521.24
16.873,486.33,527
16.8929,486.07,530.2
16.9132,485.25,536.56
16.9332,485.8,541.05
16.9532,486.04,543.84
16.9731,488.63,546.07
16.9932,487.91,547.86
17.0132,487.53,549.28
17.0332,487.82,549.23
17.0531,486.46,549.38
17.073,486.57,551.11
17.0929,486.45,551.68
17.113,485.36,553.75
17.1332,483.69,555
17.1531,484.35,557.2
17.1733,484.08,557.56
17.1932,484.46,559.25
17.2131,485.37,558.8
17.2333,485.7,558.44
17.2529,485.76,559.15
17.2731,485.01,560.52
17.293,485.01,561.82
17.3132,485.2,562.25
17.333,485.36,562.8
17.354,485.49,561.84
17.3742,484.79,562.67
17.3943,485.03,562.54
17.4139,485.43,563.63
17.4342,484.94,562.3
17.4542,485.35,561.24
17.474,485.88,559.8
17.4942,485.71,560.24
17.514,485.36,560.39
17.5342,485.29,559.71
17.5542,485.43,561.17
17.574,484.95,561.14
17.594,485.16,559.91
17.614,484.93,557.73
17.6341,484.34,557.58
17.6543,484.07,557.46
17.6742,483.86,557.77
17.6941,484.49,558.02
17.714,484.19,559.01
17.7342,483.55,560.21
17.7541,483.44,559.57
17.7742,483.95,559.86
17.7941,483.56,560.08
17.814,482.65,559.47
17.834,483.32,560.37
17.8545,483.26,561.9
17.874,484,560.72
17.894,483.6,560.38
17.9142,483.48,561.5
17.9342,483.79,562.2
17.9541,483.43,562.56
17.974,483.34,560.65
17.994,484.27,564.12
18.014,482.62,576.69
18.0343,473.5,611.16
18.0541,463.4,641.32
18.074,456.12,668.06
18.0941,450.09,695.85
18.1142,445.28,728.08
18.1341,443.42,766.86
18.1542,444.94,776.89
18.1741,448.55,773.31
18.194,452.84,757.45
18.214,459.47,734.36
18.2342,466.98,710.29
18.254,473.58,686.43
18.2741,478.47,662.34
18.2942,482.17,646.08
18.3142,485.34,629.06
18.3342,487.07,611.65
18.3541,487.46,609.92
18.3742,488.36,605.73
18.394,488.49,593.79
18.4142,488.39,582.03
18.434,487.11,579.02
18.4541,487.69,577.22
18.4741,487.55,578.78
18.4941,487.64,580.02
18.514,487.31,577.42
18.534,486.65,575.33
18.5541,488.12,572.87
18.574,493.7,577.89
18.5941,497.56,593.31
18.614,502.25,580.65
18.634,508,542.12
18.6543,510.8,491.1
18.674,509.04,446.08
18.694,503.83,408.66
18.7142,500.26,379.13
18.734,497.21,367.7
18.7542,493.97,366.56
18.7742,492.98,375.25
18.7942,490.58,386.2
18.814,489.46,403.36
18.834,489.37,420.69
18.854,487.9,438.55
18.874,485.92,454.64
18.894,484.93,468.51
18.914,484.15,481.21
18.9342,482.32,491.57
18.954,483.05,499.45
18.974,482.84,509.16
18.9941,482.67,515.93
19.0143,482.74,521.14
19.0342,482.39,524.72
19.0543,482.71,525.37
19.0741,482.37,528.5
19.0941,483.7,531
19.114,483.96,534.4
19.1341,483.77,537.72
19.1542,484.21,541.98
19.1742,484.77,545.38
19.1941,485.62,546.9
19.2142,485.69,548.92
19.2345,485.75,552.54
19.2545,485,553.63
19.274,485.4,554.3
19.2942,486.12,555.84
19.3141,485.7,556.28
19.334,485.16,557.42
19.3542,485.93,559.14
19.3741,485.74,559.71
19.3941,485.39,560.17
19.4142,484.11,558.93
19.4343,483.09,558.75
19.4544,483.07,559.8
19.4743,483.46,560.44
19.4943,483.77,560.75
19.5139,483.61,560
19.5346,483.29,560.2
19.554,483.43,560.56
19.574,483.15,561.45
19.5939,483.52,561.76
19.614,483.41,563.61
19.6341,482.93,564.29
19.6541,483.54,564.03
19.6739,483.64,564.42
19.6942,483.91,563.34
19.7143,484.33,563.47
19.7342,484.86,563.98
19.7542,484.89,563.58
19.7742,484.91,562.66
19.7943,484.93,562.53
19.8141,485.94,561.23
19.8339,486.15,561.38
19.854,486.92,560.9
19.874,486.74,560.92
19.8942,484.99,559.34
19.914,484.99,559.67
19.934,484.39,560.34
19.9542,484.52,560.67
19.9742,484.81,560.94
19.9942,484.85,561.15
20.0144,485.08,561.92
20.034,485.26,563.14
20.0544,483.81,562.71
20.074,483.25,561.97
20.0949,482.2,561.37
20.115,482.16,562.9
20.1353,482.53,562.12
20.1549,485.02,558.9
20.1751,487.02,557.12
20.1949,487.41,553.89
20.215,488.93,546.31
20.2351,489.95,546.45
20.2552,487.76,562.36
20.2749,482,585.69
20.295,475,628.35
20.3153,468.8,672.48
20.335,464.64,721.38
20.3552,462.51,763.11
20.3749,462.21,779.69
20.3949,461.57,773.95
20.415,463.86,757.16
20.4351,465.68,730.93
20.4553,469.35,705.94
20.4749,472.88,681.75
20.4952,474.9,657.6
20.5154,476.92,638.68
20.5351,480.34,625.55
20.5549,482.87,613.64
20.5751,484.7,606.51
20.595,486.16,595.41
20.6149,487.13,589.53
20.6351,486.9,583.22
20.6549,486.92,580.78
20.6751,486.14,573.22
20.695,485.91,564.58
20.715,485.73,562.46
20.7349,484.98,563.17
20.7552,484.59,574.14
20.775,484.07,596.51
20.7949,480.45,611.41
20.8149,482.16,591.93
20.8351,487.13,546.54
20.8549,492.5,496.83
20.8752,497.4,455.47
20.895,502.12,415.17
20.9149,503.7,382.74
20.9349,503.96,362.39
20.9552,503.57,354.51
20.975,503.05,356.61
20.995,501.84,367.49
21.0152,500.07,380.19
21.0352,498.66,396.55
21.0553,496.93,413.04
21.0754,494.74,431.23
21.0952,494.59,446.59
21.1149,493.27,463.67
21.135,491.62,477.94
21.155,490.5,489.15
21.1749,489.4,497.72
21.195,488.72,504.97
21.2153,487.97,513.18
21.2351,487.38,519.74
21.255,486.7,525.6
21.275,484.76,530.68
21.2949,484.01,535.94
21.3149,484.21,539.75
21.3356,483.97,540.8
21.355,484.17,543.04
21.3751,483.74,545.83
21.395,483.19,549.07
21.4151,483.35,550.25
21.4351,483.08,552.8
21.4554,482.07,553.04
21.475,481.25,555.03
21.4949,480.6,555.63
21.5152,481.08,555.3
21.535,481.47,556.64
21.555,480.97,556.51
21.5752,481.38,556.81
21.595,480.7,556.25
21.6149,480.96,557.6
21.6351,481.17,558.28
21.6551,481.94,556.82
21.6753,481.95,555.86
21.6951,481.36,555.69
21.7152,481.69,555.95
21.735,481.75,556.56
21.7549,482.6,557.45
21.775,483.28,558.76
21.795,484.02,559.41
21.8149,484.42,558.53
21.835,483.94,557.82
21.8553,483.75,557.46
21.875,484,556.76
21.8951,484.2,556.21
21.9149,484.56,555.77
21.9349,485.05,556.42
21.9549,485.24,556.93
21.9751,485.19,557.15
21.9952,483.95,556.72
22.0149,483.36,556.97
22.0349,482.49,557.78
22.055,483.19,557.82
22.075,483.75,559.06
22.0952,483.4,558.05
22.115,483.32,557.44
22.135,482.86,558.55
22.1551,482.49,559.64
22.175,481.79,559.31
22.1949,482.83,558.85
22.2149,483.66,560.08
22.235,483.53,558.26
22.2551,483.83,557.21
22.2749,485.06,557.37
22.2949,484.45,557.49
22.315,484.16,557.8
22.3351,484.33,557.44
22.3549,484.06,557.75
22.375,482.85,557.6
22.3949,483.08,559.08
22.4149,483.66,560.26
22.435,484.13,560.81
22.4551,485.1,559.65
22.4749,486.08,559.92
22.4957,486.87,557.34
22.515,487.49,557.27
22.5349,486.39,556.61
22.5551,484.32,559.89
22.5753,478.25,576.91
22.595,465.6,601.73
22.6151,452.08,625.78
22.635,445.27,646.43
22.655,444.41,664.74
22.675,449.73,676.39
22.695,457.78,683.11
22.715,464.43,680.49
22.735,469.74,673.59
22.756,473.59,667.27
22.776,477.27,660.82
22.796,479.82,648.26
22.8159,481.86,634.8
22.836,482.28,625.44
22.8559,483.03,616.36
22.8762,483.22,608.48
22.896,483.78,596.19
22.9159,484.62,587.95
22.9361,485.5,587.16
22.9559,485.4,580.53
22.9762,485.12,574.22
22.9961,484.49,565.18
23.0159,484.6,562.34
23.036,484.28,560.07
23.0559,483.02,560.46
23.0762,481.82,567.37
23.096,484.25,585.89
23.116,486.4,607.92
23.136,489.52,598.93
23.156,497.02,555.35
23.176,502.81,498.08
23.1959,506.45,448.06
23.216,506.76,413.85
23.237,504.81,392.28
23.257,502.45,382.62
23.2771,499.96,382.3
23.297,497.37,388.44
23.3169,495.09,398.95
23.337,493.27,411.76
23.3569,492.02,425.21
23.3772,490.82,439.97
23.3971,489.85,453.97
23.4171,488.28,468.38
23.4369,487.23,482.9
23.457,485.58,495.72
23.477,484.06,504.78
23.4971,482.85,512.22
23.517,483.28,514.78
23.5369,483.42,518.62
23.557,482.54,524.3
23.577,482.23,527.64
23.5971,482.39,529.91
23.6172,482.71,533.93
23.6372,483.17,537.94
23.657,482.33,540.95
23.677,482.47,541.76
23.6972,483.37,544.21
23.7171,482.9,545.57
23.7369,483.72,545.45
23.7569,483.58,546.36
23.777,484.26,546.89
23.7971,484.61,546.71
23.8169,483.49,546.37
23.8369,483.59,546.1
23.857,483.87,547.08
23.877,484.9,548.46
23.8969,483.72,548.37
23.9169,484.17,547.7
23.937,485.34,545.56
23.957,485.07,544.05
23.9771,483.66,545.44
23.9972,483.33,545.35
24.0169,483.26,546.08
24.0369,483.21,547.66
24.0571,483.77,548.53
24.077,482.81,546.82
24.0969,482.45,548.26
24.1169,482.36,547.01
24.137,482.89,546.81
24.157,483.51,546.84
24.177,483.41,547.48
24.198,483.33,546.58
24.2179,483.26,544.06
24.2379,482.41,543.85
24.258,482.33,543.08
24.278,481.46,542.27
24.2981,480.97,543.81
24.3179,481.38,543.45
24.3379,482.3,542.76
24.3579,482.84,539.21
24.3779,483.47,539.37
24.3979,483.98,538.69
24.418,483.38,537.35
24.438,484.51,536.48
24.4579,484.4,535.99
24.4779,483.92,534.59
24.4979,483.74,535.47
24.518,483.39,535.98
24.5379,483.11,537.38
24.5579,482.09,537.11
24.5779,483.27,537.28
24.5979,484.22,536.63
24.6179,483.17,536.7
24.6379,482.94,536.16
24.6579,482.55,535.53
24.6779,481.24,544.82
24.6979,477.19,567.66
24.718,471.15,599.73
24.7379,465.52,635.58
24.7579,461.22,669.47
24.778,459.18,691.77
24.7979,458.94,701.42
24.8179,460.55,697.33
24.838,463.04,695.27
24.8579,465.83,692.61
24.878,467.67,682.29
24.898,469.93,672.43
24.9179,473.55,657.15
24.938,476.84,646.32
24.9579,478.07,634.05
24.9781,479.06,620.24
24.998,478.44,609.39
25.0181,479.16,592.72
25.0379,478.52,583.57
25.0579,478.62,573.26
25.0779,479.9,564.81
25.0979,479.72,563.05
25.1179,479.37,564.04
25.138,480.9,584.23
25.1579,484.32,604.58
25.1779,486.46,598.47
25.1979,492.36,570.57
25.218,499.29,548.06
25.2388,502.63,527.65
25.2589,500.11,497.92
25.2789,497.09,454.33
25.2989,495.47,414.07
25.319,494.57,383.65
25.3389,492.66,368.12
25.3589,491.53,362.7
25.379,490.62,364.16
25.3989,489.7,372.13
25.419,489.76,382.7
25.4389,489.01,395.56
25.4589,488.41,409.65
25.479,488.32,420.72
25.4989,487.06,431.58
25.519,487.85,440.06
25.539,487.68,451.45
25.5599,487.54,458.96
25.58,487.23,464.37
25.5999,487.79,471.69
25.6201,488.43,480.35
25.641,488.34,485.48
25.6609,487.28,491.19
25.681,487.22,495.15
25.701,486.38,500.32
25.7209,485.3,503.26
25.741,484.64,506.4
25.761,484.31,507.92
25.782,483.05,511.74
25.8019,481.84,512.59
25.8219,481.27,516.67
25.842,481.42,517.74
25.8619,480.73,518.39
25.8819,480.39,519.31
25.9021,480.71,519.25
25.9222,481.97,519.6
25.942,481.77,521.88
25.9618,481.22,522.5
25.9819,482.18,523.2
26.002,482.54,526.36
26.0219,481.63,527.49
26.042,482.51,528.79
26.0619,481.8,529.43
26.0818,481.64,531.15
26.1019,482.12,530.32
26.122,482.09,530.05
26.1419,482.27,531.84
26.1618,481.62,531.47
26.182,482.3,533.58
26.2021,481.64,532.06
26.222,482.31,534.25
26.2419,482.45,533.8
26.2619,481.76,534.44
26.2819,482.41,532.95
26.302,482.92,531.76
26.322,482.94,532.41
26.342,482.75,531.13
26.3619,482,530.9
26.382,482.2,530.72
26.4019,482.16,529.78
26.422,481.93,528.42
26.4419,482.14,527.14
26.4622,480.71,526.71
26.4819,480.77,527.37
26.5019,480.02,528.49
26.5219,480.81,528.6
26.542,480.85,529.68
26.5619,480.68,529.34
26.5819,480.34,527.47
26.602,480.48,528.98
26.622,480.78,529.18
26.6419,480.42,530.35
26.662,480.14,533.68
26.6819,480.51,533.14
26.7019,482.21,531.71
26.7218,483.57,537.97
26.7419,481.65,572.18
26.7619,479.32,617.54
26.7819,473.86,669.83
26.802,468.89,717.07
26.822,464.91,750.05
26.8419,460.93,754.04
26.8619,459.74,743.23
26.8818,460.79,722.39
26.9019,462.43,692.71
26.9219,464.55,666.77
26.942,466.84,642.01
26.9619,468.67,619.61
26.9819,470.74,603.49
27.002,471.59,590.19
27.0221,473.67,580.55
27.042,475.54,573.64
27.0619,476.83,566.51
27.0819,478.86,551.61
27.1019,480.49,548.09
27.1219,482.39,539.07
27.1419,482.91,534.06
27.1618,483.13,532.65
27.1819,483.91,531.12
27.2019,485.12,533.09
27.222,484.9,531.87
27.2419,483.72,539.5
27.2619,485.78,562.6
27.2819,489.42,583.68
27.302,496.94,572.94
27.3219,507.75,531.76
27.3422,518.6,495
27.3623,520.28,472.2
27.3821,515.62,447.96
27.4019,507.9,416.17
27.4222,500.32,389.74
27.442,495.66,372.99
27.4619,491.52,363.19
27.4819,489.42,361.55
27.502,486.94,365.04
27.5222,485.95,376.43
27.5418,484.96,389.55
27.5619,484.17,405.84
27.582,484.53,424.07
27.6022,484.03,438.86
27.6222,482.62,451.28
27.6419,483.9,460.23
27.6619,484.32,469.38
27.6819,483.05,476.11
27.702,482.84,483.88
27.722,484.47,492.51
27.7423,485.18,499.01
27.7618,485.74,502.6
27.7819,485.8,508.28
27.802,485.24,512.43
27.822,484.79,513.94
27.8419,484.03,518.55
27.8619,484.02,518.64
27.882,483.42,520.31
27.9019,483.94,521.65
27.9219,483.55,523.72
27.9419,484.44,524.78
27.9622,483.95,527.42
27.9819,483.96,527.94
28.0019,483.57,527.75
28.0226,483.66,529.6
28.0419,483.92,528.68
28.0619,484.54,528.94
28.0819,484.03,529.16
28.1022,484.63,529.72
28.1218,483.3,528.78
28.1422,483.44,528.42
28.1619,483.35,529.34
28.1819,483.28,531.07
28.2019,484.03,529.86
28.2219,482.62,529.89
28.2419,483.9,530.11
28.262,483.92,529.29
28.2829,484.73,530.23
28.3032,482.79,529.38
28.3229,482.83,530.31
28.343,482.06,532.05
28.363,482.05,531.84
28.383,482.24,531.27
28.4032,481.59,531.22
28.4229,481.87,531.57
28.4429,481.9,530.66
28.4629,482.92,531.93
28.4829,482.14,533.34
28.5029,482.51,532.67
28.5231,482.41,531.14
28.5429,482.73,532.11
28.5629,482.58,534.09
28.5829,483.06,534.07
28.6028,483.05,535.06
28.623,482.64,535.05
28.6431,483.51,533.84
28.6628,483.81,533.27
28.6829,483.85,534.02
28.7028,484.48,534.61
28.723,483.18,535.09
28.7429,483.75,535.07
28.7632,479.6,550.06
28.7828,469.88,576.05
28.8029,456.7,609.44
28.8231,443.96,639.15
28.8429,435.77,667.52
28.8629,432.22,692.02
28.8828,433.97,706.41
28.9031,437.98,702.53
28.9229,446.98,688.82
28.943,456.59,675.66
28.9632,463.87,658.33
28.9831,471.09,641.06
29.0031,475.48,626.65
29.0232,478.58,612.12
29.043,481.06,602.1
29.0629,482.85,593.28
29.0829,484.08,577.62
29.1032,484.47,571.5
29.1229,484.77,560.4
29.1429,486.62,552.92
29.1628,486.09,549.13
29.183,485.88,547.31
29.2029,485.1,544.45
29.2228,484.88,542.76
29.243,484.7,541.81
29.2633,485.16,535.44
29.2828,485.53,534.76
29.3029,485.22,529.2
29.3229,484.98,530.16
29.3429,483.78,532.73
29.363,486.43,545.18
29.3829,492.94,556.95
29.4031,499.75,557.16
29.4232,508,529.13
29.443,514.6,482.7
29.4629,518.48,435.36
29.483,516.59,394.69
29.5029,512.67,366.35
29.523,508.13,354.88
29.5431,503.91,352.5
29.563,500.33,357
29.5831,498.26,369.8
29.6029,497.01,385.04
29.6234,495.81,402.03
29.6428,493.05,418.83
29.663,490.84,434.06
29.6829,489.27,450.85
29.7028,488.22,462.08
29.7229,487.77,472.26
29.743,487.62,480.41
29.7629,487.49,489.73
29.7829,486.8,496.78
29.803,486.04,501.83
29.823,484.63,508.26
29.8429,484.3,513.01
29.863,482.84,516.41
29.883,483.47,518.93
29.9028,484.58,520.34
29.923,484.46,524.07
29.943,485.37,525.66
29.9633,485.7,527.53
29.9829,486.36,529.62
30.0033,484.49,531.5
30.0229,483.99,529.8
30.0431,483.59,531.04
30.063,481.87,534.23
30.0829,482.9,534.78
30.1028,483.32,535.23
30.1231,483.45,535.78
30.1431,484.16,535.43
30.1632,484.33,534.14
30.1829,484.26,534.71
30.2029,484.61,534.77
30.2229,484.89,534.02
30.2429,485.11,534.21
30.2629,483.69,538.37
30.2829,482.35,537.9
30.3031,481.68,536.52
30.3229,481.94,536.61
30.3429,482.56,536.89
30.3628,483.64,536.31
30.3829,483.32,537.05
30.404,483.45,536.64
30.4239,483.16,536.51
30.4439,483.13,536.21
30.4641,482.9,537.17
30.4841,483.32,537.13
30.504,482.06,536.51
30.5241,481.85,535.01
30.5441,480.88,534.2
30.5642,480.3,535.16
30.5845,480.04,536.33
30.604,479.83,536.86
30.6239,480.07,537.29
30.6441,480.85,536.43
30.664,481.88,536.75
30.684,481.71,537.8
30.7039,481.76,538.24
30.724,480.41,536.99
30.744,479.73,538.19
30.764,480.18,538.15
30.784,479.15,537.32
30.8039,480.32,538.46
30.8239,481.25,537.97
30.8439,482.8,536.77
30.864,483.04,535.22
30.8841,482.63,535.97
30.9039,483.11,535.78
30.924,482.09,535.22
30.944,481.27,534.38
30.9642,480.81,534.1
30.984,481.05,535.48
31.0041,481.64,535.19
31.0242,481.71,534.35
31.0442,482.17,534.88
31.0642,481.34,535.5
31.084,481.67,535.6
31.1041,480.34,535.28
31.1239,480.07,535.63
31.1442,481.05,534.5
31.164,481.44,536.2
31.1841,482.95,539.36
31.204,481.16,554.29
31.2239,475.93,578.03
31.2439,470.74,611.82
31.2639,468,638.26
31.284,463,653.61
31.3039,460.8,668.89
31.3239,459.24,678.31
31.344,458.59,675.25
31.3639,458.67,673.6
31.3839,458.34,669.88
31.4039,458.27,661.3
31.4239,459.22,647.04
31.4442,459.97,642.83
31.4642,462.58,632.47
31.4841,463.06,622.77
31.5042,465.05,611.22
31.5239,466.64,603.38
31.5439,469.11,596.7
31.5642,470.29,589.96
31.584,471.83,582.57
31.6039,472.27,579.25
31.6241,474.01,575
31.6443,475.61,573.8
31.6642,478.09,562.44
31.6839,478.07,559.75
31.7039,479.06,554.8
31.7241,480.44,557.24
31.7444,484.16,564.79
31.7644,486.32,585.44
31.7841,493.26,582.15
31.8041,500.41,547.72
31.8239,508.13,496.77
31.8441,512.9,448.42
31.8642,513.12,406.94
31.8843,510.1,378.55
31.9042,508.48,359.44
31.9242,504.98,354.35
31.9445,501.39,359.08
31.9642,498.31,368.06
31.9842,495.25,382.65
32.0039,493.2,397.72
32.0239,492.36,413.18
32.0444,490.29,427.94
32.0641,490.03,437.95
32.084,488.62,452.36
32.1042,486.7,465.89
32.1242,487.16,476.31
32.1443,487.13,484.25
32.1643,486.3,492.6
32.1842,487.04,498.48
32.2039,487.43,506.18
32.2239,487.95,510.15
32.2444,487.76,514.72
32.2642,487.41,518.77
32.284,486.32,521.42
32.3039,485.66,523.74
32.3239,485.13,526.59
32.3442,485.7,528.67
32.3642,485.56,528.14
32.384,485.05,528.91
32.4041,484.84,529.53
32.4239,484.47,530.22
32.4443,484.18,529.98
32.464,484.54,531.38
32.484,483.83,532.91
32.5038,483.87,533.52
32.524,482.89,532.82
32.5441,483.71,531.46
32.5642,483.17,531.96
32.5841,482.94,531.77
32.6043,482.95,531.22
32.6244,483.36,529.97
32.6442,483.49,530.78
32.6642,482.99,531.62
32.6843,482.59,533.7
32.7042,482.27,531.76
32.7241,483.02,532.01
32.7441,483.62,533.01
32.7643,483.09,533.4
32.7843,482.27,531.52
32.8038,482.02,532.62
32.8239,482.02,534.7
32.8443,481.81,533.16
32.8639,482.45,533.52
32.8841,482.96,535.02
32.9042,483.37,534.62
32.9243,483.49,531.89
32.944,484,532.71
32.964,483.4,531.37
32.984,482.52,532.5
33.0038,482.61,531.2
33.024,484.49,531.36
33.0442,484.99,531.49
33.064,485.99,533.39
33.084,487.2,533.51
33.1038,487.36,533.61
33.1239,486.09,532.69
33.1442,485.27,532.15
33.1639,484.81,533.32
33.1841,484.85,533.26
33.2039,484.08,536.6
33.2242,483.07,535.68
33.2438,482.85,535.75
33.264,481.68,535.6
33.284,480.95,534.68
33.3039,481.16,534.54
33.3238,480.52,535.23
33.3438,481.22,533.59
33.3639,481.18,535.87
33.3842,480.74,537.1
33.4041,481.79,536.68
33.4242,482.23,532.14
33.4438,481.39,536.91
33.4639,477.71,547.73
33.4839,471.37,586.98
33.5039,464.69,622.79
33.524,457.76,666.23
33.544,454.6,703.78
33.5641,449.88,746.03
33.584,447.71,755.82
33.6039,447.37,746.86
33.6239,450.89,725.09
33.644,456.31,699.67
33.6639,460.85,675.73
33.6841,465.68,652.99
33.7038,470.34,629.59
33.7238,473.48,618.47
33.7438,475.78,600.18
33.7639,478.22,582.94
33.7838,479.58,576.15
33.8038,480.26,568.72
33.8239,480.41,562.78
33.8439,482.13,561.02
33.864,482.7,557.42
33.8839,482.36,552.53
33.9039,482.09,549.43
33.9239,482.07,548.74
33.944,482.06,548.39
33.964,482.65,548.71
33.9842,485.12,557.17
34.0042,485.29,574.74
34.0239,486.83,584.99
34.0443,492.07,568.79
34.0639,498.05,530.03
34.084,502.84,485.43
34.104,504.47,438.74
34.124,504.18,399.39
34.1438,504.14,368.71
34.1639,501.92,351.17
34.184,499.73,346.74
34.2039,497.99,349.59
34.2238,497.19,358.47
34.244,495.35,373.38
34.2639,493.08,383.5
34.2841,491.26,400.2
34.3038,489.41,416.36
34.324,487.93,431.29
34.3439,486.94,443.03
34.3642,486.75,455.42
34.3841,486,466.54
34.404,485.6,474.63
34.4239,485.08,483.31
34.4438,484.27,490.04
34.4641,484.01,495.84
34.4838,483.61,500.67
34.5042,483.29,505.33
34.524,483.03,508.87
34.544,483.22,512.49
34.5642,483.98,516
34.5842,485.38,519.8
34.6041,486.71,524.04
34.6242,488.77,524.23
34.644,488.81,527.38
34.6641,488.45,528.71
34.6842,487.56,528.37
34.7042,487.25,529.09
34.7242,486,528.67
34.744,485.6,532.14
34.7643,485.28,531.11
34.7841,484.02,531.09
34.8038,482.82,531.47
34.8239,480.65,530.98
34.8441,479.12,529.98
34.8642,477.9,531.99
34.884,476.92,533.19
34.9039,477.14,534.15
34.925,478.91,534.12
34.9449,479.93,535.1
34.9652,480.54,534.68
34.985,479.83,534.74
35.0052,479.27,535.39
35.025,479.01,536.11
35.045,479.81,535.89
35.0652,481.45,532.31
35.0849,481.76,532.45
35.1052,483.61,529.56
35.1253,483.89,530.25
35.1448,484.71,531.2
35.1652,484.97,529.36
35.1851,484.57,529.49
35.2053,484.46,530.79
35.2253,485.37,531.23
35.2449,484.69,529.39
35.265,483.15,529.71
35.285,482.32,529.57
35.3052,481.46,529.85
35.3248,481.57,531.08
35.345,481.65,532.67
35.3652,482.32,533.13
35.3851,483.06,535.31
35.4048,483.25,536.85
35.4248,483.6,537.68
35.4449,484.08,537.54
35.4648,483.86,538.63
35.4849,484.29,538.11
35.5049,483.83,537.28
35.5248,484.27,536.63
35.5449,485.41,535.3
35.5649,484.93,535.84
35.5849,484.34,532.87
35.6048,486.48,528.9
35.6249,482.98,535.32
35.645,473.98,569.86
35.665,466.59,601.88
35.6848,458.47,632.51
35.7052,455.18,656.61
35.7249,457.14,664.68
35.7449,460.11,672.15
35.7648,463.89,675.12
35.7849,469.11,678.09
35.8048,473.69,670.68
35.8252,477.15,662.54
35.8451,478.92,652.43
35.865,481.34,639.95
35.885,482.47,631.76
35.9051,482.78,628.21
35.9251,483.62,619.76
35.945,484.7,605.01
35.9649,485.56,595.81
35.985,485.65,586.25
36.0052,484.92,580.6
36.025,485.73,577.48
36.0452,485.79,567.38
36.065,485.63,561.51
36.0848,484.9,555.6
36.1048,484.52,552.68
36.125,484.62,551.55
36.1449,484.69,546.24
36.1651,484.36,548.59
36.1851,483.08,556.67
36.2052,484.67,577.94
36.225,485.73,587.75
36.2449,490.39,562.8
36.2651,496.11,513.84
36.285,501.89,464.87
36.3052,502.71,423.3
36.325,500.37,386.24
36.3448,497.69,358.19
36.365,495.36,341.95
36.3849,493.28,337.76
36.4048,490.43,344.41
36.4249,488.14,353.73
36.4448,487.51,368.78
36.4648,487.01,383.43
36.4848,485.21,400.14
36.5048,484.57,417.11
36.5252,484.25,431.89
36.5452,484.2,447.71
36.5649,483.76,458.57
36.585,483.61,469.46
36.6052,483.89,478.96
36.625,484.31,489.57
36.6451,485.45,496.06
36.6652,486.76,504.45
36.6849,486.81,510.36
36.7048,487.65,514.09
36.7248,488.12,518.87
36.7449,487.69,522.69
36.7649,486.55,525.16
36.7851,486.64,528.32
36.8052,486.71,528.86
36.8249,486.37,529.89
36.8448,486.5,529.91
36.8649,486,530.33
36.8852,485.4,531.86
36.905,484.72,532.49
36.9248,484.37,531.19
36.945,483.1,531.15
36.9653,483.88,531.32
36.985,483.7,532.66
37.0051,484.16,533.33
37.0248,484.53,533.06
37.045,485.02,531.85
37.065,485.42,532.08
37.0852,485.54,532.26
37.1048,485.03,532.41
37.1249,484.42,532.73
37.1448,484.14,532.18
37.1648,484.31,530.75
37.1849,485.85,532.4
37.205,485.08,533.92
37.2248,486.26,534.13
37.2448,485.81,534.91
37.2649,485.25,536.13
37.2848,485,538.3
37.3048,485,538.84
37.3248,484.6,538.87
37.3448,484.88,538.1
37.365,484.7,538.28
37.3851,484.16,537.42
37.405,485.13,537.34
37.4248,484.7,539.27
37.4448,484.36,541.22
37.4649,486.09,540.97
37.485,486.27,541.38
37.5049,485.22,543.1
37.5252,485.17,541.48
37.5448,484.14,539.59
37.5654,483.51,538.07
37.585,483.01,534.65
37.6048,483.81,534.12
37.6253,483.25,534.9
37.6448,482.2,534.72
37.6648,482.16,534.58
37.6848,482.73,535.26
37.7048,482.98,535.61
37.7249,482.38,535.69
37.7449,482.51,536.75
37.7648,482.41,536.2
37.7848,482.92,536.36
37.8048,483.74,538.29
37.825,483.39,538.83
37.8449,483.31,542.86
37.8648,479.05,568.89
37.8849,473.24,595.51
37.9049,466.99,630.21
37.9248,461.19,665.17
37.9448,460.76,677.53
37.965,459.8,686.83
37.985,461.44,682.46
38.0048,464.75,683.37
38.0249,466.6,680.7
38.0449,468.48,685.56
38.065,470.19,685.65
38.0848,470.95,675.32
38.105,473.16,662.85
38.125,474.33,640.48
38.1448,474.86,623.99
38.1648,476.49,600.19
38.1848,478.99,591.35
38.2049,480.19,585.48
38.2249,481.55,570.38
38.2449,482.44,564.31
38.2648,482.35,561.65
38.285,482.28,557.12
38.3051,482.03,557.09
38.3251,481.42,554.67
38.3449,482.14,549.74
38.3649,483.11,550.19
38.385,482.89,551.35
38.405,484.31,555.48
38.4249,485.65,574.99
38.4449,484.12,596.39
38.4649,480.89,591.71
38.4849,481.32,558.57
38.5051,484.85,510.46
38.5248,491.08,458.96
38.5449,494.47,409.77
38.565,496.77,363.62
38.5849,499.42,333.89
38.6048,501.33,322.51
38.6248,501.47,323.21
38.645,501.17,329.77
38.6648,501.14,341.42
38.685,499.91,356.33
38.705,498.33,373.67
38.7248,498.26,391.13
38.745,497.21,410.11
38.7652,495.97,426.08
38.7849,494.17,438.87
38.8049,492.34,451.09
38.8248,490.27,463.48
38.8449,489.42,471.58
38.8649,488.93,480.86
38.8848,489.15,486.29
38.9049,487.92,492.63
38.9259,488.13,500.11
38.9458,488.11,505.29
38.9659,487.89,508.03
38.9859,487.71,512.42
39.0059,487.37,517.54
39.0257,487.49,520.83
39.0459,487.19,524.26
39.0659,487.36,526.81
39.0859,486.88,527.65
39.1058,487.51,530.12
39.1259,488.01,532.3
39.1459,488.6,532.84
39.1658,488.08,536.07
39.1859,486.87,537.06
39.2057,485.89,537.44
39.2257,483.11,540.16
39.2458,482.29,538.32
39.2659,480.43,538.06
39.2858,478.55,537.45
39.3057,478.24,537.56
39.3258,476.79,540.25
39.3458,475.43,541.4
39.3658,474.95,543.12
39.3859,473.76,544.49
39.4059,472.81,544.8
39.4258,472.24,545.04
39.4459,470.8,544.23
39.4658,471.44,540.78
39.4857,470.15,539.43
39.5058,470.72,536.94
39.5258,469.98,534.15
39.5458,470.18,532.32
39.5658,469.34,528.46
39.5857,467.88,524.77
39.6059,467.3,522.61
39.6259,468.64,522.29
39.6458,469.51,524.03
39.6658,469.81,523.83
39.6858,468.25,523.86
39.7062,468.6,524.09
39.7258,466.88,526.87
39.7458,467.7,526.3
39.7657,468.16,524.64
39.7857,467.93,524.31
39.8058,468.94,525.65
39.8258,469.76,526.72
39.8459,471.4,527.57
39.8657,472.12,528.66
39.8859,473.3,529.13
39.9059,474.44,529.1
39.9257,475.15,532.68
39.9457,476.52,536.15
39.9658,476.02,539.52
39.9869,476.41,539.81
40.0068,477.53,543.65
40.0267,476.22,551.92
40.0473,474.58,564.94
40.0668,474.66,570.75
40.0869,474.73,570.4
40.1068,475.98,570.52
40.1268,477.19,577.02
40.1469,477.35,585.41
40.1668,478.88,576.93
40.1868,482.7,559.74
40.2069,485.56,539.4
40.2267,488.05,520.32
40.2468,490.04,504.65
40.2668,492.43,492.32
40.2868,494.95,484.46
40.3068,495.56,481.37
40.3268,495.05,481.69
40.3468,494.64,485.95
40.3669,493.11,489.36
40.3868,491.49,493.49
40.4068,491.19,496.59
40.4267,491.15,500.67
40.4468,491.32,504.74
40.4667,490.46,508.59
40.4868,490.97,512.27
40.5067,489.97,515.82
40.5267,489.18,520.05
40.5468,488.74,522.84
40.5668,487.99,524.88
40.5868,488.4,526.7
40.6068,488.72,528.16
40.6268,487.17,529.13
40.6478,486.54,531.5
40.6678,486.03,532
40.6878,485.82,534.2
40.7078,485.46,535.56
40.7278,481.57,536.65
40.7478,465.45,534.52
40.7689,446.16,533.62
40.7888,434.93,530.69
40.8087,429.34,528.55
40.8288,426.48,528.64
40.8487,427.98,528.71
40.8688,430.78,529.17
40.8891,436.03,528.94
40.9088,440.62,527.35
40.9288,445.7,528.08
40.9487,450.76,529.86
40.9687,454.21,532.29
40.9888,458.37,533.63
41.0089,461.69,535.11
41.0287,463.95,535.69
41.0488,467.56,536.15
41.069,471.25,536.72
41.0888,472.8,536.57
41.1087,475.44,536.06
41.1288,476.75,536.65
41.1488,478,536.92
41.1688,479,538.73
41.1888,480.6,538.19
41.2088,480.68,537.75
41.2288,481.74,536.8
41.2488,482.2,537.64
41.2689,481.36,536.31
41.2887,482.69,536.45
41.3088,481.95,537.56
41.3288,482.16,538.25
41.3488,482.13,540.8
41.3688,482.7,540.24
41.3889,482.56,539.99
41.4088,482.25,538.99
41.4287,481,538.39
41.4488,482.4,536.92
41.4687,482.12,536.53
41.4888,480.7,535.63
41.5089,480.96,536.5
41.5288,480.97,536
41.5488,480.57,535.6
41.5687,480.86,535.88
41.5889,480.29,539.9
41.6088,485.83,552.12
41.6289,501.26,571.9
41.6487,520.01,596.32
41.6688,538.01,622.46
41.6888,551.81,645.16
41.7087,561.05,660.73
41.7287,562.04,661.79
41.7488,556.83,649.63
41.7688,547.26,625.9
41.7888,534.01,596.52
41.8088,522.21,565.62
41.8288,512.97,535.29
41.8488,504.97,512.04
41.8698,499.58,492.63
41.8897,496.46,476.9
41.9098,494.57,464.92
41.9298,492.66,459.14
41.9497,490.93,457.71
41.9698,489.94,457.97
41.9897,488.55,462.17
42.01,485.84,467.34
42.0298,483.67,474.87
42.0497,482.74,482.5
42.0698,486.19,490.2
42.0909,467.95,494.96
42.1108,433.16,493.17
42.1309,392.13,488.93
42.1508,354.7,484.35
42.1707,328.76,480.08
42.1907,319.61,478.06
42.2108,321.49,477.25
42.2308,327.19,477.4
42.2509,337.15,477.72
42.2718,351.32,481.18
42.2918,366.86,485.74
42.3118,381.69,492.39
42.3318,395.95,497.71
42.3528,407.36,505.57
42.3727,417.69,511.86
42.3929,427.95,515.89
42.4129,435.96,520.91
42.4328,443.77,526.53
42.4527,451.61,529.62
42.4728,457.89,535.5
42.4928,462.91,539
42.5128,467.53,543
42.533,470.82,546.6
42.5528,473.06,548.88
42.5729,476.05,551.5
42.5928,478.24,553
42.6127,479.99,553.4
42.6329,480.99,556.12
42.6527,486.19,557.3
42.6728,490.56,558.04
42.6929,493.84,554.83
42.7127,494.68,553.26
42.7327,492.54,552.61
42.7528,491.83,550.69
42.7727,491.87,547.75
42.7929,490.69,546
42.8129,488.75,543
42.8327,487.2,540.4
42.8528,485.56,539.52
42.8727,483.25,539.82
42.8929,480.8,540.25
42.9128,476.44,546.2
42.9327,468.75,556.36
42.9528,462.6,574.09
