Program Time [s],data 0,data 1
6.43958,433.06,552.13
6.45923,431.01,554.46
6.47974,432.13,557.90
6.50004,432.63,560.51
6.51985,433.62,558.98
6.54014,432.62,564.98
6.56229,434.33,569.69
6.58281,435.33,575.60
6.60149,432.70,576.94
6.62238,436.30,576.91
6.64324,435.37,574.69
6.66388,438.42,576.92
6.68393,441.48,573.86
6.70481,441.49,571.14
6.72485,446.88,569.13
6.74513,447.05,569.88
6.76474,449.61,569.97
6.78567,449.09,570.06
6.80612,448.97,572.71
6.82495,451.07,573.50
6.84493,449.15,572.30
6.86574,447.89,574.87
6.88471,447.91,575.93
6.90556,451.07,576.47
6.92681,450.24,577.23
6.94575,447.36,577.09
6.96673,450.34,577.53
6.98743,445.36,574.35
7.00781,449.04,573.36
7.02877,449.17,575.17
7.05066,446.12,574.15
7.06959,443.61,573.04
7.08996,443.62,572.48
7.11122,444.11,573.45
7.13055,442.28,572.59
7.15014,443.12,573.55
7.17105,441.16,573.42
7.19126,439.72,570.63
7.20954,441.62,570.83
7.23097,440.48,570.23
7.25053,442.97,571.70
7.27004,435.16,572.01
7.29004,420.01,570.10
7.31000,399.65,566.92
7.33091,378.89,565.66
7.35231,355.78,562.22
7.37113,335.00,553.81
7.39135,317.79,542.85
7.41121,307.17,530.24
7.43093,297.58,520.93
7.45137,294.22,510.62
7.47228,293.97,506.03
7.49111,297.41,501.01
7.51076,305.78,496.75
7.53190,311.68,497.56
7.55140,323.44,497.93
7.57170,332.36,498.52
7.59188,340.98,501.72
7.61095,348.56,507.30
7.63134,358.08,511.65
7.65043,367.85,519.58
7.67213,373.94,524.29
7.69064,383.58,531.25
7.71186,388.97,535.97
7.73128,396.63,537.43
7.75064,402.77,542.66
7.77117,404.88,543.07
7.79237,411.77,547.23
7.81136,416.41,549.46
7.83239,415.03,553.93
7.85242,419.73,556.31
7.87078,422.47,556.45
7.89143,424.69,559.10
7.91050,424.04,559.79
7.93131,426.88,562.59
7.95217,428.26,559.67
7.97107,427.87,561.41
7.99105,429.69,564.09
8.01082,432.21,565.05
8.03329,433.33,564.22
8.05370,437.61,568.54
8.07368,447.74,577.39
8.09367,469.05,583.22
8.11468,493.58,593.10
8.13487,520.99,607.97
8.15469,546.63,615.94
8.17361,575.33,622.79
8.19491,593.13,629.63
8.21498,608.36,631.46
8.23444,610.58,631.64
8.25377,602.65,624.17
8.27391,594.69,622.56
8.29415,582.49,615.36
8.31378,571.74,608.32
8.33433,556.41,603.73
8.35362,544.90,600.73
8.37429,527.51,596.35
8.39527,517.17,592.77
8.41532,504.92,590.03
8.43395,497.53,585.44
8.45494,486.45,582.42
8.47563,481.78,580.28
8.49487,472.59,577.64
8.51508,470.38,576.43
8.53496,462.53,574.72
8.55543,459.50,574.17
8.57555,455.21,573.75
8.59620,453.25,572.06
8.61490,450.80,569.87
8.63531,447.70,568.60
8.65539,445.47,569.10
8.67645,443.82,566.15
8.69592,442.91,565.01
8.71515,439.61,567.12
8.73622,440.90,563.92
8.75590,438.39,566.17
8.77616,437.92,566.57
8.79649,439.57,564.50
8.81477,433.27,566.41
8.83592,431.77,566.30
8.85485,428.08,563.80
8.87578,427.02,564.61
8.89599,426.82,562.87
8.91542,426.73,562.46
8.93529,426.69,562.11
8.95499,423.03,562.13
8.97470,422.46,560.07
8.99607,421.81,555.48
9.01523,419.42,555.49
9.03515,423.48,555.93
9.05578,420.36,555.57
9.07545,424.41,556.16
9.09585,422.22,556.98
9.11596,426.81,556.29
9.13628,426.99,554.10
9.15524,430.02,557.27
9.17600,429.97,554.75
9.19525,430.40,558.31
9.21658,429.06,558.47
9.23511,429.84,557.72
9.25548,432.15,562.49
9.27626,431.49,562.34
9.29640,431.91,563.02
9.31619,430.98,564.14
9.33570,433.76,563.58
9.35551,430.85,564.36
9.37457,430.60,564.25
9.39651,430.82,562.11
9.41561,432.43,563.57
9.43622,430.65,565.37
9.45463,432.02,565.30
9.47533,428.17,563.56
9.49541,432.48,565.09
9.51481,430.49,562.82
9.53448,430.51,564.21
9.55477,429.64,566.85
9.57516,431.31,566.49
9.59465,433.24,564.90
9.61475,430.62,567.23
9.63523,432.77,567.89
9.65446,430.44,563.19
9.67551,434.40,564.87
9.69520,432.52,564.26
9.71489,432.49,565.11
9.73576,434.78,566.16
9.75499,432.23,565.45
9.77524,434.43,567.02
9.79619,432.22,564.96
9.81460,432.75,565.15
9.83621,433.95,566.71
9.85527,434.60,567.84
9.87565,433.15,565.66
9.89603,434.79,568.17
9.91626,434.90,569.03
9.93640,436.27,569.20
9.95534,434.97,566.01
9.97547,433.85,566.59
9.99567,432.10,569.42
10.01583,433.01,568.25
10.03586,434.28,566.27
10.05504,430.72,566.61
10.07455,431.70,567.16
10.09489,432.36,565.81
10.11482,434.54,565.25
10.13614,433.97,564.36
10.15637,435.75,564.57
10.17581,435.81,565.19
10.19562,433.77,562.84
10.21495,435.08,565.96
10.23454,435.83,567.11
10.25526,435.01,564.47
10.27455,434.54,565.13
10.29570,433.17,565.75
10.31482,434.79,566.45
10.33490,436.47,565.88
10.35717,436.08,567.38
10.37666,437.61,566.68
10.39644,439.33,566.83
10.41714,439.26,568.35
10.43584,440.21,567.58
10.45671,439.39,566.34
10.47670,441.18,567.31
10.49583,442.46,563.61
10.51591,443.56,566.33
10.53577,439.62,562.62
10.55669,442.34,563.48
10.57553,441.20,566.20
10.59591,439.07,563.53
10.61582,440.40,565.61
10.63716,440.34,564.41
10.65674,438.84,563.95
10.67577,438.33,561.52
10.69695,438.80,563.77
10.71743,440.45,564.48
10.73705,440.84,561.67
10.75563,439.84,561.38
10.77699,439.53,563.31
10.79618,426.37,563.67
10.81571,410.54,561.41
10.83749,387.51,560.41
10.85680,370.27,562.19
10.87720,352.61,562.69
10.89641,335.83,563.07
10.91676,325.36,555.86
10.93660,316.17,551.73
10.95583,315.07,547.41
10.97597,313.84,538.07
10.99599,313.44,530.43
11.01650,315.74,527.15
11.03632,321.60,524.39
11.05730,331.91,520.43
11.07657,338.48,518.58
11.09613,346.05,521.27
11.11669,356.34,519.92
11.13591,364.40,523.94
11.15729,372.07,528.51
11.17672,382.44,528.34
11.19592,388.60,534.24
11.21713,395.68,538.93
11.23652,401.95,539.44
11.25672,409.48,545.23
11.27693,412.39,544.27
11.29642,418.61,547.52
11.31680,421.15,547.54
11.33688,424.49,553.50
11.35652,424.85,554.32
11.37577,428.85,556.67
11.39744,431.25,558.75
11.41566,433.69,560.16
11.43663,438.15,559.07
11.45573,440.70,559.75
11.47754,441.20,558.53
11.49570,441.94,561.50
11.51684,440.99,560.93
11.53681,441.01,563.17
11.55667,441.83,563.91
11.57534,443.82,565.34
11.59722,439.85,562.14
11.61589,441.37,562.43
11.63652,442.53,566.40
11.65729,452.21,573.23
11.67554,468.28,585.17
11.69645,492.12,598.10
11.71722,518.08,607.72
11.73691,545.44,608.03
11.75715,571.43,607.90
11.77673,591.63,606.24
11.79555,603.48,600.69
11.81635,604.56,597.43
11.83643,604.69,592.58
11.85609,593.70,590.27
11.87604,585.45,584.57
11.89717,574.78,582.96
11.91721,562.29,581.16
11.93657,549.52,576.82
11.95718,535.86,575.21
11.97718,528.66,575.75
11.99683,518.37,574.86
12.01624,509.98,574.12
12.03737,501.35,573.34
12.05580,494.73,571.64
12.07604,488.92,570.80
12.09650,483.02,571.95
12.11549,475.66,573.02
12.13574,470.41,572.49
12.15697,470.02,571.12
12.17542,466.87,573.41
12.19588,463.27,572.60
12.21744,461.02,572.59
12.23631,460.49,571.07
12.25713,458.87,572.24
12.27728,454.51,572.31
12.29562,456.10,569.51
12.31634,454.60,568.03
12.33615,454.30,570.81
12.35560,455.87,568.37
12.37692,456.00,569.35
12.39620,454.97,572.38
12.41695,454.45,568.66
12.43706,454.29,570.53
12.45642,454.33,571.12
12.47649,454.55,568.47
12.49623,450.79,568.00
12.51688,450.76,571.80
12.53571,453.46,568.52
12.55565,451.92,570.69
12.57711,453.10,570.54
12.59641,453.40,570.01
12.61669,453.51,568.26
12.63617,451.99,567.23
12.65610,453.37,569.75
12.67585,453.97,569.74
12.69648,451.18,568.58
12.71692,452.10,569.74
12.73652,452.36,570.13
12.75694,449.80,567.02
12.77584,450.05,567.22
12.79685,451.85,568.03
12.81561,449.61,568.96
12.83651,449.81,568.32
12.85642,453.00,571.26
12.87644,451.04,569.14
12.89565,451.85,569.12
12.91623,451.23,571.96
12.93620,450.65,572.73
12.95677,451.32,570.29
12.97624,450.28,571.05
12.99662,450.02,569.13
13.01565,453.02,568.88
13.03530,453.33,570.94
13.05634,450.01,572.48
13.07541,451.66,571.66
13.09610,448.79,572.40
13.11686,451.69,571.67
13.13672,448.84,572.38
13.15732,450.03,570.52
13.17580,446.96,570.35
13.19634,447.97,569.35
13.21715,450.29,571.18
13.23691,450.93,570.51
13.25550,452.09,571.63
13.27590,451.31,568.97
13.29586,449.27,569.97
13.31611,449.68,571.35
13.33549,451.68,569.18
13.35639,452.32,570.84
13.37581,452.59,567.44
13.39679,451.68,567.75
13.41671,451.62,569.25
13.43530,451.87,568.86
13.45561,453.88,569.03
13.47558,454.92,569.40
13.49603,451.64,569.41
13.51562,452.11,568.01
13.53587,451.63,568.30
13.55608,449.84,569.27
13.57634,449.06,567.25
13.59609,448.17,566.71
13.61658,448.37,566.72
13.63574,447.76,566.52
13.65722,451.32,566.43
13.67725,449.32,567.62
13.69611,450.11,566.82
13.71710,447.78,567.65
13.73570,451.58,568.79
13.75663,449.99,565.52
13.77634,449.57,568.27
13.79628,449.97,567.30
13.81738,449.92,566.85
13.83571,450.39,567.68
13.85589,448.37,567.60
13.87558,448.10,570.73
13.89645,448.33,568.36
13.91581,449.39,571.39
13.93552,447.49,570.51
13.95550,447.37,572.31
13.97544,449.29,570.37
13.99681,447.79,573.06
14.01594,448.63,571.63
14.03647,449.23,571.62
14.05681,450.12,572.61
14.07693,448.11,569.26
14.09606,448.09,570.05
14.11681,450.43,572.08
14.13713,447.97,572.58
14.15697,448.43,570.83
14.17843,449.38,573.40
14.19674,450.19,571.27
14.21641,449.46,573.96
14.23847,448.43,571.13
14.25641,449.53,572.08
14.27688,450.87,572.69
14.29788,450.43,569.81
14.31712,449.74,569.72
14.33738,451.80,573.04
14.35767,449.23,571.10
14.37764,451.75,571.38
14.39657,450.23,572.75
14.41733,449.68,570.92
14.43821,451.48,570.37
14.45745,449.41,570.69
14.47802,449.86,571.81
14.49739,450.83,571.07
14.51678,451.69,571.68
14.53739,450.45,572.84
14.55746,450.95,571.58
14.57766,453.19,570.94
14.59761,451.51,573.43
14.61718,451.67,571.25
14.63704,451.02,571.27
14.65769,449.50,570.74
14.67666,448.82,570.14
14.69655,450.14,570.56
14.71830,449.18,568.49
14.73696,449.08,570.95
14.75673,446.06,572.69
14.77715,448.21,569.95
14.79680,447.29,570.91
14.81642,448.68,572.12
14.83728,446.41,570.98
14.85739,449.02,570.34
14.87801,448.30,570.78
14.89706,447.92,569.94
14.91738,451.31,572.07
14.93828,451.52,572.07
14.95654,448.81,570.01
14.97830,450.60,570.41
14.99699,448.32,566.70
15.01756,444.31,571.00
15.03848,429.10,565.44
15.05764,409.78,564.58
15.07679,387.97,559.65
15.09817,364.62,553.57
15.11824,347.71,548.31
15.13822,333.48,540.78
15.15832,320.06,531.49
15.17702,312.75,524.13
15.19660,307.51,518.22
15.21712,305.67,520.08
15.23646,309.34,519.76
15.25740,314.67,522.69
15.27825,322.97,522.87
15.29754,329.20,528.95
15.31647,337.57,531.72
15.33823,348.46,531.39
15.35721,356.62,539.32
15.37748,360.89,539.81
15.39645,372.09,546.09
15.41709,378.02,548.90
15.43720,386.03,549.33
15.45679,393.21,551.12
15.47773,400.03,553.17
15.49796,407.69,558.53
15.51724,414.66,557.57
15.53751,415.51,561.90
15.55724,420.86,564.45
15.57661,424.24,564.41
15.59804,428.60,566.46
15.61659,429.68,567.14
15.63769,433.13,567.67
15.65775,435.20,569.55
15.67945,436.02,569.68
15.69973,436.63,569.39
15.71932,435.06,570.28
15.73824,436.92,570.74
15.76022,437.07,572.91
15.77912,435.08,570.71
15.79946,436.98,570.55
15.81918,438.54,572.23
15.83928,439.31,571.96
15.86016,441.34,574.96
15.87941,447.77,580.04
15.89961,450.24,584.64
15.92026,460.01,590.91
15.93995,474.79,592.89
15.95975,490.90,598.79
15.97842,511.95,603.09
15.99977,537.95,604.43
16.01872,563.85,604.55
16.03868,584.71,600.44
16.05965,602.63,598.32
16.07945,606.95,597.59
16.09992,606.25,595.84
16.12015,596.06,591.24
16.13917,586.71,590.88
16.15847,575.61,588.93
16.17855,561.16,587.31
16.19962,548.66,589.01
16.21831,537.78,588.48
16.23949,526.35,583.32
16.25932,514.01,584.78
16.28017,503.44,583.37
16.29936,496.28,583.25
16.31892,484.97,580.04
16.33915,481.69,579.72
16.36020,471.83,578.53
16.37951,471.71,581.69
16.39876,473.77,585.40
16.41926,472.81,590.62
16.44005,467.26,588.16
16.45856,465.61,587.57
16.47964,462.45,586.65
16.49866,459.59,585.11
16.51980,456.18,582.52
16.54009,455.90,581.56
16.55875,453.61,579.36
16.57916,449.17,580.01
16.60011,446.78,579.55
16.61907,446.13,576.24
16.63862,443.91,574.58
16.65982,443.53,572.64
16.67904,443.11,573.34
16.70029,443.11,573.13
16.71929,442.89,571.08
16.73876,439.05,571.74
16.75904,442.02,573.32
16.77848,439.00,570.86
16.79951,439.79,573.66
16.82013,439.05,570.61
16.83863,441.65,570.45
16.85975,441.62,570.02
16.87929,439.86,571.45
16.89897,439.55,571.32
16.91908,440.56,572.71
16.93855,439.56,570.97
16.95938,438.77,570.53
16.97906,442.75,573.41
16.99875,437.55,572.73
17.01838,437.24,571.00
17.03970,438.67,573.46
17.06004,438.23,570.54
17.08008,438.69,573.40
17.09859,437.69,570.82
17.12073,434.74,572.69
17.14038,435.16,573.40
17.15983,437.91,574.40
17.18033,435.60,572.70
17.19960,435.85,572.20
17.21956,435.17,572.79
17.24070,434.62,574.06
17.25956,434.75,570.83
17.28077,435.28,572.54
17.29952,432.02,572.86
17.32080,433.01,570.45
17.34016,435.89,571.01
17.35965,434.36,570.27
17.37942,435.61,570.08
17.40089,434.52,570.96
17.42010,432.26,570.48
17.44088,431.71,569.82
17.46123,433.97,569.29
17.48085,431.23,569.37
17.50091,432.83,570.49
17.52014,430.45,573.27
17.53981,430.69,570.67
17.56006,432.85,573.52
17.58131,433.32,569.17
17.60045,433.45,572.48
17.62015,435.56,570.16
17.64027,434.03,573.68
17.65912,432.31,570.58
17.67956,432.76,572.55
17.70050,433.07,571.51
17.71996,430.14,572.63
17.73951,431.04,574.60
17.76073,432.54,573.33
17.77947,429.12,572.05
17.80047,431.46,573.27
17.82020,431.01,570.75
17.83987,428.74,570.68
17.86105,432.51,573.13
17.87983,431.83,573.89
17.89952,432.77,570.71
17.91967,430.47,568.67
17.93963,428.70,571.69
17.95978,430.21,571.79
17.98049,429.66,568.89
17.99977,427.97,569.55
18.02130,431.86,568.11
18.04150,430.89,570.06
18.06191,430.07,569.46
18.08136,428.21,569.92
18.10159,430.92,568.68
18.12119,431.10,572.92
18.14144,432.25,572.39
18.16072,429.35,573.11
18.18090,433.35,571.38
18.20045,433.03,572.50
18.22168,432.55,571.82
18.24303,434.76,573.74
18.26262,435.43,574.53
18.28213,434.74,572.65
18.30220,432.30,571.89
18.32205,432.10,569.32
18.34306,435.30,566.19
18.36124,432.88,569.36
18.38138,434.04,568.54
18.40165,431.93,566.97
18.42258,433.45,569.27
18.44295,433.17,568.21
18.46305,431.21,566.18
18.48285,433.31,566.67
18.50268,432.92,567.08
18.52295,433.56,566.54
18.54132,432.89,568.68
18.56262,434.38,568.60
18.58237,435.41,567.86
18.60276,434.44,567.51
18.62270,432.52,568.79
18.64323,430.62,566.66
18.66215,434.25,567.63
18.68327,434.82,568.70
18.70229,434.81,568.60
18.72136,436.16,568.30
18.74179,432.94,564.91
18.76180,435.55,567.44
18.78161,434.63,567.25
18.80137,432.95,569.78
18.82203,433.28,569.46
18.84267,434.30,566.62
18.86194,432.95,567.96
18.88222,432.70,565.65
18.90299,435.25,565.32
18.92173,425.48,568.03
18.94237,409.04,565.90
18.96183,386.18,565.05
18.98312,362.79,567.85
19.00329,337.90,563.92
19.02292,319.79,554.94
19.04200,306.93,546.64
19.06252,298.58,535.49
19.08122,291.49,529.56
19.10160,292.09,520.10
19.12272,292.87,518.42
19.14306,299.11,516.10
19.16304,305.60,512.62
19.18153,311.05,514.31
19.20217,321.61,517.60
19.22271,329.21,517.55
19.24409,339.43,522.28
19.26242,351.78,526.27
19.28244,361.14,531.19
19.30370,371.27,534.33
19.32398,380.12,538.15
19.34378,385.30,539.76
19.36411,390.93,543.99
19.38305,400.10,547.92
19.40227,405.83,550.69
19.42258,409.16,553.54
19.44428,412.66,553.23
19.46426,418.09,557.62
19.48243,421.64,559.66
19.50332,423.70,558.96
19.52421,426.85,563.98
19.54252,427.48,562.71
19.56430,429.11,564.23
19.58338,430.09,565.19
19.60378,435.03,565.34
19.62357,435.11,564.50
19.64267,434.66,564.95
19.66211,436.48,564.82
19.68340,435.73,569.13
19.70284,437.61,569.42
19.72352,437.83,566.68
19.74438,435.40,568.14
19.76416,435.19,569.52
19.78276,435.08,568.15
19.80353,437.57,569.38
19.82231,447.52,571.60
19.84363,467.81,581.01
19.86300,494.81,586.23
19.88295,525.31,593.78
19.90330,557.50,601.50
19.92311,587.20,608.64
19.94355,605.36,613.38
19.96363,613.80,612.63
19.98425,611.72,612.87
20.00352,606.47,610.37
20.02264,594.80,607.84
20.04256,578.87,603.13
20.06290,567.45,601.57
20.08321,552.60,596.82
20.10261,540.94,594.10
20.12307,528.33,592.25
20.14246,517.82,589.18
20.16276,507.02,587.46
20.18418,499.54,586.20
20.20322,489.34,582.84
20.22322,482.70,582.18
20.24282,477.48,581.09
20.26380,470.97,580.63
20.28335,467.88,577.71
20.30290,465.29,579.01
20.32267,462.24,576.84
20.34384,461.16,573.80
20.36411,454.85,572.72
20.38338,453.99,571.98
20.40241,451.21,573.39
20.42432,448.93,574.06
20.44402,448.50,569.99
20.46272,447.33,573.36
20.48246,445.52,570.06
20.50246,445.34,572.05
20.52338,445.97,568.79
20.54243,444.13,571.58
20.56375,444.01,572.03
20.58353,444.50,568.98
20.60285,445.96,569.24
20.62373,443.94,570.15
20.64365,441.90,571.39
20.66325,441.87,569.60
20.68378,444.41,571.29
20.70289,443.54,569.80
20.72305,445.13,572.03
20.74280,445.69,568.90
20.76379,442.44,570.39
20.78278,445.05,572.16
20.80248,444.84,570.86
20.82376,442.49,567.45
20.84387,441.30,568.66
20.86360,442.74,567.98
20.88414,443.17,568.59
20.90431,443.35,569.39
20.92222,442.71,568.82
20.94310,441.34,570.14
20.96360,444.44,570.81
20.98376,443.94,568.82
21.00334,440.27,571.19
21.02330,442.34,573.34
21.04275,440.64,573.10
21.06430,441.35,570.30
21.08340,443.73,573.22
21.10299,444.54,572.78
21.12403,443.38,571.86
21.14410,443.33,570.79
21.16384,443.50,569.72
21.18358,443.34,572.02
21.20273,444.44,569.45
21.22354,444.04,570.58
21.24350,442.24,572.44
21.26238,446.70,569.29
21.28287,444.03,571.69
21.30331,446.81,570.93
21.32352,447.89,572.08
21.34471,446.03,572.29
21.36419,445.32,571.16
21.38390,444.79,568.97
21.40524,445.91,567.88
21.42434,446.75,568.72
21.44337,447.55,567.70
21.46376,448.82,566.02
21.48432,450.56,568.12
21.50342,448.03,567.74
21.52438,448.17,566.97
21.54485,446.47,567.06
21.56417,446.82,566.57
21.58429,447.66,566.60
21.60329,448.28,567.11
21.62536,450.42,569.22
21.64360,447.18,569.36
21.66399,447.00,568.25
21.68388,446.75,568.11
21.70381,446.06,567.54
21.72445,449.72,569.13
21.74418,445.35,569.44
21.76478,447.42,569.87
21.78428,448.37,571.19
21.80421,446.11,569.07
21.82368,446.95,571.90
21.84411,447.69,571.34
21.86518,445.92,569.25
21.88418,450.08,568.67
21.90364,447.99,569.94
21.92441,449.93,571.17
21.94469,451.24,569.49
21.96456,447.72,566.39
21.98434,447.35,567.17
22.00499,448.93,566.95
22.02421,445.97,567.69
22.04350,446.37,565.99
22.06461,448.64,570.04
22.08620,444.53,569.55
22.10583,444.90,569.81
22.12575,448.53,567.51
22.14476,446.99,567.77
22.16502,447.29,567.61
22.18542,447.58,567.67
22.20495,446.93,567.52
22.22489,449.46,566.66
22.24538,448.28,570.05
22.26461,446.60,569.03
22.28581,450.51,567.48
22.30564,449.71,569.28
22.32587,449.47,570.24
22.34534,448.66,569.65
22.36576,448.92,568.39
22.38478,449.25,570.75
22.40620,447.77,568.29
22.42469,447.50,569.49
22.44505,448.26,571.22
22.46552,447.97,570.54
22.48453,450.05,569.19
22.50529,446.31,571.66
22.52473,446.53,570.99
22.54528,449.24,571.42
22.56472,450.30,567.81
22.58547,447.04,568.23
22.60452,449.21,569.32
22.62609,448.93,568.56
22.64581,449.13,569.10
22.66550,447.89,567.16
22.68650,448.39,567.93
22.70716,446.12,563.95
22.72703,444.03,563.65
22.74583,434.84,564.09
22.76642,416.73,565.09
22.78711,393.15,562.15
22.80659,368.09,564.49
22.82684,344.96,564.03
22.84651,327.47,560.49
22.86632,318.23,554.97
22.88632,309.74,550.57
22.90610,304.04,543.24
22.92696,306.27,539.15
22.94727,307.47,534.58
22.96756,309.09,530.11
22.98778,318.17,527.27
23.00807,326.82,525.41
23.02802,333.62,524.75
23.04639,344.54,526.42
23.06749,351.08,524.75
23.08656,361.00,526.42
23.10680,368.51,532.43
23.12626,377.65,532.40
23.14777,384.75,534.58
23.16807,393.47,541.40
23.18682,399.45,544.47
23.20657,403.15,547.37
23.22818,407.56,551.59
23.24633,413.35,554.88
23.26687,417.53,558.91
23.28786,420.88,562.09
23.30636,423.42,561.29
23.32764,427.78,564.12
23.34841,428.58,565.69
23.36847,431.14,569.97
23.38854,432.07,571.84
23.40929,434.74,572.56
23.42868,435.24,569.76
23.44901,431.72,571.00
23.46854,432.72,573.33
23.48838,435.82,570.12
23.51000,434.34,572.97
23.52929,436.50,574.79
23.54921,435.11,574.79
23.56835,437.02,573.65
23.58853,434.40,572.61
23.60956,434.79,572.91
23.63014,436.03,574.77
23.64900,438.08,575.52
23.66958,438.08,575.39
23.68857,445.62,581.51
23.71007,462.32,586.70
23.72883,489.67,595.33
23.74969,515.77,605.52
23.76911,549.93,614.74
23.78952,578.40,623.17
23.80968,602.28,628.65
23.82898,611.67,629.38
23.84869,608.64,626.42
23.86986,602.45,623.18
23.89004,592.46,618.11
23.90834,581.22,613.40
23.92856,569.99,606.09
23.94834,554.56,601.90
23.96826,540.08,597.96
23.99059,526.84,591.65
24.01065,515.59,588.76
24.03026,505.69,584.21
24.05122,497.66,578.90
24.06985,489.63,577.15
24.08930,482.26,574.22
24.10968,473.94,571.65
24.12975,470.54,570.26
24.14940,464.74,571.99
24.16978,458.30,569.69
24.18936,454.96,568.54
24.21126,452.87,568.09
24.23108,450.77,569.46
24.24905,447.01,564.42
24.26963,446.04,565.48
24.29014,441.25,565.23
24.31119,441.27,565.81
24.33171,438.38,567.95
24.35125,436.75,566.26
24.37078,437.26,566.00
24.39008,438.74,566.10
24.41078,434.80,568.52
24.43068,436.93,567.25
24.45082,432.70,567.10
24.47177,434.89,569.66
24.49160,432.51,569.13
24.51034,436.18,568.12
24.53062,435.50,570.63
24.55149,434.19,569.07
24.57174,435.84,567.43
24.59051,433.74,569.39
24.61147,434.26,566.12
24.63072,435.08,568.02
24.65147,432.94,566.13
24.67107,433.38,568.09
24.69014,432.29,566.64
24.71180,434.35,564.70
24.73158,431.71,568.49
24.75158,434.60,566.01
24.77126,433.63,566.87
24.79061,433.11,566.68
24.81056,435.30,565.84
24.83206,435.81,563.74
24.85073,435.35,564.58
24.87066,435.26,565.61
24.89085,433.54,563.70
24.91083,434.24,563.74
24.93041,433.84,566.56
24.95161,435.34,565.37
24.97202,433.89,564.82
24.99159,433.67,565.21
25.01159,436.97,564.56
25.03143,437.57,566.19
25.05019,436.98,566.15
25.07158,437.33,564.56
25.09011,436.10,565.06
25.11024,433.64,565.79
25.13124,431.63,566.78
25.15045,432.37,564.50
25.17154,431.20,563.41
25.19135,433.41,564.90
25.21115,433.00,564.29
25.23172,432.28,564.00
25.25084,433.39,564.83
25.27130,436.29,565.28
25.29119,436.55,567.26
25.31044,436.06,566.91
25.33192,434.83,565.26
25.35034,433.69,568.25
25.37113,431.21,565.69
25.39207,434.40,568.47
25.41071,431.44,565.47
25.43013,432.25,569.04
25.45053,435.85,568.22
25.47175,434.10,566.77
25.49029,432.55,567.33
25.51066,434.50,567.29
25.53141,432.64,569.64
25.55165,436.05,571.24
25.57187,433.73,569.12
25.59068,433.58,568.65
25.61140,434.28,569.75
25.63134,436.04,568.27
25.65159,433.99,569.03
25.67284,435.78,569.34
25.69158,435.26,569.45
25.71215,435.67,568.82
25.73230,433.46,571.75
25.75289,434.28,568.94
25.77134,436.62,569.72
25.79302,436.41,569.85
25.81299,436.75,572.11
25.83259,436.39,569.81
25.85174,436.09,570.84
25.87249,432.43,567.90
25.89273,434.87,568.10
25.91127,437.77,569.24
25.93281,436.92,567.38
25.95274,434.77,567.20
25.97171,432.08,568.24
25.99217,435.06,567.63
26.01277,433.55,568.70
26.03254,434.00,569.12
26.05221,432.31,567.37
26.07226,435.50,568.81
26.09188,435.76,565.90
26.11140,434.74,569.02
26.13124,434.63,569.68
26.15290,434.88,566.51
26.17176,434.66,565.88
26.19169,433.77,567.73
26.21195,434.46,567.82
26.23168,433.78,566.45
26.25410,434.46,567.39
26.27408,435.71,566.88
26.29291,435.03,569.43
26.31343,434.97,567.96
26.33348,437.51,566.64
26.35382,435.30,566.22
26.37404,425.08,566.37
26.39246,401.93,561.85
26.41339,378.54,554.86
26.43404,354.54,551.22
26.45275,334.10,551.70
26.47249,317.86,549.90
26.49322,310.68,545.77
26.51351,301.92,539.58
26.53366,299.36,534.86
26.55404,301.98,530.77
26.57314,307.44,529.14
26.59316,311.64,526.41
26.61372,321.37,524.60
26.63327,327.55,524.60
26.65242,338.55,526.07
26.67231,348.09,526.57
26.69377,358.29,531.72
26.71321,366.74,533.55
26.73255,374.74,534.97
26.75222,380.86,537.81
26.77370,389.25,540.34
26.79348,396.81,543.32
26.81371,402.58,547.86
26.83303,409.42,551.46
26.85250,414.47,554.20
26.87407,418.95,555.19
26.89371,421.50,557.38
26.91232,425.09,557.88
26.93367,426.56,560.45
26.95240,428.50,561.76
26.97388,430.32,561.27
26.99342,430.95,563.67
27.01215,433.02,563.65
27.03230,434.72,562.84
27.05326,436.09,566.17
27.07345,436.07,563.99
27.09409,439.35,566.15
27.11413,439.79,567.45
27.13413,440.86,568.31
27.15502,440.90,566.37
27.17477,442.49,569.53
27.19502,444.93,570.82
27.21397,443.57,569.55
27.23320,447.57,571.47
27.25369,449.22,569.38
27.27358,449.55,567.97
27.29441,448.72,570.81
27.31342,447.08,569.90
27.33338,447.08,572.62
27.35422,447.26,570.63
27.37496,449.43,571.14
27.39428,451.99,572.32
27.41376,449.13,570.06
27.43491,449.91,572.23
27.45485,448.46,572.48
27.47444,450.68,572.22
27.49378,450.42,571.95
27.51472,449.16,573.41
27.53451,449.08,571.39
27.55373,450.41,570.71
27.57450,448.35,571.96
27.59459,448.90,568.99
27.61367,448.74,572.21
27.63461,455.45,574.56
27.65348,459.29,580.11
27.67493,464.85,590.43
27.69349,474.97,601.65
27.71336,489.53,608.80
27.73471,510.37,617.56
27.75463,532.86,622.29
27.77411,558.28,628.01
27.79464,578.30,632.70
27.81470,594.17,634.55
27.83351,600.67,627.68
27.85385,599.41,623.95
27.87400,594.55,615.22
27.89497,584.86,611.73
27.91434,574.80,604.68
27.93408,560.87,598.93
27.95434,552.31,595.36
27.97529,538.61,590.05
27.99453,527.50,585.41
28.01593,519.95,584.00
28.03541,509.03,581.99
28.05515,501.65,576.87
28.07535,497.26,576.37
28.09558,490.72,575.83
28.11585,482.40,574.85
28.13587,479.98,572.89
28.15522,475.64,574.89
28.17476,470.01,573.02
28.19429,468.02,573.52
28.21456,464.59,570.53
28.23431,465.12,573.67
28.25536,460.87,571.76
28.27548,459.69,570.66
28.29587,457.80,573.32
28.31593,457.27,573.86
28.33560,455.85,572.59
28.35592,454.82,573.85
28.37531,453.93,572.69
28.39521,453.40,572.04
28.41426,453.66,574.82
28.43398,449.46,573.46
28.45644,449.51,574.41
28.47576,449.61,575.50
28.49565,448.76,575.80
28.51654,451.90,574.63
28.53546,451.90,573.07
28.55535,447.48,576.36
28.57647,448.54,575.46
28.59542,449.86,575.32
28.61617,448.92,575.70
28.63578,449.54,572.14
28.65655,449.46,573.35
28.67516,447.87,573.07
28.69609,449.16,576.02
28.71576,447.24,573.52
28.73602,447.58,576.46
28.75572,447.51,573.60
28.77645,445.28,577.00
28.79595,445.13,576.27
28.81685,444.56,576.06
28.83627,447.57,579.97
28.85815,445.11,576.95
28.87651,442.99,575.34
28.89773,445.73,575.28
28.91776,444.79,576.71
28.93644,444.26,575.48
28.95799,446.21,577.88
28.97634,444.85,576.23
28.99638,442.48,575.23
29.01618,442.59,576.34
29.03657,442.40,575.33
29.05690,440.22,572.77
29.07624,441.54,575.52
29.09682,441.74,573.68
29.11633,443.31,573.73
29.13752,442.17,570.07
29.15696,442.23,571.65
29.17649,442.14,571.97
29.19623,444.84,571.41
29.21773,443.05,572.96
29.23787,442.52,573.68
29.25760,443.22,574.05
29.27705,445.63,571.99
29.29707,443.69,570.49
29.31684,445.26,571.58
29.33782,443.88,573.53
29.35731,443.11,571.82
29.37959,444.24,573.29
29.39888,441.68,569.93
29.41837,442.20,570.63
29.43941,442.76,570.32
29.45998,441.92,571.97
29.47829,441.64,571.10
29.49882,440.34,570.80
29.51887,439.95,571.03
29.53869,440.33,572.78
29.55855,437.55,571.52
29.58010,439.13,572.52
29.59986,438.41,571.90
29.61856,438.64,573.16
29.63982,437.33,575.28
29.65829,438.48,574.17
29.67870,437.49,576.68
29.69849,439.34,575.21
29.71844,438.72,575.02
29.73826,437.43,575.27
29.75818,440.16,575.16
29.77887,438.74,576.51
29.79806,437.61,577.53
29.81790,437.59,577.47
29.83977,438.44,577.92
29.85968,436.51,576.74
29.87875,439.26,579.42
29.89918,437.57,578.20
29.91974,437.78,578.36
29.93969,437.54,575.12
29.95920,437.15,575.37
29.97853,439.19,576.76
29.99883,437.26,578.68
30.01966,437.28,579.83
30.03880,439.43,578.96
30.05864,439.45,575.99
30.07963,437.74,576.21
30.09883,438.86,573.91
30.11879,438.75,577.77
30.13937,440.58,574.92
30.15995,437.93,574.50
30.17807,438.82,574.77
30.19985,438.93,577.71
30.21815,439.89,575.80
30.23948,438.08,573.96
30.25827,437.56,576.46
30.27957,436.19,575.71
30.29848,436.34,574.25
30.31950,436.09,574.11
30.33914,437.97,575.14
30.35932,436.20,578.32
30.37865,422.04,575.80
30.39903,404.68,572.22
30.41979,380.60,567.72
30.43833,358.73,561.77
30.45902,336.79,555.89
30.47828,320.86,548.03
30.49943,307.20,543.86
30.52011,301.72,538.39
30.53911,300.51,532.94
30.55848,298.49,527.67
30.57891,302.96,526.02
30.59895,307.22,527.05
30.61917,316.52,526.21
30.63831,325.06,529.42
30.65921,332.16,528.80
30.67897,341.37,531.64
30.69782,349.14,532.50
30.71865,359.25,535.36
30.73987,367.46,537.50
30.75958,371.05,541.66
30.77935,381.56,544.15
30.79945,389.43,545.59
30.81937,392.65,551.60
30.83972,397.89,551.56
30.85889,403.59,553.77
30.88005,406.16,556.87
30.89792,410.62,560.23
30.91910,413.34,560.28
30.93933,412.54,561.09
30.96103,414.71,564.23
30.97912,420.09,566.78
30.99920,419.26,568.73
31.01967,422.23,567.64
31.04058,422.40,568.48
31.05916,423.08,569.10
31.07904,422.43,571.91
31.10046,426.55,571.74
31.12098,427.09,571.61
31.14007,424.64,573.95
31.15933,426.40,575.36
31.18071,426.91,577.29
31.19921,428.90,574.38
31.21914,429.48,575.56
31.23998,429.75,577.57
31.26053,428.87,578.26
31.27955,429.69,578.52
31.30022,427.06,578.96
31.31881,427.91,577.94
31.33953,431.73,575.99
31.36006,430.81,582.88
31.37944,439.43,590.36
31.40018,455.75,613.65
31.42196,472.88,642.30
31.44092,496.37,674.58
31.46235,523.30,696.51
31.48265,545.92,707.52
31.50251,565.76,702.34
31.52275,585.17,687.93
31.54299,595.85,666.87
31.56183,598.72,646.20
31.58220,593.99,622.83
31.60241,584.68,603.38
31.62271,571.45,590.60
31.64137,560.72,576.73
31.66136,546.40,566.24
31.68170,531.82,559.02
31.70109,520.96,555.24
31.72187,509.65,548.76
31.74238,500.66,548.91
31.76169,491.70,545.82
31.78235,485.13,545.24
31.80235,476.94,546.81
31.82280,472.06,547.53
31.84235,468.05,549.98
31.86329,464.12,551.79
31.88378,459.84,551.46
31.90227,454.94,551.69
31.92235,451.37,551.82
31.94275,449.21,553.15
31.96313,447.32,556.43
31.98221,445.83,556.20
32.00280,444.85,556.91
32.02218,441.73,556.15
32.04236,443.36,558.28
32.06244,438.82,559.27
32.08219,439.52,558.62
32.10190,439.90,558.11
32.12360,439.29,559.30
32.14354,437.32,560.17
32.16280,437.94,562.89
32.18282,436.67,562.61
32.20279,437.09,562.85
32.22406,436.24,565.31
32.24288,435.69,563.74
32.26230,436.65,565.64
32.28221,436.26,565.41
32.30393,435.70,564.92
32.32305,436.55,567.76
32.34323,438.01,567.39
32.36361,438.72,566.21
32.38207,435.64,565.23
32.40371,434.53,564.67
32.42311,435.36,563.12
32.44201,434.69,562.92
32.46315,435.08,564.98
32.48254,433.36,561.56
32.50244,433.99,561.14
32.52306,432.86,564.03
32.54366,433.79,562.13
32.56328,434.88,562.26
32.58257,431.83,562.54
32.60337,434.75,563.99
32.62206,435.25,561.49
32.64386,434.83,562.31
32.66355,436.57,564.58
32.68263,434.80,561.10
32.70318,436.19,562.92
32.72382,436.96,560.37
32.74247,435.52,561.66
32.76327,437.63,561.32
32.78219,435.17,562.36
32.80324,436.89,563.03
32.82228,437.10,564.06
32.84302,434.68,564.06
32.86231,437.57,563.54
32.88290,437.38,562.36
32.90305,436.22,565.03
32.92326,435.52,562.18
32.94323,435.09,565.62
32.96350,436.67,565.93
32.98248,438.16,564.59
33.00359,438.80,562.85
33.02374,435.90,565.61
33.04183,437.66,566.22
33.06383,435.38,564.03
33.08200,436.98,565.89
33.10257,435.95,565.19
33.12230,433.54,564.93
33.14309,434.50,566.25
33.16261,437.57,567.19
33.18398,437.04,567.07
33.20285,435.88,565.31
33.22337,436.12,569.15
33.24354,435.33,567.78
33.26221,440.11,567.01
33.28265,438.77,565.08
33.30285,438.41,565.84
33.32357,436.62,564.66
33.34234,437.35,563.87
33.36220,437.20,567.57
33.38281,437.41,567.19
33.40263,439.80,567.70
33.42314,436.81,568.68
33.44350,437.81,568.76
33.46211,438.83,569.53
33.48333,436.13,569.58
33.50223,437.65,569.20
33.52212,439.46,566.45
33.54308,438.73,568.92
33.56329,438.31,568.03
33.58242,440.63,567.28
33.60296,437.44,567.85
33.62291,438.59,568.26
33.64345,440.00,567.71
33.66285,440.02,566.85
33.68387,439.56,567.38
33.70365,438.41,568.00
33.72288,440.06,570.22
33.74336,437.99,568.86
33.76261,436.96,569.81
33.78326,437.96,568.11
33.80329,440.95,567.04
33.82301,440.24,568.26
33.84330,441.35,567.24
33.86179,438.38,568.11
33.88290,441.27,567.27
33.90313,441.00,567.69
33.92298,441.12,564.19
33.94250,443.98,567.13
33.96352,442.33,564.64
33.98411,441.29,565.96
34.00447,440.66,565.13
34.02457,442.09,567.40
34.04438,443.87,564.41
34.06392,442.45,566.47
34.08413,441.10,565.14
34.10437,440.21,566.77
34.12471,439.76,563.18
34.14307,442.33,563.99
34.16368,440.71,565.06
34.18313,441.60,562.85
34.20451,441.84,562.44
34.22349,443.13,565.24
34.24407,444.25,565.09
34.26457,442.21,563.88
34.28294,444.09,565.03
34.30429,446.32,560.77
34.32349,442.27,560.03
34.34344,445.28,563.18
34.36433,444.96,563.33
34.38401,446.76,562.62
34.40301,443.76,561.74
34.42377,444.17,562.64
34.44369,447.51,559.91
34.46374,444.48,559.69
34.48349,446.26,561.30
34.50457,438.35,559.64
34.52318,419.52,552.96
34.54481,396.37,552.56
34.56493,369.34,552.32
34.58439,346.74,550.42
34.60426,333.02,544.42
34.62306,317.30,537.08
34.64467,309.35,527.15
34.66393,302.20,521.05
34.68379,305.00,517.19
34.70398,308.00,518.19
34.72438,309.33,517.89
34.74426,316.02,517.81
34.76435,325.96,516.20
34.78443,331.63,520.81
34.80448,343.02,523.89
34.82352,349.82,526.92
34.84327,359.44,527.91
34.86388,366.26,532.13
34.88375,374.02,535.88
34.90425,384.66,538.77
34.92440,393.24,542.73
34.94455,398.44,545.21
34.96457,405.94,549.27
34.98338,412.75,550.99
35.00405,414.49,553.68
35.02486,419.10,553.20
35.04423,424.94,553.53
35.06420,427.32,555.78
35.08452,429.42,558.92
35.10299,429.78,558.39
35.12446,431.39,555.77
35.14388,434.93,558.44
35.16304,436.04,557.54
35.18309,436.05,560.21
35.20450,439.81,559.74
35.22442,437.82,559.34
35.24433,441.33,559.61
35.26291,444.28,559.76
35.28296,444.61,559.25
35.30329,447.08,554.44
35.32377,444.30,554.22
35.34447,444.32,553.09
35.36341,443.17,553.10
35.38398,443.82,550.90
35.40321,444.31,550.54
35.42426,447.56,553.79
35.44364,444.52,555.55
35.46369,447.42,556.05
35.48350,446.45,558.67
35.50416,447.34,560.89
35.52395,449.47,563.52
35.54309,448.82,566.26
35.56336,447.97,566.31
35.58323,448.63,565.65
35.60301,449.24,567.53
35.62380,448.71,567.91
35.64371,453.90,567.59
35.66403,464.75,575.19
35.68431,479.90,587.23
35.70324,505.71,601.42
35.72435,537.87,611.57
35.74373,566.64,616.88
35.76419,598.22,626.44
35.78278,617.49,631.15
35.80357,626.66,630.08
35.82363,626.27,625.87
35.84348,619.96,620.47
35.86381,606.15,616.59
35.88301,595.34,608.81
35.90428,578.91,601.49
35.92376,568.59,593.91
35.94426,550.99,589.98
35.96381,540.98,584.29
35.98413,528.45,583.35
36.00435,522.81,579.12
36.02451,513.56,574.89
36.04327,505.16,573.35
36.06472,496.34,569.99
36.08461,491.50,569.67
36.10397,484.87,567.31
36.12388,481.22,566.75
36.14339,476.01,565.85
36.16321,475.56,563.38
36.18408,472.52,564.19
36.20477,468.79,560.51
36.22459,467.38,560.01
36.24470,462.60,560.24
36.26424,461.55,559.41
36.28409,459.41,559.51
36.30383,459.44,561.53
36.32438,458.90,560.32
36.34408,456.77,560.65
36.36432,455.60,559.91
36.38500,451.86,559.64
36.40434,455.37,561.81
36.42431,454.70,559.69
36.44401,455.01,560.74
36.46551,452.12,561.26
36.48530,453.34,562.20
36.50405,450.70,560.23
36.52528,451.74,563.28
36.54619,450.77,560.90
36.56643,449.68,561.39
36.58591,450.29,558.26
36.60624,447.13,558.88
36.62617,449.87,558.09
36.64642,447.30,558.46
36.66561,449.03,554.17
36.68622,447.34,557.31
36.70486,445.87,554.95
36.72560,446.96,555.83
36.74629,447.44,553.76
36.76682,447.30,553.52
36.78620,449.23,554.36
36.80521,448.97,555.61
36.82631,447.20,555.66
36.84687,448.48,557.78
36.86501,448.27,558.01
36.88590,448.37,556.81
36.90636,449.60,560.24
36.92607,447.64,558.41
36.94765,446.98,558.72
36.96573,447.34,558.68
36.98712,448.29,558.14
37.00581,447.27,561.22
37.02724,446.07,562.69
37.04659,448.03,561.36
37.06625,445.42,564.10
37.08766,447.88,565.43
37.10785,444.71,562.83
37.12809,443.54,565.86
37.14857,441.96,564.40
37.16711,441.20,565.21
37.18857,442.30,564.84
37.20710,443.31,563.82
37.22703,443.50,565.86
37.24817,441.13,565.20
37.26681,440.84,564.90
37.28894,440.56,563.20
37.30859,442.28,565.48
37.32908,443.66,567.77
37.34823,439.18,569.43
37.36955,441.48,570.54
37.38873,439.85,568.11
37.40876,439.47,568.95
37.42830,443.41,568.12
37.44919,444.22,568.38
37.46957,443.78,568.28
37.48919,440.83,567.64
37.50917,443.50,567.20
37.52914,442.02,566.23
37.54811,443.29,567.88
37.56893,442.86,569.24
37.58881,440.93,566.98
37.60891,439.01,568.09
37.62895,441.12,566.12
37.64838,441.21,568.93
37.66829,439.29,568.41
37.68921,442.13,566.27
37.70952,439.98,569.49
37.72928,440.57,566.93
37.74815,438.42,567.67
37.76819,442.76,569.45
37.78901,442.91,567.22
37.80923,438.21,569.68
37.83037,435.96,568.62
37.85170,437.09,569.57
37.87049,436.53,568.64
37.89134,435.88,567.35
37.91222,434.84,567.95
37.93184,435.53,566.58
37.95225,432.36,565.91
37.97202,432.10,569.43
37.99127,431.96,566.03
38.01194,433.29,565.32
38.03133,433.63,566.70
38.05202,432.86,567.40
38.07122,429.74,567.81
38.09102,431.75,567.56
38.11198,431.24,567.71
38.13197,434.68,564.15
38.15251,431.30,566.73
38.17257,430.80,562.53
38.19092,431.40,564.78
38.21210,430.71,562.19
38.23124,430.85,563.15
38.25197,431.20,562.64
38.27183,431.61,561.32
38.29233,432.10,563.43
38.31247,429.14,562.40
38.33282,430.77,561.03
38.35221,429.80,564.10
38.37342,431.51,564.77
38.39353,430.57,566.01
38.41348,430.60,565.81
38.43266,432.20,566.60
38.45286,431.59,567.03
38.47240,429.94,564.80
38.49316,432.20,565.85
38.51245,432.28,563.71
38.53358,428.58,564.31
38.55288,430.14,562.46
38.57299,428.83,562.06
38.59351,433.25,562.24
38.61398,433.61,561.04
38.63303,433.22,558.28
38.65312,433.62,559.32
38.67301,423.52,555.89
38.69323,406.24,554.00
38.71399,383.62,551.12
38.73395,357.87,547.42
38.75453,334.87,542.15
38.77428,319.14,538.81
38.79292,305.14,534.17
38.81323,295.81,526.44
38.83290,291.55,522.39
38.85438,293.58,520.39
38.87479,294.42,518.22
38.89481,298.16,515.23
38.91556,304.46,514.87
38.93525,313.73,514.52
38.95421,319.01,515.91
38.97568,331.77,517.43
38.99487,340.36,520.55
39.01568,349.99,523.08
39.03532,354.81,524.53
39.05493,363.70,525.94
39.07392,371.19,531.24
39.09564,376.97,535.08
39.11543,386.16,538.39
39.13506,393.33,537.49
39.15502,398.45,539.01
39.17526,405.20,543.58
39.19455,406.37,543.04
39.21523,413.03,547.62
39.23484,415.53,550.67
39.25519,416.43,549.95
39.27400,418.38,553.92
39.29397,420.08,555.36
39.31500,423.38,554.44
39.33439,427.23,556.68
39.35460,428.75,558.58
39.37502,426.44,557.97
39.39441,426.02,559.96
39.41394,430.22,561.45
39.43525,429.52,560.04
39.45463,431.08,558.50
39.47511,431.43,558.17
39.49612,433.84,561.60
39.51582,431.07,561.29
39.53647,433.53,563.01
39.55535,435.10,561.87
39.57541,433.91,562.51
39.59600,433.36,563.74
39.61572,434.08,565.46
39.63539,432.38,564.56
39.65599,433.94,567.06
39.67630,433.25,566.02
39.69521,435.52,567.09
39.71553,445.00,575.91
39.73670,463.70,586.38
39.75561,488.59,597.46
39.77508,518.64,608.23
39.79518,547.48,613.31
39.81499,577.28,619.21
39.83541,598.43,621.37
39.85613,604.67,622.71
39.87556,606.08,617.71
39.89628,595.87,616.51
39.91489,585.91,613.82
39.93483,575.40,608.77
39.95658,564.74,606.08
39.97617,551.07,599.80
39.99498,537.27,594.36
40.01614,530.89,594.74
40.03662,525.22,590.63
40.05635,517.54,591.52
40.07582,510.62,589.86
40.09481,504.50,585.81
40.11498,497.95,581.41
40.13485,488.93,578.79
40.15626,482.61,579.22
40.17596,480.19,575.75
40.19639,474.02,575.68
40.21527,469.66,572.19
40.23545,468.33,572.01
40.25527,461.03,572.14
40.27595,458.46,571.17
40.29520,454.77,571.19
40.31518,452.13,569.41
40.33643,451.90,568.83
40.35628,447.54,569.09
40.37607,448.74,565.75
40.39628,447.83,567.22
40.41547,446.02,564.84
40.43516,443.18,567.61
40.45503,444.42,565.38
40.47533,445.20,566.50
40.49599,443.39,567.34
40.51496,442.06,565.09
40.53607,443.51,565.77
40.55545,441.63,566.19
40.57497,441.87,569.06
40.59610,442.17,566.18
40.61584,442.37,565.45
40.63610,442.53,565.55
40.65506,442.45,567.27
40.67657,441.29,565.24
40.69652,439.83,565.31
40.71637,438.64,565.34
40.73533,439.18,564.81
40.75747,442.00,566.86
40.77740,440.59,567.25
40.79630,444.51,566.58
40.81582,442.21,568.72
40.83654,446.06,567.09
40.85668,445.42,568.88
40.87603,444.15,569.06
40.89597,446.86,569.94
40.91603,445.88,567.44
40.93710,448.43,568.42
40.95727,444.94,565.52
40.97728,447.20,564.83
40.99677,446.34,566.88
41.01676,446.43,567.01
41.03722,447.44,568.69
41.05763,446.12,566.21
41.07764,447.75,568.84
41.09803,448.70,566.65
41.11841,448.45,565.86
41.13812,446.01,565.59
41.15939,448.01,566.28
41.17789,451.36,570.42
41.19903,450.65,567.51
41.21811,448.48,566.98
41.23780,449.47,568.67
41.25931,449.23,567.56
41.27917,448.24,571.17
41.29989,448.22,569.67
41.31832,448.46,568.28
41.33927,449.99,570.29
41.35970,450.32,568.75
41.37947,451.25,568.54
41.39967,451.24,567.68
41.41883,449.20,565.25
41.43837,449.83,566.58
41.45885,448.12,564.91
41.47887,449.45,568.45
41.49784,450.69,564.37
41.51886,450.51,567.04
41.53960,449.08,565.99
41.55788,449.48,564.69
41.57797,450.75,565.26
41.59880,449.01,566.29
41.61955,447.96,565.37
41.63888,448.38,565.10
41.65819,448.21,566.00
41.67968,448.34,567.80
41.69965,448.89,565.67
41.71869,447.98,567.73
41.73852,447.72,566.73
41.75851,448.42,567.21
41.77892,446.91,567.22
41.79925,446.27,566.82
41.81964,447.45,566.77
41.84041,449.77,566.58
41.86006,449.44,567.77
41.88044,449.83,568.36
41.89985,446.25,568.99
41.92090,446.55,571.52
41.94103,447.11,568.04
41.96127,446.33,567.24
41.98160,445.21,567.34
41.99995,443.42,570.11
42.02063,446.43,569.74
42.04055,443.48,568.86
42.06012,444.23,569.22
42.08076,446.32,569.72
42.10138,444.85,567.16
42.11973,446.55,567.96
42.14025,448.01,567.62
42.16174,448.19,568.71
42.18007,446.23,566.51
42.19983,447.06,566.27
42.22051,444.93,568.84
42.23980,447.10,567.31
42.26097,447.24,566.63
42.28034,446.33,567.25
42.30046,445.29,565.89
42.32067,446.44,564.46
42.34014,446.70,565.77
42.36111,448.88,565.25
42.38094,447.46,567.90
42.40279,448.20,568.89
42.42089,445.88,568.03
42.44250,446.37,565.60
42.46270,446.52,565.81
42.48216,447.61,568.35
42.50152,444.89,568.43
42.52258,442.24,567.33
42.54172,444.82,566.69
42.56141,444.04,565.38
42.58145,445.74,567.77
42.60102,440.56,565.68
42.62251,428.21,565.73
42.64155,406.35,568.44
42.66128,379.14,566.00
42.68169,353.34,565.76
42.70257,329.04,561.97
42.72231,313.20,553.17
42.74129,301.48,545.95
42.76264,296.06,534.73
42.78086,291.63,530.30
42.80170,294.23,525.76
42.82234,296.66,521.04
42.84259,303.70,517.55
42.86124,312.91,511.75
42.88203,320.47,512.27
42.90137,332.79,511.03
42.92270,342.63,510.71
42.94163,353.78,512.67
42.96207,363.55,517.06
42.98065,370.84,522.85
43.00155,378.99,526.61
43.02241,386.80,529.67
43.04116,392.50,532.28
43.06125,400.05,537.05
43.08203,404.24,539.56
43.10179,411.09,543.51
43.12256,414.61,547.00
43.14329,419.57,546.95
43.16283,421.94,550.11
43.18224,421.63,555.75
43.20236,425.99,556.96
43.22291,425.71,556.50
43.24468,427.08,557.99
43.26385,429.52,557.82
43.28283,428.57,557.16
43.30425,429.34,560.06
43.32330,431.24,561.36
43.34294,433.27,562.18
43.36441,430.94,562.69
43.38266,430.26,562.14
43.40471,431.37,562.79
43.42386,431.41,563.65
43.44440,431.66,563.01
43.46514,430.39,564.44
43.48449,433.99,561.31
43.50388,433.76,561.85
43.52402,430.67,561.68
43.54542,433.48,563.82
43.56410,436.14,569.67
43.58448,450.24,578.69
43.60405,464.78,595.23
43.62553,487.51,612.82
43.64569,515.55,625.29
43.66509,542.82,630.18
43.68567,571.02,632.17
43.70479,593.01,632.88
43.72454,604.25,626.73
43.74557,604.14,618.55
43.76556,598.38,612.28
43.78372,590.62,606.03
43.80516,576.27,599.27
43.82579,563.53,591.35
43.84662,551.37,589.54
43.86606,538.92,585.26
43.88482,527.05,579.75
43.90545,514.24,576.06
43.92627,504.50,573.18
43.94612,495.71,572.83
43.96612,487.79,571.37
43.98600,479.17,572.89
44.00490,470.94,571.69
44.02654,466.32,570.73
44.04547,461.53,567.07
44.06596,457.26,566.26
44.08562,455.19,565.39
44.10542,450.99,563.71
44.12638,447.41,563.57
44.14585,446.53,565.03
44.16533,443.58,564.46
44.18637,440.14,563.35
44.20575,437.97,561.97
44.22509,439.69,562.50
44.24504,438.39,562.29
44.26512,437.69,564.81
44.28597,437.56,563.75
44.30552,433.92,565.22
44.32593,433.96,564.40
44.34650,434.63,563.95
44.36525,432.36,567.47
44.38505,430.82,566.06
44.40453,431.64,566.19
44.42534,433.39,565.15
44.44511,433.76,564.84
44.46632,433.78,566.29
44.48516,431.31,562.08
44.50611,430.57,564.57
44.52603,431.17,563.77
44.54643,428.34,562.75
44.56559,430.77,562.67
44.58605,432.05,560.81
44.60583,432.81,561.29
44.62593,432.64,562.03
44.64588,431.15,563.75
44.66549,430.48,563.59
44.68611,427.75,562.26
44.70564,428.42,565.03
44.72487,427.64,565.02
44.74544,430.14,565.78
44.76576,430.91,564.30
44.78523,427.07,563.53
44.80592,426.87,562.22
44.82622,428.69,563.15
44.84583,429.91,561.54
44.86514,427.93,564.48
44.88582,426.81,563.38
44.90478,429.70,562.14
44.92674,428.65,561.91
44.94616,431.05,564.66
44.96474,429.71,562.75
44.98527,432.07,564.45
45.00654,429.37,561.77
45.02523,429.71,562.75
45.04558,431.30,562.73
45.06578,429.77,564.59
45.08513,431.85,563.73
45.10617,430.88,561.89
45.12480,430.06,565.32
45.14620,429.03,561.38
45.16485,431.23,561.09
45.18456,430.47,565.28
45.20597,429.23,562.88
45.22593,431.21,561.94
45.24667,431.98,560.62
45.26660,433.25,561.25
45.28579,433.17,562.78
45.30507,432.61,561.46
45.32465,432.23,563.51
45.34595,430.26,563.11
45.36573,431.90,560.28
45.38612,432.56,560.14
45.40646,432.14,562.09
45.42657,429.83,564.41
45.44466,431.12,562.60
45.46536,429.15,564.96
45.48584,431.28,564.51
45.50661,428.64,562.63
45.52577,431.17,560.81
45.54561,430.28,559.88
45.56547,429.10,559.86
45.58476,431.40,558.54
45.60526,431.19,557.61
45.62542,432.25,559.02
45.64543,432.70,558.63
45.66543,433.99,560.47
45.68489,433.33,560.53
45.70606,433.30,561.26
45.72482,433.05,559.21
45.74534,435.65,561.48
45.76594,438.36,564.16
45.78593,438.27,564.33
45.80485,440.84,564.37
45.82563,438.23,562.60
45.84489,437.91,563.94
45.86582,437.49,562.25
45.88479,434.91,564.88
45.90487,438.23,563.70
45.92548,434.65,564.34
45.94652,435.66,567.37
45.96625,435.68,578.04
45.98558,435.34,591.16
46.00595,442.64,615.86
46.02595,453.70,646.48
46.04590,458.29,669.25
46.06576,463.33,681.18
46.08551,466.43,680.62
46.10618,461.58,667.89
46.12736,457.14,635.89
46.14570,446.18,591.94
46.16605,435.61,550.91
46.18617,429.97,519.21
46.20744,423.59,494.33
46.22717,420.34,479.05
46.24648,418.10,469.66
46.26596,415.71,466.86
46.28659,415.82,468.20
46.30751,418.19,470.07
46.32684,415.42,475.44
46.34722,417.43,481.18
46.36579,415.93,483.30
46.38788,417.67,489.56
46.40716,419.83,497.56
46.42752,423.75,507.35
46.44774,421.82,513.67
46.46652,425.70,517.31
46.48809,427.19,521.16
46.50784,429.69,532.16
46.52662,430.61,538.94
46.54842,425.07,551.95
46.56743,428.26,555.99
46.58690,431.75,558.83
46.60783,435.60,565.40
46.62784,439.62,572.06
46.64715,442.57,577.43
46.66834,444.48,588.60
46.68923,448.35,599.11
46.70948,454.64,617.12
46.72919,459.89,653.60
46.74815,471.05,682.70
46.76882,484.49,708.51
46.78792,494.24,724.26
46.80877,496.48,744.08
46.82815,498.53,763.61
46.84771,498.57,763.76
46.86842,494.17,769.64
46.88779,494.53,769.28
46.90872,483.31,762.47
46.92752,476.29,754.84
46.94808,474.60,750.05
46.96843,473.65,734.47
46.98872,460.24,720.30
47.00829,457.16,703.67
47.02774,453.02,694.26
47.04805,452.41,677.56
47.06839,451.65,666.38
47.08909,453.66,665.28
47.10915,452.05,661.02
47.12861,454.54,652.00
47.14923,454.60,652.28
47.16779,456.64,641.76
47.18821,455.83,630.74
47.20808,455.61,635.45
47.22833,458.47,627.42
47.24766,453.39,629.38
47.26906,449.09,630.49
47.28844,448.12,616.16
47.30958,451.64,611.83
47.32849,448.78,605.45
47.34927,447.63,593.32
47.36850,447.93,590.23
47.38921,447.53,581.12
47.40843,443.87,574.15
47.42865,439.95,568.08
47.44891,449.68,561.36
47.46909,450.22,563.70
47.48780,448.30,564.90
47.50841,451.93,553.54
47.52886,448.80,537.15
47.54827,447.78,523.80
47.56941,445.07,517.12
47.58910,442.88,503.43
47.60915,441.27,517.28
47.62798,441.75,520.20
47.64786,442.57,519.99
