Program Time [s],data 0,data 1
17.49,493.06,517.89
17.5099,492.25,518.71
17.5299,492,520.97
17.5497,492.4,523.77
17.5699,491.32,524.82
17.5898,491.45,526.26
17.6097,490.56,527.2
17.6297,490.65,528.36
17.6498,490.32,526.89
17.6696,490.26,527.31
17.6899,491.21,528.65
17.7097,491.16,527.52
17.7297,491.53,526.62
17.7497,490.63,528.29
17.7696,490.3,526.83
17.7898,491.24,527.67
17.8099,491.79,527.53
17.8298,492.23,527.03
17.8525,491.79,527.02
17.8699,491.83,527.82
17.8898,492.46,526.05
17.9099,491.57,527.84
17.9298,491.06,527.87
17.9496,489.85,528.5
17.9697,490.08,528.6
17.9899,490.26,529.28
18.0097,489.61,529.62
18.0298,489.89,528.1
18.0498,490.11,527.08
18.0698,489.49,531.26
18.0897,490.39,547.21
18.1096,492.51,575.17
18.1297,495.01,603.73
18.1497,497.41,626.19
18.1697,499.73,637.95
18.1896,499.98,643.36
18.2096,499.58,642.29
18.2297,497.87,629.23
18.2497,496.09,615.78
18.2696,494.88,603.03
18.2898,493.9,591.62
18.3096,494.12,580.9
18.3296,493.3,571.32
18.3496,493.24,566.05
18.3697,492.19,559.64
18.3898,492.15,555.51
18.4098,491.72,552.21
18.4298,491.38,547.97
18.4499,492.5,541.38
18.4697,493,538.9
18.4899,492.6,535.72
18.5098,491.68,535.18
18.5299,492.14,534.14
18.5499,492.32,533.71
18.5697,492.25,531.17
18.5897,492.4,530.34
18.6098,492.12,530.67
18.6297,490.9,527.74
18.6498,490.52,526.59
18.6696,489.81,526.47
18.6898,490.05,526.98
18.7096,489.84,526.78
18.7297,491.27,528.22
18.7497,491.22,527.18
18.7698,491.57,526.94
18.7898,492.26,528.16
18.8096,491.21,527.32
18.8297,491.57,526.86
18.8497,490.45,525.69
18.8701,490.96,526.35
18.8897,490.77,524.68
18.9098,490.62,524.94
18.9297,491.09,525.36
18.9497,491.47,526.68
18.9708,492.58,526.15
18.9908,492.66,526.32
19.0108,493.13,526.45
19.0307,495.1,528.16
19.0506,495.88,528.33
19.0707,495.71,527.06
19.0908,495.57,527.45
19.1107,496.05,528.16
19.1307,496.44,528.53
19.1507,497.55,528.02
19.1709,497.64,527.42
19.1909,497.91,527.13
19.2108,499.33,520.11
19.2308,500.07,505.09
19.2506,499.65,480.07
19.2707,496.92,455.46
19.2908,494.94,437.76
19.3109,493.35,429.41
19.3308,491.88,426.93
19.3506,491.7,429.94
19.3708,492.16,436.15
19.3908,492.73,440.72
19.4106,493.58,448.78
19.4308,493.87,456.42
19.4507,495.69,465.54
19.4709,496.56,471.43
19.4908,497.44,478.34
19.5107,496.96,483.28
19.5308,497.16,488.62
19.5507,497.93,493.7
19.5708,497.35,495.36
19.5908,496.68,499.29
19.6108,496.14,504.03
19.6307,495.91,506.82
19.6517,496.73,509.86
19.6721,497.38,513.69
19.6918,498.31,515.75
19.7118,498.65,517
19.7318,497.72,519.8
19.7518,496.57,521.24
19.7718,496.46,522.39
19.7918,496.97,522.91
19.8118,497.97,523.33
19.8318,499.78,524.66
19.8519,500.22,526.93
19.8719,499.98,527.35
19.8918,501.18,527.88
19.9118,501.95,527.3
19.9317,501.96,529.84
19.952,502.37,528.47
19.9717,504.49,528.98
19.9917,503.99,528.58
20.0118,504.4,528.27
20.0317,504.72,529.41
20.0517,504.77,529.93
20.072,504.42,531.74
20.0918,503.73,530.6
20.1118,504.19,530.28
20.1318,504.35,530.42
20.1516,503.88,530.54
20.1718,503.1,530.43
20.1917,503.28,529.54
20.2118,502.63,529.63
20.2318,503.3,528.71
20.2519,503.04,527.97
20.2716,503.03,526.77
20.2916,503.03,527.42
20.3118,502.62,527.13
20.332,501.5,527.51
20.3517,500.6,528.01
20.3718,500.08,527.01
20.3917,501.26,527.8
20.4118,501.61,529.24
20.4318,501.29,528.99
20.4519,502.03,528.6
20.4718,502.82,528.88
20.4916,502.66,530.7
20.5117,502.73,530.36
20.5316,503.18,530.49
20.5517,502.35,530.39
20.5716,500.88,530.71
20.5916,500.9,531.97
20.6117,500.52,532.58
20.6318,500.82,531.86
20.6518,501.45,531.69
20.6718,502.16,532.35
20.6915,503.93,531.68
20.7118,504.34,529.54
20.732,504.88,529.64
20.7518,505.7,531.31
20.7718,505.76,531.45
20.7916,505.81,532.16
20.8118,505.65,532.93
20.8318,506.32,533.14
20.8518,505.65,531.91
20.8717,505.72,531.53
20.8917,506.18,531.42
20.9118,505.54,531.74
20.9318,504.83,530.19
20.9518,504.07,531.35
20.9718,503.65,531.68
20.9916,503.72,530.75
21.0118,503.38,531.2
21.0318,502.9,531.76
21.0518,503.12,531.41
21.0717,503.1,532.12
21.0918,502.68,530.5
21.1118,501.94,530.4
21.1317,501.95,530.92
21.1518,501.96,530.74
21.1718,502.17,530.59
21.1918,503.14,530.27
21.2118,504.11,530.02
21.2319,504.69,529.21
21.2518,504.95,529.17
21.2718,504.16,528.74
21.2917,503.93,528.19
21.3118,504.94,527.95
21.3318,505.95,528.56
21.3516,506.56,529.25
21.3718,507.25,530.2
21.3918,507.6,530.36
21.4118,508.08,533.29
21.4318,507.66,534.43
21.4516,507.33,535.34
21.4716,506.67,536.28
21.4918,506.13,537.42
21.5118,506.51,536.74
21.5318,507.2,535.99
21.5517,506.96,533.79
21.5717,506.57,534.03
21.5918,506.46,533.83
21.6118,505.17,533.86
21.6316,504.53,532.89
21.6516,504.83,533.11
21.6718,505.26,531.69
21.6916,505.41,531.55
21.7118,506.33,531.24
21.7318,506.86,531.99
21.7519,506.69,532.19
21.7718,506.35,532.56
21.7918,506.28,530.84
21.8118,505.62,531.28
21.8318,506.1,531.22
21.8516,505.88,530.78
21.8718,505.7,531.42
21.8916,505.76,532.74
21.9118,505.61,532.39
21.9317,506.29,532.11
21.9526,506.23,532.49
21.9727,506.78,532.79
21.9927,507.23,531.03
22.0128,507.18,530.03
22.0327,507.75,528.22
22.0528,508.8,531.98
22.0728,510.44,543.38
22.0928,511.75,558.11
22.1128,512.2,573.48
22.1327,511.56,582.19
22.1526,510.65,589.95
22.1737,509.72,594.16
22.1947,509.77,593.53
22.2147,508.02,591.42
22.2347,506.22,590.94
22.2548,506.77,586.35
22.2748,508.02,580.88
22.2947,508.41,573.7
22.3147,507.93,572.16
22.3348,507.35,565.33
22.3548,507.48,562.26
22.3747,506.98,558.21
22.3945,507.18,554.97
22.4148,506.35,550.18
22.4346,506.28,549.34
22.4547,506.02,544.27
22.4748,504.82,542.62
22.4946,504.05,541.49
22.5148,503.44,538
22.5348,503.15,538.6
22.5547,503.72,540.08
22.5747,503.78,538.26
22.5947,504.02,538.41
22.6147,505.02,538.53
22.6346,505.81,539.02
22.6546,505.85,538.22
22.6748,505.68,538.97
22.6946,505.55,537.58
22.7146,505.64,537.66
22.7348,505.91,537.13
22.7546,505.53,536.7
22.7747,505.42,535.96
22.7947,504.34,535.97
22.8146,504.27,534.78
22.8348,504.22,534.02
22.8547,504.37,534.82
22.8744,504.5,534.05
22.8945,504,535.84
22.9146,504.4,536.67
22.9346,504.52,536.54
22.9547,504.22,536.83
22.9746,503.97,535.67
22.9946,504.58,520.93
23.0147,505.06,494.35
23.0349,503.85,465.08
23.0547,501.68,441.86
23.0748,499.34,428.49
23.0947,498.28,421.79
23.1147,497.62,422.83
23.1345,496.9,426.27
23.1547,497.32,433.61
23.1748,498.05,439.89
23.1946,498.44,447.31
23.2146,498.35,454.25
23.2346,499.08,463.6
23.2548,499.47,470.28
23.2747,500.17,479.42
23.2947,501.34,487.94
23.3145,502.47,494.75
23.3346,502.18,500
23.3547,502.74,506
23.3747,503.59,511.4
23.3948,504.07,513.72
23.4148,503.46,517.78
23.4349,502.77,519.42
23.4547,502.41,520.74
23.4747,502.53,523.39
23.4948,504.03,524.11
23.5147,502.02,524.49
23.5347,501.42,525.39
23.5548,501.33,525.91
23.5745,500.87,526.73
23.5947,501.09,526.38
23.6147,500.27,526.31
23.6348,500.02,526.25
23.6547,498.82,527.8
23.6747,498.85,528.24
23.6945,498.68,529.19
23.7147,499.35,530.95
23.7348,498.88,530.96
23.7545,497.9,532.17
23.7747,498.12,532.14
23.7946,498.9,532.51
23.8147,499.32,532.21
23.8345,499.45,532.37
23.8547,499.16,531.69
23.8747,498.93,531.15
23.8946,499.34,531.12
23.9146,499.48,530.1
23.9346,499.78,530.28
23.9547,500.02,530.42
23.9747,499.62,529.34
23.9947,499.3,527.67
24.0147,499.04,528.94
24.0347,498.23,528.55
24.0548,497.98,529.64
24.0746,498.79,530.31
24.0947,498.83,528.85
24.1147,498.66,528.88
24.1347,500.33,530.7
24.1546,504.66,531.16
24.1747,506.53,531.93
24.1946,508.63,531.54
24.2157,508.9,531.44
24.2354,508.52,531.35
24.2557,508.42,532.28
24.2756,507.93,531.62
24.2957,507.55,530.1
24.3166,505.84,530.68
24.3374,504.47,530.34
24.3576,503.58,530.67
24.3787,501.86,530.74
24.3985,499.69,530.39
24.4185,498.35,530.31
24.4386,496.88,529.25
24.4585,495.1,529.8
24.4798,493.28,528.84
24.4994,492.83,528.87
24.5198,491.86,527.3
24.5394,491.49,526.04
24.5598,490.39,525.43
24.5798,489.71,525.14
24.5995,489.17,524.92
24.6197,489.34,525.13
24.6396,488.87,525.11
24.6597,488.5,525.28
24.6807,488,525.03
24.7006,487.6,525.42
24.7207,486.88,525.54
24.7407,487.9,526.63
24.7608,488.12,526.3
24.7807,487.9,526.04
24.8005,488.12,526.03
24.8207,487.29,526.83
24.8407,487.04,526.06
24.8607,486.43,526.65
24.8808,486.54,525.12
24.9004,485.83,524.3
24.9206,486.67,523.44
24.9407,487.13,523.95
24.9607,487.11,523.16
24.9807,486.49,522.93
25.0007,486.19,524.14
25.0208,486.95,525.11
25.0407,487.56,524.69
25.0606,487.85,524.75
25.0807,488.68,525
25.1004,488.74,525.8
25.1208,488.79,525.84
25.1406,489.24,525.87
25.1607,489.59,525.1
25.1807,489.87,524.68
25.2005,489.7,524.94
25.2205,488.56,524.95
25.2407,488.25,525.96
25.2605,488.4,526.57
25.2805,488.92,525.26
25.3006,489.93,527.01
25.3206,489.75,527
25.3406,490.4,527.6
25.3607,491.32,528.08
25.3806,491.25,527.87
25.4008,491.4,528.09
25.421,490.32,527.67
25.4406,491.06,528.14
25.4607,490.25,526.71
25.4807,490.6,526.57
25.5006,490.68,527.06
25.5207,490.74,527.84
25.5407,490.99,528.08
25.5607,490.6,527.46
25.5805,491.08,527.77
25.6005,490.86,526.81
25.6209,490.49,526.65
25.6405,489.59,526.12
25.6607,488.87,526.3
25.6806,487.9,526.24
25.7005,487.52,523.99
25.7206,487.61,524.99
25.7405,487.29,524.59
25.7607,487.63,523.47
25.7805,487.71,522.58
25.8006,488.17,522.66
25.8208,489.53,522.53
25.8408,490.43,522.22
25.8608,490.54,521.18
25.8807,491.03,523.14
25.9004,490.63,533.32
25.9206,491.5,555.05
25.9407,491.8,584.64
25.9607,492.04,612.11
25.9806,491.83,632.09
26.0006,490.27,641.27
26.0205,490.01,641.42
26.0407,490.21,634.33
26.0607,489.57,625.47
26.0807,489.45,613.17
26.1007,487.96,602.34
26.1216,487.37,591.87
26.1414,488.1,583.3
26.1614,489.48,575.04
26.1816,489.38,567.83
26.2014,489.31,562.86
26.2216,489.24,557.89
26.2417,489.4,553.11
26.2616,489.52,550.29
26.2816,492.21,548.03
26.3016,493.57,546.43
26.3217,493.86,543.34
26.3416,494.09,540.87
26.3615,493.87,540.9
26.3816,494.09,538.52
26.4018,493.68,538.81
26.4216,493.54,535.85
26.4416,494.03,535.88
26.4617,493.83,535.11
26.4816,493.66,533.88
26.5017,493.93,533.51
26.5217,493.14,533.41
26.5416,492.71,532.52
26.5616,492.57,533.42
26.5816,493.46,530.94
26.6015,492.77,530.55
26.6217,492.21,530.64
26.6415,492.37,529.91
26.6616,492.5,529.53
26.6816,492.8,528.82
26.7015,492.44,529.66
26.7215,493.75,528.93
26.7416,493.6,528.34
26.7616,492.88,529.47
26.7817,493.7,528.18
26.8014,493.16,528.34
26.8215,493.13,528.07
26.8418,492.7,526.66
26.8617,493.16,528.33
26.8817,492.93,527.06
26.9014,492.94,529.25
26.9217,492.96,531.6
26.9416,492.16,528.88
26.9617,493.53,518.5
26.9816,492.63,493.4
27.0016,491.5,463.52
27.0217,488.6,438.42
27.0417,487.08,423.93
27.0616,485.46,417.75
27.0817,485.37,417.6
27.1015,485.7,420.08
27.1216,486.56,425.26
27.1417,487.65,433.41
27.1616,488.32,441.73
27.1816,493.25,453.98
27.2015,496.4,465.79
27.2216,499.32,475.83
27.2416,500.06,484.26
27.2616,500.65,491.61
27.2816,500.92,497.49
27.3015,499.73,502.39
27.3215,499.59,506.11
27.3416,499.27,509.09
27.3616,499.22,513.27
27.3813,498.37,516.62
27.4014,499.1,517.89
27.4216,499.08,520.32
27.4427,499.06,521.45
27.4616,497.85,521.76
27.4816,498.48,522.61
27.5018,498.58,524.09
27.5217,498.67,525.07
27.5416,498.73,526.06
27.5615,499.39,525.44
27.5823,499.11,524.56
27.6024,499.89,524.24
27.6225,499.71,523.6
27.6425,499.37,523.48
27.6626,499.29,523.18
27.6824,499.84,522.35
27.7026,499.67,523.88
27.7224,499.33,524.9
27.7426,499.47,525.92
27.7626,499.97,525.74
27.7828,499.98,525.79
27.8026,499.18,525.83
27.8226,499.75,526.07
27.8426,499.6,527.25
27.8626,500.08,527.2
27.8825,500.46,527.56
27.9027,501.77,528.25
27.9226,501.42,527.8
27.9426,501.13,527.44
27.9626,500.31,527.75
27.9826,501.04,529
28.0026,501.44,529.4
28.0226,501.35,530.32
28.0427,502.08,530.86
28.0626,502.86,531.49
28.0826,503.29,530.59
28.1024,502.43,529.07
28.1226,501.75,528.46
28.1426,501.4,528.97
28.1626,502.32,529.37
28.1826,502.45,528.5
28.2026,503.16,528.6
28.2226,503.13,528.08
28.2427,503.3,527.66
28.2626,503.44,528.53
28.2824,503.15,529.22
28.3024,503.12,529.58
28.3226,503.3,530.86
28.3427,503.64,529.89
28.3626,503.31,530.91
28.3824,503.85,530.13
28.4025,504.88,530.9
28.4224,505.3,529.92
28.4425,506.04,530.74
28.4625,505.43,530.79
28.4825,504.55,529.23
28.5024,503.84,527.99
28.5226,503.67,528.79
28.5426,503.34,529.63
28.5624,505.47,530.3
28.5824,504.98,530.04
28.6026,504.18,528.64
28.6224,503.14,527.91
28.6426,503.52,528.13
28.6626,503.01,526.3
28.6824,503.61,526.04
28.7026,503.89,526.83
28.7226,503.71,526.27
28.7425,502.97,527.21
28.7627,502.57,526.77
28.7824,502.66,526.02
28.8027,502.53,527.61
28.8225,503.22,528.29
28.8425,503.18,527.83
28.8626,502.94,528.87
28.8824,502.15,529.89
28.9026,502.12,530.11
28.9226,502.7,530.29
28.9426,502.96,531.03
28.9626,503.37,531.43
28.9827,503.09,530.34
29.0024,504.27,530.27
29.0226,504.02,530.82
29.0426,505.02,530.65
29.0627,504.81,531.12
29.0827,504.45,530.3
29.1026,504.56,531.24
29.1226,505.25,531.19
29.1426,505.2,530.95
29.1626,504.76,531.36
29.1824,504.81,531.09
29.2024,504.65,530.87
29.2226,503.92,530.1
29.2425,504.93,529.08
29.2627,505.35,528.66
29.2824,505.48,528.33
29.3026,506.18,529.26
29.3226,506.15,530.21
29.3426,506.72,530.37
29.3625,506.77,530.9
29.3824,506.42,531.12
29.4026,507.13,530.09
29.4226,506.71,530.27
29.4434,507.17,531.22
29.4637,506.53,531.38
29.4834,506.63,531.3
29.5046,506.5,531.24
29.5244,506.4,531.39
29.5455,506.52,532.71
29.5655,506.62,532.97
29.5855,506.29,533.18
29.6057,506.03,533.74
29.6256,507.63,534.19
29.6456,508.1,534.35
29.6657,507.88,534.28
29.6856,507.51,534.23
29.7056,507.4,534.58
29.7253,508.12,535.27
29.7454,507.7,535.81
29.7656,507.36,536.05
29.7857,507.89,535.44
29.8056,507.71,535.95
29.8256,507.37,535.36
29.8455,506.09,535.69
29.8655,506.88,533.95
29.8855,507.7,534.96
29.9056,508.16,535.97
29.9255,508.33,536.18
29.9455,507.06,534.74
29.9654,506.65,534.59
29.9853,506.52,534.47
30.0053,506.82,534.18
30.0254,506.45,535.74
30.0455,506.36,536.19
30.0656,506.49,533.96
30.0856,505.99,534.56
30.1056,505.19,535.85
30.1256,506.15,535.68
30.1455,505.72,535.55
30.1656,505.98,536.44
30.1856,505.98,542.55
30.2057,507.59,562.64
30.2255,510.47,591.91
30.2456,512.98,624.33
30.2654,514.38,650.46
30.2854,515.1,663.77
30.3055,512.48,663.02
30.3255,510.19,653.61
30.3455,508.15,643.89
30.3655,507.72,629.71
30.3855,506.38,617.77
30.4055,505.7,605.02
30.4254,505.56,597.01
30.4456,505.65,587.61
30.4655,504.72,579.49
30.4853,504.77,571.39
30.5056,504.02,566.11
30.5254,504.02,559.89
30.5457,503.81,555.71
30.5654,503.45,550.77
30.5854,503.16,550.42
30.6056,502.93,547.33
30.6255,502.74,543.87
30.6454,502.39,543.49
30.6655,503.12,542.99
30.6853,503.89,542.4
30.7054,504.31,542.32
30.7256,505.65,540.85
30.7455,506.52,541.28
30.7655,507.22,541.43
30.7854,507.97,540.14
30.8055,507.18,540.51
30.8256,506.94,540.41
30.8456,507.35,538.93
30.8654,506.68,537.74
30.8856,506.35,535.99
30.9055,505.48,536.4
30.9256,504.78,536.72
30.9455,504.43,536.57
30.9656,504.54,535.26
30.9854,504.83,535.21
31.0055,506.07,536.17
31.0255,505.65,536.33
31.0456,504.92,536.87
31.0656,504.74,537.29
31.0854,504.79,536.43
31.1057,504.23,537.35
31.1255,503.79,535.88
31.1455,506.23,531.9
31.1655,510.18,513.92
31.1854,513.95,488.14
31.2056,515.16,463.91
31.2255,512.53,441.93
31.2456,507.62,426.74
31.2656,505.1,422.39
31.2854,504.28,423.32
31.3055,502.82,427.05
31.3256,502.26,434.04
31.3456,502.21,441.23
31.3655,502.36,449.59
31.3854,502.89,458.47
31.4054,504.11,466.58
31.4255,503.69,474.06
31.4455,504.95,481.25
31.4655,504.36,488.8
31.4856,502.49,496.24
31.5055,502.19,502.19
31.5255,502.55,507.95
31.5455,504.04,512.36
31.5655,503.83,515.69
31.5855,504.07,519.15
31.6056,504.05,522.92
31.6255,502.84,525.74
31.6455,502.07,528.19
31.6654,502.66,528.95
31.6856,502.33,530.16
31.7056,502.46,530.53
31.7254,502.37,530.62
31.7455,503.1,530.7
31.7655,504.48,530.56
31.7856,503.78,531.85
31.8055,503.43,530.68
31.8255,502.54,530.54
31.8457,501.83,529.43
31.8654,500.87,529.55
31.8853,500.89,530.24
31.9057,501.11,530.19
31.9256,501.49,528.55
31.9456,501.39,528.84
31.9656,502.11,529.27
31.9856,501.69,530.42
32.0055,502.35,529.33
32.0255,502.88,530.07
32.0456,502.91,530.85
32.0656,502.72,531.48
32.0855,502.78,532.39
32.1055,502.62,532.51
32.1255,502.9,533.21
32.1455,502.72,533.17
32.1654,501.78,533.73
32.1856,501.82,533.79
32.2055,502.06,534.43
32.2255,501.85,534.74
32.2456,502.08,533.99
32.2657,501.86,534.2
32.2854,501.09,534.96
32.3055,500.47,534.57
32.3254,499.38,534.45
32.3454,499.7,533.56
32.3655,500.16,534.45
32.3854,500.73,534.16
32.4055,501.78,533.33
32.4252,501.83,533.26
32.4455,501.86,532.81
32.4653,501.69,531.65
32.4854,501.75,530.72
32.5054,501.2,530.17
32.5254,501.56,530.14
32.5455,501.85,529.31
32.5655,502.68,530.65
32.5856,503.94,531.52
32.6055,504.15,531.62
32.6256,503.52,532.29
32.6455,503.42,533.23
32.6654,502.54,532.99
32.6852,502.03,533.99
32.7057,501.02,533.79
32.7255,500.42,533.23
32.7455,499.73,533.39
32.7655,500.19,533.31
32.7855,500.75,534.45
32.8055,500.4,534.16
32.8255,499.32,534.13
32.8456,498.86,534.1
32.8655,498.68,535.08
32.8855,497.35,534.46
32.9054,496.68,534.37
32.9255,498.34,534.5
32.9454,498.47,534.2
32.9654,498.98,534.16
32.9855,497.78,532.53
33.0055,496.63,533.42
33.0254,496.1,533.14
33.0455,495.88,533.31
33.0656,495.1,533.25
33.0855,495.08,533.2
33.1055,495.67,533.96
33.1255,495.53,532.97
33.1456,495.83,532.37
33.1654,497.66,532.7
33.1853,498.73,533.16
33.2056,499.38,532.33
33.2255,500.31,532.66
33.2455,501.25,533.13
33.2654,502,533.1
33.2854,502,533.28
33.3055,502.6,531.83
33.3254,502.28,532.86
33.3455,502.22,532.29
33.3654,501.98,532.83
33.3855,500.18,532.06
33.4055,499.55,531.85
33.4255,499.24,531.68
33.4455,498.79,531.75
33.4653,498.63,531.2
33.4854,497.91,532.16
33.5054,496.92,531.93
33.5253,497.14,531.74
33.5455,496.71,531.39
33.5654,495.57,531.11
33.5854,496.26,531.89
33.6054,496.8,530.51
33.6254,497.24,530.61
33.6455,497.19,529.89
33.6655,498.16,529.91
33.6855,497.92,530.13
33.7055,498.14,531.1
33.7254,497.51,530.88
33.7455,497.01,530.71
33.7654,496.41,531.96
33.7854,495.93,531.37
33.8055,497.14,531.3
33.8254,497.91,531.04
33.8456,498.13,530.63
33.8655,498.1,529.7
33.8856,496.68,529.16
33.9055,495.95,529.93
33.9254,495.56,531.54
33.9454,496.05,531.24
33.9657,496.24,531.59
33.9855,495.99,532.07
34.0055,496.79,532.26
34.0255,496.43,532.81
34.0455,497.55,532.04
34.0653,498.04,531.44
34.0854,497.23,531.55
34.1054,497.98,531.04
34.1254,497.39,531.43
34.1455,497.51,530.94
34.1653,496.61,529.96
34.1855,496.09,527.56
34.2055,495.47,525.25
34.2252,495.78,533.6
34.2455,496.02,554.28
34.2654,497.02,583.62
34.2855,498.01,615.3
34.3055,498.81,639.24
34.3254,497.85,653.39
34.3454,495.68,658.51
34.3654,494.74,654.61
34.3854,493.59,645.49
34.4054,492.68,633.39
34.4254,492.74,620.51
34.4454,491.79,606.41
34.4653,491.03,595.13
34.4855,490.03,583.9
34.5055,490.42,576.12
34.5254,490.94,571.5
34.5455,489.75,565
34.5653,492.4,561.2
34.5855,493.72,556.56
34.6053,495.18,554.25
34.6254,494.94,550.8
34.6455,494.55,547.84
34.6652,495.04,545.27
34.6853,494.63,543.22
34.7053,494.31,539.77
34.7253,493.65,539.02
34.7463,492.72,539.41
34.7663,492.37,538.33
34.7866,492.5,537.07
34.8064,493.6,537.85
34.8263,493.28,536.68
34.8464,494.82,536.95
34.8664,495.46,536.16
34.8864,495.37,536.33
34.9064,494.29,535.86
34.9264,493.23,534.69
34.9464,492.59,534.95
34.9663,491.87,535.36
34.9863,491.1,535.09
35.0064,490.08,533.87
35.0265,490.26,532.5
35.0466,490.41,533.6
35.0663,490.33,532.68
35.0864,490.06,534.14
35.1064,489.25,534.11
35.1264,489.2,535.69
35.1464,489.36,537.95
35.1662,490.29,541.56
35.1863,491.03,540.05
35.2063,491.42,527.44
35.2264,490.94,502.35
35.2465,489.15,471.28
35.2663,487.52,446.23
35.2865,486.42,430.78
35.3065,484.93,423.62
35.3265,485.15,421.5
35.3464,484.32,423.8
35.3666,484.45,427.44
35.3863,484.76,434.55
35.4064,485.61,441.44
35.4264,486.09,449.75
35.4465,484.47,455.6
35.4664,484.18,460.88
35.4863,482.74,467.31
35.5064,483.99,473.24
35.5265,484.19,479.2
35.5464,484.16,483.96
35.5664,485.12,489.37
35.5863,485.9,494.09
35.6064,486.92,498.67
35.6264,487.34,504.74
35.6464,487.47,508.99
35.6663,487.77,512.39
35.6865,488.82,513.71
35.7063,489.86,516.97
35.7273,490.08,518.98
35.7473,490.27,519.58
35.7673,490.81,520.47
35.7884,490.65,521.57
35.8084,490.52,522.86
35.8284,491.02,524.89
35.8483,491.61,525.91
35.8685,491.29,525.73
35.8884,490.83,525.18
35.9083,491.07,525.95
35.9284,490.85,526.56
35.9485,491.28,526.45
35.9683,491.23,526.36
35.9884,490.98,526.88
36.0084,490.38,526.71
36.0285,490.91,526.37
36.0481,490.33,526.29
36.0683,489.86,526.23
36.0883,490.29,526.39
36.1083,489.83,526.51
36.1285,489.26,526.21
36.1492,489.61,526.97
36.1694,489.89,527.57
36.1893,490.11,527.86
36.2092,490.69,527.49
36.2295,490.15,527.79
36.2492,490.72,528.23
36.2693,491.18,528.39
36.2893,491.14,527.71
36.3095,490.91,527.17
36.3293,491.93,526.93
36.3493,491.14,526.55
36.3693,491.32,526.24
36.3904,491.25,527.19
36.4103,490.4,526.95
36.4313,491.32,526.36
36.4512,491.66,526.89
36.4723,492.33,526.51
36.4924,492.06,527.21
36.5123,493.25,527.77
36.5322,493.4,528.21
36.5523,495.12,528.97
36.5734,496.5,528.58
36.5943,498,528.86
36.6143,499,530.09
36.6343,500.2,531.07
36.6554,501.36,531.06
36.6754,502.89,531.65
36.6954,504.51,531.52
36.7152,505.41,531.81
36.7354,506.53,532.05
36.7553,507.22,530.64
36.7751,507.38,530.31
36.7952,508.1,530.65
36.8152,508.48,530.32
36.8354,508.78,530.06
36.8554,508.23,530.44
36.8753,507.98,530.16
36.8953,507.79,530.92
36.9152,509.23,531.34
36.9352,508.38,532.07
36.9552,508.71,531.86
36.9754,508.37,532.49
36.9954,508.09,533.39
37.0154,508.27,533.31
37.0354,507.82,533.45
37.0553,508.06,533.56
37.0751,509.04,533.65
37.0953,508.64,533.92
37.1155,508.31,533.73
37.1353,507.85,533.39
37.1552,507.28,532.91
37.1754,506.62,532.93
37.1954,505.9,532.94
37.2153,506.52,532.55
37.2354,505.81,532.64
37.2553,506.05,533.11
37.2754,504.84,532.69
37.2954,505.67,533.15
37.3153,505.94,532.72
37.3354,505.95,532.18
37.3557,507.36,533.14
37.3755,507.49,531.31
37.3954,507.79,530.25
37.4155,507.23,530.2
37.4352,507.19,528.76
37.4554,506.95,529.21
37.4752,507.56,529.37
37.4953,508.65,528.49
37.5153,508.72,527.99
37.5352,508.17,528.6
37.5551,508.14,528.68
37.5752,506.91,528.74
37.5954,506.73,528.99
37.6154,508.18,529.19
37.6355,509.15,529.36
37.6553,510.32,529.68
37.6754,510.85,530.35
37.6956,510.48,529.68
37.7154,508.99,530.14
37.7355,510.39,530.71
37.7554,510.31,531.37
37.7756,510.05,531.5
37.7953,509.24,532.2
37.8163,508.79,532.36
37.8363,508.63,532.89
37.8564,508.31,532.51
37.8764,507.45,531.41
37.8966,506.76,532.33
37.9163,505.8,531.26
37.9366,504.84,531.41
37.9564,504.48,531.33
37.9764,503.98,531.86
37.9963,504.78,532.69
38.0163,505.03,532.95
38.0362,505.42,530.96
38.0562,505.34,530.17
38.0766,505.47,531.14
38.0966,505.18,541.91
38.1162,504.54,566.53
38.1365,504.23,597.82
38.1564,505.59,622.86
38.1765,505.87,642.49
38.1965,506.5,649.59
38.2175,506.6,649.47
38.2376,507.08,645.18
38.2572,508.66,637.54
38.2775,507.73,628.03
38.2974,508.78,617.23
38.3174,508.03,606.78
38.3374,508.02,597.22
38.3573,506.82,588.38
38.3775,506.85,580.7
38.3975,506.28,574.16
38.4174,506.03,568.33
38.4372,505.22,563.86
38.4574,504.58,558.09
38.4776,505.26,555.07
38.4972,506.01,552.26
38.5172,506.01,549.61
38.5374,505.81,549.09
38.5573,506.44,545.67
38.5773,505.76,545.13
38.5971,506.2,545.51
38.6171,506.96,544.21
38.6372,506.37,544.36
38.6573,506.5,542.69
38.6774,505.8,541.75
38.6974,506.04,541.4
38.7175,506.43,539.72
38.7374,505.54,539.18
38.7575,504.84,539.14
38.7773,505.07,538.11
38.7974,504.05,538.49
38.8175,504.64,536.19
38.8373,505.51,536.35
38.8574,506.21,535.68
38.8773,506.77,535.95
38.8972,506.22,535.16
38.9171,505.77,536.33
38.9372,505.02,535.86
38.9577,505.21,535.49
38.9774,505.37,535.39
38.9973,505.9,528.11
39.0174,504.72,507.49
39.0373,503.77,478.99
39.0575,502.42,450.59
39.0773,500.54,429.67
39.0974,499.63,421.34
39.1174,499.3,418.07
39.1375,498.84,419.66
39.1576,499.07,425.53
39.1776,498.06,432.02
39.1974,498.65,440.42
39.2176,498.72,448.13
39.2379,500.17,458.11
39.2576,501.54,467.69
39.2777,502.63,476.15
39.2976,503.11,484.52
39.3174,503.28,490.81
39.3375,502.63,497.05
39.3576,500.9,503.44
39.3773,500.92,507.35
39.3972,502.54,510.48
39.4174,502.23,513.79
39.4375,502.38,515.63
39.4572,501.91,517.5
39.4772,501.53,519.4
39.4972,502.02,519.72
39.5172,502.62,521.58
39.5371,502.89,522.26
39.5574,502.71,523.81
39.5772,502.17,525.25
39.5971,502.34,527.2
39.6174,501.87,528.36
39.6372,502.5,529.49
39.6574,503,529.99
39.6774,503,530.19
39.6972,503.4,529.95
39.7174,503.32,530.56
39.7372,503.25,530.25
39.7573,503,528.6
39.7771,504.4,528.68
39.7974,503.92,528.34
39.8174,504.34,528.68
39.8374,503.07,528.74
39.8574,502.86,529.79
39.8774,501.09,530.63
39.8975,501.07,531.31
39.9174,499.85,531.05
39.9374,499.28,530.84
39.9571,499.43,530.47
39.9771,499.54,530.38
39.9973,499.23,530.9
40.0172,498.39,530.92
40.0383,497.71,531.14
40.0582,498.17,530.31
40.0782,498.73,530.25
40.0986,498.19,530.4
40.1183,497.55,530.32
40.1391,496.24,530.65
40.1597,494.79,531.12
40.1792,494.43,530.7
40.1992,494.35,530.56
40.2204,493.48,529.65
40.2405,492.78,529.12
40.2605,492.03,528.69
40.2805,492.42,529.76
40.3005,491.74,529.8
40.3208,491.39,530.24
40.3408,490.91,530.19
40.3606,490.73,530.76
40.3804,490.78,531.6
40.4002,490.83,530.48
40.4205,491.26,530.99
40.4406,491.41,530.99
40.4603,490.93,530.19
40.4803,490.54,530.35
40.5004,491.23,529.48
40.5205,491.19,529.59
40.5403,490.15,529.67
40.5604,490.12,529.14
40.5805,489.5,529.31
40.6003,489.8,529.25
40.6204,490.44,527.8
40.6403,490.15,528.84
40.6605,489.72,529.07
40.6805,489.18,529.06
40.7002,488.74,530.44
40.7205,488.19,529.56
40.7403,488.15,530.64
40.7604,487.72,531.52
40.7805,486.78,531.41
40.8008,487.82,530.13
40.8204,487.86,530.5
40.8403,489.09,531.2
40.8604,491.07,530.36
40.8804,491.86,529.09
40.9003,491.48,529.47
40.9215,491.39,528.98
40.9418,491.71,528.18
40.9615,492.17,526.75
40.9813,491.93,526.8
41.0013,491.55,526.44
41.0217,490.84,526.35
41.0412,489.87,526.88
41.0614,489.7,527.7
41.0814,489.36,526.96
41.1014,488.49,526.77
41.1215,488.79,527.02
41.1421,488.83,526.61
41.1621,487.66,526.69
41.1823,488.33,525.75
41.2025,487.67,526
41.2226,487.93,526.8
41.2423,488.55,525.84
41.2635,489.04,524.27
41.2833,488.63,525.42
41.3034,489.3,525.13
41.3233,488.84,525.31
41.3433,487.87,526.45
41.3633,486.7,526.16
41.3832,486.76,526.13
41.4032,487.01,525.7
41.4234,487.61,526.36
41.4435,487.28,526.29
41.4631,486.83,525.83
41.4831,486.86,524.86
41.5033,487.69,525.29
41.5233,487.95,524.83
41.5435,488.16,525.27
41.5632,488.73,526.01
41.5832,488.98,526.01
41.6031,489.59,526.01
41.6234,489.67,527.01
41.6434,491.14,526.21
41.6636,492.91,525.76
41.6832,492.53,526.41
41.7041,490.82,526.33
41.7237,490.66,527.06
41.7431,491.13,526.85
41.7636,490.7,526.28
41.7835,490.16,526.02
41.8045,489.93,527.02
41.8246,489.74,526.82
41.8443,489.79,526.25
41.8641,490.44,526.4
41.8841,490.55,524.52
41.9041,492.04,524.62
41.9243,492.43,524.89
41.9444,492.54,524.32
41.9642,492.64,525.65
41.9843,493.51,525.92
42.0043,493.41,526.74
42.0241,494.13,528.39
42.0443,493.1,528.71
42.0643,493.08,528.77
42.0843,492.66,528.42
42.1044,493.33,528.13
42.1243,492.87,527.51
42.1441,492.49,527.2
42.164,492.99,527.16
42.1842,493.19,527.53
42.2044,494.76,527.42
42.2242,496,526.74
42.244,495.8,525.19
42.2644,494.44,523.75
42.2842,493.55,523.8
42.3044,493.04,527.44
42.3246,493.43,538.35
42.3445,492.55,553.48
42.3645,492.44,575.39
42.3843,494.15,597.71
42.4042,495.12,613.77
42.4251,495.7,623.41
42.4446,495.56,625.73
42.4641,495.05,622.38
42.4841,494.84,615.11
42.5043,495.67,604.49
42.5245,496.74,595.19
42.5443,497.39,584.35
42.5642,498.51,577.08
42.5843,499.01,567.46
42.6043,499.01,560.77
42.6244,498.21,553.62
42.6445,497.96,554.69
42.6645,497.77,559.76
42.6844,497.02,564
42.7046,497.01,567
42.7246,495.21,564.2
42.7445,493.97,561.16
42.7643,493.98,559.53
42.7843,493.78,555.42
42.8045,493.02,553.74
42.8241,492.62,550.39
42.8442,492.7,547.91
42.8644,493.76,542.73
42.8843,493.81,541.98
42.9777,494.64,540.19
42.9778,495.12,539.15
42.9778,495.69,537.52
42.9778,495.95,537.62
42.9841,496.36,536.29
43.0043,496.69,535.43
43.0243,497.95,535.95
43.0442,499.36,533.36
43.0643,499.69,531.69
43.0847,499.35,532.35
43.1044,497.68,531.88
43.1243,497.35,531.9
43.1441,495.88,531.72
43.1644,494.9,529.58
43.1842,494.72,529.46
43.2046,495.78,528.17
43.2243,496.82,527.94
43.2442,497.66,528.75
43.2645,498.33,529.8
43.2841,498.86,530.64
43.3043,498.49,531.91
43.3241,497.59,532.33
43.3443,497.07,530.26
43.3645,496.26,530.21
43.3846,496.41,529.57
43.4045,495.53,529.85
43.4243,495.22,529.68
43.4443,495.78,530.55
43.4642,495.62,531.64
43.484,496.7,522.71
43.5045,497.16,509.57
43.5244,498.33,493.65
43.5442,498.46,472.12
43.5641,497.57,450.7
43.5841,497.05,432.36
43.6055,496.44,422.09
43.6251,495.96,417.47
43.6453,495.56,417.58
43.6653,496.65,422.26
43.6853,496.72,428.81
43.7054,496.98,436.05
43.7253,497.38,444.04
43.7453,499.71,453.43
43.7653,501.16,462.14
43.7854,501.93,469.92
43.8053,502.35,476.93
43.8253,503.28,482.95
43.8453,503.02,489.96
43.8655,502.82,496.37
43.8851,501.65,501.29
43.9054,501.52,506.43
43.9253,501.22,510.15
43.9453,500.97,512.12
43.9652,500.18,514.09
43.9854,499.14,516.48
44.0061,499.11,517.38
44.0256,499.89,518.7
44.0454,501.31,519.76
44.0654,502.25,521.21
44.0852,503.2,521.57
44.1055,503.96,524.45
44.1254,506.17,529.16
44.1457,508.53,533.33
44.1658,509.63,534.86
44.1853,509.1,535.29
44.2054,508.28,534.83
44.2252,507.63,535.47
44.2453,507.7,534.97
44.265,507.96,534.18
44.285,506.97,531.94
44.3051,506.37,531.95
44.325,506.9,530.76
44.345,506.92,529.81
44.365,506.74,529.05
44.3851,506.39,527.64
44.4053,506.11,526.91
44.4259,505.89,526.53
44.4453,505.91,526.62
44.4655,506.33,528.9
44.4855,506.26,533.92
44.5054,508.01,544.54
44.5256,510.61,560.83
44.5454,512.09,580.26
44.5654,513.07,597.21
44.5852,512.06,599.77
44.6052,510.64,589.61
44.6253,507.52,574.29
44.6451,505.61,556.43
44.6651,503.89,539.75
44.6852,502.71,525.6
44.7054,501.77,514.48
44.725,501.02,505.78
44.7451,500.81,500.23
44.7649,500.85,497.58
44.7851,501.08,496.26
44.805,501.46,495.81
44.825,501.77,497.05
44.8454,501.62,497.84
44.8662,501.69,501.07
44.8869,501.15,503.66
44.9072,502.12,506.33
44.927,503.1,508.06
44.9473,503.08,511.05
44.967,503.86,514.24
44.9871,505.09,516.59
45.0072,505.27,517.87
45.027,506.02,519.5
45.0473,507.81,521.8
45.0673,508.85,523.24
45.0872,510.08,524.79
45.1071,509.67,526.43
45.1271,508.13,527.95
45.1472,506.71,529.36
45.1671,506.56,531.09
45.1872,506.65,532.27
45.2071,506.52,532.41
45.2272,507.22,532.93
45.2471,507.17,532.75
45.2671,507.14,532
45.2872,507.11,532.4
45.3072,506.89,532.52
45.327,506.91,532.41
45.3472,506.33,533.33
45.3672,505.66,533.47
45.3871,506.13,534.37
45.4071,506.1,534.9
45.4271,505.88,535.72
45.4473,505.91,535.37
45.4671,506.93,535.5
45.4872,507.14,536.2
45.507,506.71,534.96
45.527,506.57,535.17
45.547,507.06,534.93
45.5671,506.24,534.75
45.5871,506.2,533.8
45.6072,505.96,533.44
45.6271,506.17,533.55
45.647,506.93,532.84
45.6671,506.95,533.27
45.687,507.36,532.42
45.7071,506.69,533.13
45.7272,506.75,534.11
45.7483,506.4,534.29
45.768,506.12,533.63
45.7883,506.1,534.7
45.8082,506.28,534.96
45.8282,506.02,534.97
45.8483,506.02,534.38
45.8681,506.41,534.9
45.888,506.33,535.92
45.9081,506.26,535.94
45.9282,505.81,536.35
45.9481,505.85,535.68
45.9681,505.28,534.54
45.9916,505.22,533.63
46.0082,504.58,533.51
46.029,504.86,533.41
46.049,504.89,531.33
46.0693,504.91,531.86
46.089,504.73,531.89
46.1093,503.38,533.11
46.129,503.31,532.89
46.1493,503.05,533.71
46.1701,502.04,532.77
46.1903,500.63,533.61
46.211,500.9,533.49
46.231,500.72,533.59
46.2511,500.98,533.47
46.271,500.98,533.38
46.2911,500.79,533.5
46.311,500.03,532.8
46.332,500.22,532.84
46.353,498.58,533.27
46.3731,496.66,532.82
46.3933,494.73,532.26
46.413,494.38,531.8
46.4331,494.31,532.44
46.4532,493.65,532.95
46.4732,492.52,531.76
46.4931,492.21,530.81
46.5132,491.57,528.85
46.533,491.26,529.08
46.5529,491.81,526.26
46.5729,491.84,525.61
46.593,490.88,523.49
46.6129,490.3,521.99
46.6331,490.64,521.99
46.6533,490.71,521.99
46.673,490.17,528.4
46.6932,491.74,542.92
46.713,492.99,568.33
46.733,493.39,589.87
46.7531,494.11,607.29
46.7732,493.49,617.83
46.7931,492.79,622.47
46.8131,492.03,622.57
46.8332,491.43,618.46
46.8531,490.54,612.37
46.873,489.23,606.49
46.8929,488.79,599.2
46.913,489.23,595.76
46.9332,488.58,588.4
46.953,488.27,583.92
46.973,489.61,581.54
46.993,490.69,576.63
47.014,490.75,572.31
47.034,491.2,565.64
47.0541,491.76,562.32
47.0739,491.01,559.45
47.094,490.21,554.96
47.114,489.17,550.97
47.1338,489.53,547.98
47.1541,490.23,544.38
47.174,490.58,544.7
47.194,490.26,542.76
47.2141,490.61,540.61
47.234,491.09,538.89
47.2542,491.07,536.91
47.274,491.66,535.33
47.2942,492.13,534.86
47.314,491.5,535.89
47.3342,491.2,534.51
47.3541,490.36,534.41
47.3741,490.09,533.93
47.3941,489.67,534.54
47.4141,488.14,534.03
47.4341,487.11,532.63
47.4541,487.49,531.5
47.4741,487.99,532.2
47.4941,488.99,531.16
47.5141,489.19,531.73
47.534,489.35,531.38
47.5541,489.28,530.91
47.5739,488.43,531.13
47.5941,488.74,530.7
47.6141,488.39,529.76
47.634,487.51,530.21
47.655,487.61,529.97
47.675,487.49,527.77
47.695,487.19,526.82
47.7149,487.75,527.85
47.7349,488.2,528.28
47.7551,489.36,529.83
47.7752,489.69,529.86
47.795,489.55,530.29
47.816,489.84,531.03
47.8371,490.87,530.03
47.857,492.3,531.62
47.8771,492.04,532.1
47.8971,491.43,532.28
47.9171,490.14,535.62
47.9371,490.72,531.9
47.9571,491.37,518.92
47.9771,491.1,499.73
47.9973,490.48,472.19
48.0169,489.18,446.95
48.0369,488.35,428.76
48.0581,489.08,418.81
48.0782,489.66,416.85
48.0981,490.73,419.68
48.1179,491.18,425.14
48.1382,491.95,431.91
48.1581,492.16,440.13
48.1781,492.13,447.7
48.198,493.9,453.76
48.2181,496.32,458.01
48.2381,497.06,464.21
48.2581,496.45,470.97
48.278,495.96,477.17
48.2979,496.76,482.74
48.318,497.81,487.79
48.3381,497.65,492.03
48.3581,498.12,496.43
48.3781,498.7,500.14
48.3982,499.36,504.11
48.4182,497.09,508.49
48.438,495.67,511.99
48.4582,494.73,514.99
48.4781,494.19,518.2
48.498,494.35,520.56
48.5181,493.28,521.84
48.5378,492.42,522.68
48.5581,492.54,523.34
48.5778,492.43,526.27
48.5981,491.95,527.02
48.6179,492.16,527.41
48.638,492.32,528.53
48.6581,492.86,528.83
48.6781,492.89,529.06
48.6982,493.91,529.65
48.7181,495.33,528.52
48.7381,494.86,529.81
48.7581,494.49,529.05
48.7781,494.59,529.84
48.7981,495.27,530.67
48.818,495.62,531.54
48.8381,496.3,531.43
48.8581,497.44,531.94
48.8789,498.55,532.56
48.899,498.84,532.84
48.919,499.67,532.88
48.939,499.54,532.3
48.9589,499.23,531.84
48.9789,499.18,532.27
48.9989,500.35,532.82
49.0191,501.48,532.85
49.0389,501.58,532.88
49.0591,501.27,532.51
49.079,500.01,533.21
49.0989,500.01,532.76
49.119,500.41,532.21
49.1391,501.33,530.57
49.1591,501.46,530.46
49.1791,500.97,530.16
49.199,500.58,530.33
49.219,500.66,530.27
49.2391,499.93,530.21
49.2591,500.14,528.97
49.2791,500.51,529.18
49.2989,501.41,529.34
49.319,501.33,529.67
49.3391,501.26,528.34
49.3589,501.41,529.67
49.3789,502.53,529.14
49.3989,502.02,528.31
49.4192,502.02,527.85
49.439,502.21,527.68
49.4591,501.97,527.34
49.4791,501.98,526.87
49.4991,502.98,525.3
49.5191,502.19,525.64
49.5391,501.95,526.31
49.5591,501.36,526.05
49.5788,501.89,527.04
49.5991,501.51,528.23
49.6191,502.01,528.59
49.6391,501.61,529.07
49.6589,502.08,529.65
49.679,502.07,529.72
49.699,501.45,528.18
49.719,502.56,529.54
49.739,501.05,529.63
49.759,501.04,530.31
49.7791,501.23,531.65
49.7989,501.99,531.72
49.819,501.99,531.37
49.839,501.59,531.5
49.8591,501.27,531.2
49.8791,501.02,530.36
49.8989,501.21,529.69
49.9191,501.17,529.75
49.9391,501.54,530
49.959,501.83,529.8
49.979,502.26,530.44
49.9988,502.41,530.75
50.0189,502.73,531.4
50.039,502.38,531.32
50.0592,502.51,530.46
50.079,503.01,530.97
50.0989,503.6,530.77
50.1191,503.48,530.62
50.1391,503.59,530.49
50.1589,503.67,530.8
50.1791,503.34,530.84
50.1988,503.67,530.47
50.219,503.33,530.98
50.2389,503.47,530.78
50.259,503.77,531.02
50.2791,503.42,531.42
50.2989,503.54,532.14
50.319,503.83,531.91
50.339,504.06,532.33
50.359,503.45,533.06
50.3788,503.96,533.05
50.3989,504.37,533.64
50.4191,505.69,534.11
50.439,506.56,533.89
50.459,506.44,533.51
50.479,506.96,533.61
50.4989,505.96,533.49
50.5188,506.77,533.59
50.539,507.42,532.67
50.559,507.53,533.14
50.579,507.43,534.11
50.5988,507.34,534.09
50.6191,506.27,534.27
50.6391,506.02,534.02
50.6591,506.61,534.61
50.679,505.89,533.09
50.6989,505.31,530.87
50.7191,505.05,530.5
50.7391,505.24,530.6
50.76,505.39,531.68
50.78,505.31,531.34
50.8,504.85,532.07
50.82,505.88,532.46
50.8401,505.9,532.77
50.8602,506.52,533.01
50.8801,506.42,533.21
50.9002,506.54,534.37
50.9201,503.43,534.1
50.9401,496.74,533.48
50.96,492.79,533.38
50.9801,490.64,534.1
50.9999,489.11,533.48
51.0199,488.49,534.39
51.0401,489.59,534.11
51.0598,491.47,533.69
51.0799,493.18,533.75
51.0999,494.94,533.6
51.12,496.75,533.68
51.1398,498.6,532.94
51.16,499.28,531.56
51.18,500.03,529.84
51.1999,500.42,529.28
51.2201,501.14,535.62
51.2401,501.91,550.9
51.26,504.13,570.92
51.28,504.9,589.73
51.2998,505.92,605.99
51.3199,506.74,615.79
51.3398,506.79,621.83
51.36,508.03,624.27
51.38,509.63,622.01
51.3998,508.5,618.61
51.4202,507.4,611.69
51.4399,506.92,605.35
51.46,507.34,596.88
51.48,508.67,589.3
51.4999,509.14,586.44
51.52,509.11,580.95
51.5399,508.49,575.56
51.5601,507.99,569.85
51.5801,507.19,565.48
51.5999,506.75,560.78
51.6198,506.6,557.63
51.64,506.88,554.1
51.66,506.71,551.48
51.6799,507.16,547.99
51.6998,507.93,546.99
51.72,507.35,545.19
51.74,507.28,543.35
51.76,507.62,543.68
51.7801,507.3,541.15
51.8,507.64,540.72
51.8198,506.51,540.77
51.84,507.01,539.02
51.86,507.01,538.21
51.8801,506.61,539.17
51.8999,506.88,536.94
51.92,507.31,537.35
51.94,506.85,536.48
51.9601,507.08,536.78
51.98,507.06,536.63
52,507.45,536.1
52.02,507.96,536.48
52.0398,508.37,537.39
52.06,509.49,538.31
52.08,509,538.65
52.0998,508.2,538.72
52.1202,507.76,539.37
52.14,508.01,537.7
52.1598,508.2,537.36
52.18,507.56,536.49
52.1998,507.05,536.19
52.2201,507.24,536.75
52.24,508.59,535.2
52.2599,507.27,535.56
52.28,507.22,534.85
52.2999,507.58,535.48
52.32,507.46,535.18
52.34,506.37,534.95
52.36,507.89,532.56
52.3799,507.52,520.05
52.3998,508.81,500.44
52.4199,508.05,477.55
52.4401,507.04,456.04
52.46,505.43,439.43
52.48,503.95,429.15
52.4998,503.56,424.12
52.52,502.85,424.69
52.5399,502.88,428.15
52.56,502.7,435.72
52.58,501.56,444.38
52.5998,502.65,455.3
52.6199,504.12,464.44
52.64,504.1,471.95
52.66,504.28,480.56
52.68,505.22,487.65
52.6998,505.98,492.12
52.72,506.18,498.3
52.74,506.55,503.44
52.76,507.24,508.15
52.78,507.79,512.52
52.7998,509.43,516.62
52.8199,510.54,519.09
52.84,511.04,521.07
52.86,509.43,523.06
52.88,508.54,525.65
52.8998,508.63,527.32
52.9197,508.11,528.85
52.94,508.29,529.88
52.9597,508.43,529.91
52.98,508.54,529.93
52.9999,508.03,529.34
53.021,507.83,529.47
53.041,506.66,529.78
53.061,506.33,529.22
53.081,506.46,529.98
53.101,506.37,528.98
53.121,506.3,528.39
53.1411,506.44,528.71
53.161,506.95,529.77
53.181,507.56,530.81
53.2009,507.45,530.45
53.2207,506.96,530.36
53.241,506.57,531.29
53.2609,506.05,530.43
53.2809,505.84,529.54
53.3007,505.27,529.44
53.3211,505.02,529.55
53.341,505.02,529.64
53.3609,504.41,530.11
53.381,504.33,529.89
53.4009,504.66,530.71
53.421,505.13,530.97
53.4409,504.9,530.78
53.4607,505.32,531.42
53.481,505.46,531.74
53.5009,505.97,531.59
53.521,505.77,531.87
53.541,505.62,531.3
53.561,505.5,530.44
53.5811,504.8,530.55
53.6012,505.24,530.44
53.6207,504.79,529.75
53.641,504.63,530.6
53.6607,505.11,530.28
53.6808,505.08,529.62
53.7008,504.27,530.1
53.7211,504.41,529.88
53.7409,504.53,529.9
53.761,504.22,529.92
53.781,504.38,529.74
53.8011,504.9,529.99
53.8207,505.32,528.59
53.841,505.86,528.87
53.861,505.69,528.3
53.881,505.55,529.24
53.9009,505.64,529.99
53.921,505.71,530.79
53.941,505.97,532.23
53.961,506.58,531.99
53.981,507.26,531.19
54.0009,506.81,531.95
54.021,506.05,530.96
54.041,507.04,530.57
54.061,503.23,530.26
54.0809,499.58,530.6
54.101,497.27,530.28
54.121,496.21,529.23
54.141,495.17,530.18
54.161,495.74,530.35
54.1807,496.59,531.28
54.2011,497.67,531.42
54.2209,498.34,532.34
54.241,499.07,531.27
54.2611,499.86,531.42
54.281,500.28,531.33
54.301,499.83,531.47
54.3208,498.86,531.37
54.341,499.09,529.7
54.361,499.47,529.96
54.381,499.58,530.37
54.4008,499.86,529.69
54.4209,499.69,529.15
54.4409,499.95,528.72
54.461,499.76,528.98
54.4809,499.81,529.78
54.5009,499.65,530.63
54.521,499.72,530.5
54.541,499.37,531
54.561,499.5,531.2
54.581,499.8,530.36
54.6008,499.64,530.49
54.6208,500.11,530.59
54.6409,500.69,529.07
54.6609,500.35,530.06
54.6811,499.88,530.25
54.701,500.1,531.8
54.7208,501.08,534.64
54.741,494.27,526.51
54.761,484.81,512.61
54.7809,474.05,496.29
54.8009,465.44,485.03
54.821,460.55,478.02
54.841,458.44,475.42
54.8607,458.75,475.93
54.8808,459.4,478.35
54.901,461.72,483.88
54.921,467.18,494.5
54.9409,471.74,502
54.961,475.39,507.6
54.9811,478.52,513.48
55.0009,481.21,517.79
55.0209,484.57,520.83
55.041,487.86,523.86
55.0609,490.48,525.29
55.081,492.59,526.83
55.101,494.07,528.07
55.1208,495.26,530.25
55.1407,495.8,532
55.161,495.44,532.2
55.1808,494.36,531.16
55.201,495.48,530.33
55.2209,495.79,530.46
55.2407,494.63,531.97
55.2608,495.3,533.98
55.2808,496.04,535.78
55.3009,496.43,538.02
55.3207,497.35,538.82
55.3408,498.08,541.86
55.3609,499.26,545.28
55.3808,500.01,553.03
55.4008,501.01,560.42
55.4208,501.41,563.34
55.4409,502.33,568.67
55.4609,502.66,572.94
55.4809,504.13,574.35
55.5008,504.5,576.08
55.5207,503.4,575.86
55.5408,502.92,580.49
55.5607,502.74,583.39
55.5807,501.79,592.51
55.6009,501.23,609.41
55.6209,502.19,641.33
55.6409,503.55,670.86
55.6607,506.44,685.09
55.6809,508.35,689.87
55.7009,508.48,686.5
55.7207,506.78,674.2
55.7408,505.43,655.56
55.761,503.34,634.45
55.7809,502.27,611.96
55.801,501.22,589.17
