Program Time [s],data 0,data 1
5.30145,475.73,532.83
5.32141,478.58,532.27
5.34141,480.67,531.21
5.36118,481.13,530.77
5.38147,481.11,531.62
5.40141,479.89,531.49
5.42141,480.11,531.79
5.44141,481.29,530.84
5.46116,481.43,533.07
5.48148,480.74,534.45
5.50116,479.19,534.56
5.52127,479.36,536.85
5.54138,476.48,535.88
5.56141,475.39,535.7
5.58115,474.51,536.76
5.60143,474.21,537.01
5.62143,473.17,536.81
5.64137,472.33,535.65
5.66127,472.67,537.52
5.68145,472.13,537.61
5.70142,472.31,538.29
5.72141,472.45,538.43
5.74141,474.16,539.15
5.76132,475.12,539.32
5.78137,475.1,539.65
5.80141,475.88,539.72
5.82138,476.3,541.38
5.84136,477.84,541.7
5.86124,477.27,542.36
5.88135,479.42,541.69
5.90114,479.34,540.55
5.92139,480.67,540.84
5.94115,479.93,541.87
5.9613,480.35,542.1
5.98146,481.08,541.48
6.00145,482.26,541.18
6.02114,483.21,541.15
6.04129,483.97,541.52
6.06121,484.37,541.01
6.08133,484.1,541.81
6.10143,483.48,543.45
6.12115,482.18,544.76
6.14134,481.15,545.61
6.16114,480.52,544.89
6.1813,481.21,545.51
6.20134,479.77,544.41
6.22143,479.42,545.33
6.24116,479.33,545.26
6.2612,480.47,546.01
6.28122,480.77,544.81
6.3014,481.62,545.05
6.32137,482.5,544.64
6.34135,483,545.11
6.36121,483.4,545.49
6.38134,483.52,544.79
6.40141,482.41,544.23
6.42141,482.13,543.59
6.44141,483.5,544.27
6.46125,483.8,544.41
6.48136,483.24,544.73
6.50125,483.39,545.19
6.52128,483.12,545.75
6.5413,482.29,545.4
6.56115,483.63,545.52
6.58128,483.31,545.42
6.60139,483.25,544.73
6.62139,484.4,552.79
6.6413,487.32,582.03
6.66118,490.05,617.02
6.68146,494.04,653.42
6.70135,496.23,680.93
6.72118,495.59,690.35
6.74141,493.07,688.68
6.76112,490.86,681.94
6.78136,488.48,668.75
6.80126,485.39,654.6
6.82115,484.91,642.68
6.84125,484.53,625.15
6.86126,484.02,617.52
6.88126,482.82,607.21
6.90132,482.65,598.37
6.92116,481.92,591.1
6.94114,481.94,583.88
6.96123,481.55,578.9
6.98136,482.04,573.92
7.00114,485.23,567.74
7.02119,486.19,563.99
7.04112,486.95,561.19
7.06122,487.76,558.95
7.08141,488.21,554.96
7.10216,487.57,555.37
7.12217,488.05,555.7
7.14216,489.04,556.36
7.16214,488.43,555.69
7.18231,490.15,554.75
7.2023,489.52,553.2
7.22217,489.01,550.56
7.24221,488.41,549.65
7.26236,489.33,545.12
7.28237,489.66,544.49
7.30217,490.33,543.8
7.32226,491.06,548.64
7.34243,492.65,561.51
7.3623,493.72,576.61
7.3834,497.78,577.89
7.40326,497.82,555.51
7.42333,496.26,515.41
7.44311,493.41,477.73
7.46323,490.32,449.78
7.48314,488.46,431.22
7.50329,486.57,420.78
7.52319,485.45,418.62
7.5432,484.96,419.9
7.56408,485.77,424.12
7.58418,487.42,429.3
7.60424,487.73,439.24
7.62428,488.19,447.19
7.64415,488.35,454.95
7.66417,489.28,462.96
7.68426,490.62,471.37
7.70427,492.5,479.7
7.72433,493.6,486.76
7.74433,494.28,493
7.76436,494.42,498.8
7.78422,494.54,503.04
7.8043,494.23,508.63
7.82431,495.18,513.31
7.84424,496.15,517.45
7.86453,497.12,522.56
7.88434,497.09,525.25
7.90429,496.68,528
7.92427,495.94,531.4
7.94415,496.35,533.32
7.96518,496.08,535.05
7.9863,495.47,535.64
8.00638,495.77,537.71
8.02614,497.62,540.17
8.04625,497.09,541.94
8.06641,496.68,543.75
8.08607,496.74,544.2
8.10632,497.19,546.56
8.1263,495.75,547.05
8.14612,495.8,547.04
8.16629,494.84,544.43
8.18608,494.07,545.54
8.20615,494.06,545.64
8.22632,492.25,545.51
8.24618,491.2,546.41
8.26625,491.36,546.33
8.28626,491.29,547.06
8.30624,493.23,546.85
8.32625,494.78,548.48
8.34615,495.23,547.18
8.36633,495.98,547.35
8.38628,495.59,546.28
8.40631,496.27,547.02
8.42619,496.01,545.82
8.44616,496.21,545.05
8.46613,495.97,544.44
8.48728,493.98,544.15
8.50726,492.98,543.12
8.52715,492.18,542.5
8.5481,490.95,544
8.56806,488.96,545.6
8.58828,488.77,546.08
8.60814,489.81,546.06
8.62812,489.65,546.65
8.64816,491.12,545.52
8.66827,491.5,546.42
8.68826,491.2,544.93
8.70827,490.36,545.15
8.72838,490.09,544.32
8.74812,490.07,544.65
8.76825,490.86,544.92
8.7883,490.08,545.14
8.80826,489.87,545.11
8.8281,490.09,544.49
8.84828,489.08,544.99
8.86816,488.46,543.79
8.88828,488.57,544.23
8.90831,488.65,544.39
8.92843,488.32,544.51
8.94832,488.06,543.81
8.96817,487.85,545.25
8.98825,488.88,546
9.00816,488.7,545.2
9.02849,488.36,545.96
9.04835,488.69,545.97
9.0682,489.15,545.77
9.0882,489.12,545.02
9.10831,488.5,545.61
9.12835,488.2,545.69
9.14925,487.56,545.55
9.16926,487.85,545.64
9.18916,485.88,545.71
9.2091,486.1,545.17
9.22924,485.28,544.34
9.24916,486.23,544.87
9.2693,486.38,544.5
9.28926,484.9,544
9.30948,484.52,545.2
9.32938,483.22,544.56
9.34912,482.97,544.05
9.36907,483.18,542.84
9.38927,483.54,543.47
9.40931,482.64,543.78
9.42938,482.31,543.42
9.44931,481.65,542.54
9.46909,483.52,542.43
9.4892,483.21,542.54
9.50916,483.77,542.43
9.52929,483.22,541.75
9.54925,482.37,541.8
9.5692,482.3,541.24
9.58923,483.04,541.19
9.60915,483.43,541.55
9.62917,483.14,541.44
9.64904,482.92,540.75
9.66918,482.93,539.8
9.68923,481.95,540.04
9.70939,480.96,540.63
9.72915,479.97,540.91
9.74922,479.57,540.93
9.76928,479.86,540.14
9.78913,479.09,541.11
9.80925,480.27,540.69
9.82913,481.02,551.75
9.84918,480.61,576.8
9.86929,481.89,604.24
9.88928,484.11,629.99
9.9093,485.89,646.59
9.92916,487.51,652.08
9.94919,488.81,652.46
9.96928,488.45,645.57
9.98932,488.96,636.65
10.0093,487.57,627.92
10.0292,487.25,615.14
10.0502,487,606.31
10.0713,483.8,593.65
10.0913,481.44,590.72
10.1112,479.15,585.78
10.1313,478.12,580.62
10.1513,476.3,575.9
10.1712,476.84,570.72
10.1913,475.87,565.97
10.2111,476.9,563.78
10.2314,476.12,559.42
10.2512,476.29,559.14
10.2713,476.04,559.91
10.2913,475.63,557.13
10.311,475.7,555.9
10.3313,476.96,559.72
10.3513,478.57,564.78
10.3713,478.66,565.62
10.3911,479.12,565.7
10.4111,477.7,565.36
10.4311,477.16,563.29
10.4512,475.73,561.63
10.4712,475.78,559.5
10.4913,475.43,556.8
10.5111,475.34,554.44
10.5311,476.67,552.55
10.5513,476.74,552.04
10.5713,476.99,550.83
10.5913,477.39,550.67
10.6111,477.11,556.53
10.6312,476.49,564.63
10.6513,475.19,562.5
10.6713,472.15,538.6
10.6912,467.52,500.48
10.7111,464.02,462.18
10.7313,462.82,432.55
10.7513,461.25,419.44
10.7712,461.2,414.55
10.7913,461.36,413.64
10.8111,462.69,417.51
10.8313,464.35,422.81
10.8513,465.68,432.05
10.8713,466.74,441.84
10.8911,468.6,449.87
10.9112,470.48,458.9
10.9311,472.58,467.32
10.9513,473.27,475.65
10.9713,472.61,482.12
10.9913,473.69,490.1
11.0111,473.95,496.48
11.0313,475.36,502.18
11.0513,474.69,507.15
11.0711,475.55,511.72
11.0913,476.84,516.37
11.1113,477.27,520.7
11.1314,478.22,524.36
11.1513,479.37,527.69
11.1713,478.1,528.95
11.1911,477.68,532.16
11.2112,475.94,532.13
11.2312,474.76,533.1
11.2511,474.8,535.68
11.2712,476.24,536.95
11.2913,475.19,537.76
11.3121,474.96,536.81
11.3322,474.76,537.64
11.3522,474.61,538.12
11.3723,474.89,539.09
11.3922,475.31,539.27
11.4124,475.85,539.02
11.4324,475.48,538.02
11.452,474.58,538.41
11.4722,473.47,537.53
11.4921,473.57,536.02
11.5124,474.06,537.42
11.5321,474.45,537.34
11.5523,474.56,537.47
11.5722,475.05,537.57
11.5922,476.84,539.06
11.6124,476.27,542.05
11.6323,475.82,542.24
11.6522,475.05,542.99
11.6727,475.44,543.79
11.6922,475.95,544.03
11.7123,476.36,543.63
11.7323,475.49,542.5
11.752,474.59,541.2
11.7721,474.07,541.96
11.7923,475.46,540.97
11.8125,475.77,540.18
11.8321,475.61,539.14
11.8523,476.09,538.71
11.8722,475.87,538.57
11.8922,476.1,538.66
11.9124,475.08,538.52
11.9322,475.06,539.42
11.9523,475.05,539.74
11.9722,475.64,540.19
11.9922,475.51,539.55
12.0122,475.21,539.04
12.032,475.17,538.63
12.0522,474.73,537.11
12.0723,476.19,535.68
12.0922,475.95,535.35
12.1123,476.16,536.08
12.1323,475.13,537.26
12.1522,475.9,537.41
12.1723,475.32,538.13
12.1922,475.86,540.5
12.2124,475.69,542.4
12.2323,476.15,543.32
12.2522,477.32,543.86
12.2723,477.66,544.29
12.292,477.72,543.23
12.3121,477.38,542.58
12.3322,476.7,541.47
12.3522,477.56,540.97
12.3721,476.65,540.38
12.3923,475.32,540.1
12.4124,476.66,539.88
12.4322,476.72,539.91
12.4523,476.58,540.92
12.472,476.06,539.74
12.4922,477.25,539.39
12.512,476.8,538.51
12.532,477.84,540.21
12.5521,477.87,539.97
12.5721,477.3,538.77
12.5923,478.04,537.02
12.6123,477.43,537.02
12.6322,477.54,535.81
12.652,477.44,536.25
12.6721,477.55,536.2
12.6922,476.84,535.36
12.712,476.27,535.69
12.7323,476.02,536.35
12.7521,476.21,536.68
12.7723,475.77,537.54
12.7922,477.62,537.84
12.812,477.49,537.87
12.8322,477.79,537.09
12.8522,476.84,537.68
12.8721,477.07,538.74
12.8923,478.65,539.19
12.9122,477.72,540.35
12.9322,477.58,541.68
12.9522,478.66,542.55
12.9723,477.73,542.64
12.992,477.78,542.51
13.0122,477.03,542.61
13.0339,477.42,542.29
13.0523,477.54,542.43
13.0721,476.83,541.54
13.0923,475.86,541.63
13.1121,476.09,541.71
13.1323,476.47,541.17
13.1523,476.18,540.73
13.1722,475.74,541.19
13.1923,475.59,540.35
13.2123,477.08,539.88
13.2322,476.86,538.9
13.2523,477.09,539.32
13.2722,477.47,538.46
13.2923,477.38,537.37
13.3122,478.5,539.09
13.3322,479.2,538.07
13.3521,480.36,538.46
13.3722,480.09,539.77
13.3922,479.07,539.01
13.4123,478.86,539.41
13.4322,480.29,540.73
13.4522,480.83,540.98
13.4722,480.46,540.79
13.4922,480.17,541.83
13.5123,480.54,541.86
13.532,481.83,542.49
13.5522,481.86,541.59
13.5721,481.89,541.27
13.5921,481.71,540.82
13.6122,482.57,540.46
13.6321,482.46,538.96
13.6522,483.76,539.57
13.6721,482.81,536.46
13.6923,482.05,540.57
13.7123,482.84,559.45
13.7321,483.67,583.96
13.752,483.94,618.97
13.7722,485.35,641.98
13.7921,486.88,655.78
13.8124,487.3,667.82
13.832,487.64,667.66
13.8522,485.31,663.33
13.8722,486.05,660.46
13.8921,486.04,655.97
13.912,486.83,645.38
13.9324,486.67,638.3
13.9523,487.13,627.84
13.9722,486.31,620.07
13.992,486.05,616.26
14.0121,486.24,609.41
14.032,486.79,601.53
14.0521,486.63,595.82
14.072,485.7,592.86
14.092,485.96,587.68
14.112,485.97,584.35
14.1321,485.18,581.88
14.152,483.94,579.1
14.1721,485.15,579.68
14.1922,485.12,571.95
14.2123,485.1,567.16
14.2322,485.28,565.93
14.2522,484.02,563.34
14.2719,483.82,561.27
14.2922,484.45,558.62
14.3121,484.36,558.09
14.3321,483.89,550.88
14.3522,483.71,550.9
14.3722,482.77,552.12
14.3922,483.42,551.5
14.412,484.53,551
14.4322,485.03,547.4
14.4521,484.62,547.12
14.472,484.9,552.49
14.4922,486.12,561.2
14.5124,488.29,564.76
14.532,488.64,556.61
14.5521,487.31,525.48
14.5722,483.85,482.39
14.5922,480.88,446.51
14.612,478.5,424.61
14.6322,476.4,413.49
14.6522,474.52,409.99
14.6722,473.62,411.99
14.6922,473.49,416.79
14.7123,475.19,421.43
14.7323,476.76,430.35
14.7522,477.2,439.68
14.7721,479.76,446.54
14.7922,481.01,450.63
14.8122,481.41,457.51
14.8321,480.93,465.81
14.852,481.74,473.04
14.8722,481.99,480.64
14.8922,483.59,487.31
14.9122,483.48,494.45
14.9322,483.98,499.96
14.9521,484.78,504.37
14.9722,484.23,507.89
14.992,485.58,513.11
15.012,486.07,516.49
15.0321,486.25,520.19
15.0522,485.8,522.95
15.0722,486.64,525.76
15.0922,486.51,527.21
15.112,486.21,530.97
15.1321,486.77,532.97
15.1522,488.01,534.58
15.1722,488.01,535.06
15.1921,486.61,536.05
15.2121,486.69,537.84
15.2321,487.95,538.07
15.2522,488.56,538.06
15.2722,488.05,539.45
15.2922,488.04,538.36
15.3121,488.23,537.69
15.3322,487.78,537.95
15.3522,488.43,538.76
15.3721,488.74,538.81
15.3921,488.99,539.65
15.4121,489.19,538.52
15.4322,489.36,538.01
15.4521,488.88,537.21
15.4721,489.31,536.37
15.4921,489.05,537.49
15.512,490.84,536.4
15.5322,491.47,537.72
15.5522,491.18,537.57
15.5721,490.34,538.26
15.5919,490.87,538.01
15.612,490.1,539.01
15.632,490.08,539.4
15.6522,489.26,539.72
15.6721,489.21,538.98
15.6921,490.17,538.98
15.712,490.93,541.99
15.7322,491.35,541.39
15.7521,491.88,541.51
15.7722,491.7,543.21
15.7922,492.36,543.97
15.8122,492.89,544.37
15.8321,493.51,544.1
15.852,493.41,542.88
15.8721,492.73,541.7
15.8921,493.18,542.96
15.912,493.35,542.77
15.9321,494.08,543.62
15.9522,493.66,542.69
15.9721,494.53,544.15
15.992,494.82,543.72
16.012,492.46,544.38
16.0321,491.17,543.5
16.0521,490.93,542.6
16.0721,490.55,542.28
16.0921,489.84,541.23
16.112,489.87,541.38
16.1321,490.5,541.1
16.1521,490.4,542.68
16.1722,490.72,542.15
16.1921,492.17,542.72
16.2121,492.34,543.37
16.2321,491.87,544.1
16.2522,491.9,543.48
16.2732,492.32,543.38
16.2932,492.05,543.11
16.3132,491.64,544.09
16.3332,492.11,545.47
16.3531,493.49,545.77
16.3731,494.79,545.62
16.393,493.83,544.9
16.413,493.87,545.32
16.433,493.69,545.45
16.453,493.56,544.16
16.473,494.84,544.73
16.4931,494.08,543.38
16.513,494.26,543.91
16.5331,494.21,542.93
16.5532,495.97,542.14
16.573,495.77,542.31
16.5931,495.62,542.45
16.613,495.09,542.56
16.6331,495.08,541.05
16.6529,494.86,540.84
16.6731,494.09,542.07
16.693,495.07,541.06
16.7132,494.26,540.45
16.733,495.01,538.76
16.7531,495.4,539.6
16.7731,495.92,540.08
16.7931,495.34,540.67
16.8132,495.07,539.53
16.8329,494.66,539.83
16.8531,495.53,538.86
16.8731,496.22,537.69
16.8929,494.98,538.35
16.9131,494.98,539.08
16.9331,494.78,538.46
16.9531,495.63,538.97
16.973,495.3,538.58
16.993,494.84,538.26
17.0132,494.67,539.01
17.033,494.34,537.21
17.0531,493.67,537.97
17.073,495.14,537.97
17.0931,494.91,538.78
17.1131,494.53,541.02
17.133,495.22,540.42
17.1531,495.78,540.73
17.1731,496.82,541.19
17.1929,497.46,541.35
17.2131,498.37,542.48
17.2331,496.69,542.18
17.2531,497.55,542.95
17.2731,497.64,543.56
17.293,497.91,544.25
17.3129,497.13,544.8
17.3331,496.31,543.84
17.353,496.04,544.87
17.3731,497.04,544.5
17.3929,497.43,545.2
17.4131,496.94,546.76
17.4332,495.95,547.01
17.4531,494.96,546
17.473,495.37,545.2
17.493,494.3,545.36
17.5131,494.44,545.49
17.5331,496.35,546.59
17.5531,496.88,548.47
17.5732,496.9,550.98
17.593,497.72,550.98
17.6132,497.18,553.19
17.6331,497.34,555.35
17.6531,496.67,567.08
17.6731,497.74,594.66
17.693,499.59,626.33
17.7131,501.07,648.46
17.7332,501.46,660.57
17.7531,499.97,661.86
17.7731,499.57,661.09
17.7931,496.26,652.07
17.8131,496.01,643.85
17.8331,497.01,635.68
17.8531,498.6,631.35
17.8731,500.68,628.68
17.893,500.95,620.74
17.9132,501.16,613.79
17.9331,501.53,604.04
17.9531,501.02,598.03
17.9731,500.42,594.02
17.9931,500.73,587.82
18.0143,499.19,582.45
18.0341,498.15,578.96
18.0541,497.52,574.17
18.0742,496.62,572.34
18.0939,497.09,571.87
18.1139,497.47,569.1
18.1341,497.38,569.08
18.1543,497.3,569.46
18.174,496.64,565.77
18.1941,495.51,564.22
18.2142,494.61,561.37
18.2339,493.69,560.9
18.2541,493.55,559.72
18.274,493.04,557.57
18.2939,493.43,556.86
18.3142,493.55,553.89
18.334,493.04,555.31
18.3541,492.63,557.25
18.3741,493.7,557.4
18.394,492.76,556.92
18.4141,493.81,556.14
18.4342,494.85,554.11
18.4542,495.48,555.89
18.474,495.98,559.71
18.4942,494.99,556.17
18.5141,490.99,538.93
18.534,486.59,506.95
18.5541,483.27,471.36
18.574,481.42,446.29
18.594,479.33,431.83
18.6142,479.27,424.46
18.6341,479.81,424.77
18.6541,479.65,427.22
18.6739,480.92,432.57
18.6939,482.94,440.66
18.7141,484.75,449.73
18.734,485,458.38
18.754,486.2,467.91
18.7738,487.96,477.12
18.7938,489.77,485.9
18.8141,491.21,492.52
18.8341,491.97,499.42
18.8539,492.58,505.33
18.8741,492.46,511.87
18.8951,491.97,515.49
18.915,491.18,519.39
18.9351,490.74,523.12
18.9551,490.79,525.69
18.9751,491.43,528.75
18.9952,491.95,529.8
19.0152,491.36,532.44
19.0348,490.49,534.15
19.0551,491.19,534.32
19.075,491.35,536.06
19.095,491.28,538.25
19.1151,491.02,540.6
19.1351,490.82,540.68
19.155,489.86,544.94
19.1751,490.28,549.95
19.1948,490.23,553.16
19.215,490.38,554.13
19.2351,489.71,552.7
19.2551,488.56,554.36
19.2751,489.85,553.69
19.2951,490.08,553.15
19.3151,490.27,551.92
19.3352,489.41,551.14
19.3552,489.53,551.71
19.3751,489.42,550.57
19.3951,490.14,550.25
19.415,489.51,550.2
19.435,488.81,548.56
19.4551,488.65,547.25
19.4751,488.72,546.4
19.4949,488.37,545.72
19.5148,488.1,544.58
19.5351,487.28,541.66
19.555,487.42,541.93
19.575,487.74,540.74
19.5951,487.79,541.19
19.615,487.43,542.36
19.635,487.15,542.48
19.655,486.92,541.79
19.6749,486.53,541.83
19.6952,486.43,541.66
19.715,485.34,541.73
19.735,484.87,541.79
19.7551,484.1,542.43
19.775,484.68,543.74
19.795,484.34,544.39
19.815,484.67,544.12
19.8349,484.54,540.49
19.8551,484.23,535.99
19.875,484.19,535.39
19.895,484.75,532.12
19.915,484.6,532.29
19.9351,485.48,532.03
19.955,484.58,532.83
19.975,484.87,533.66
19.9953,485.29,533.73
20.0149,486.03,534.58
20.036,484.23,533.87
20.0561,482.98,533.89
20.0762,482.79,535.71
20.0959,482.03,536.97
20.116,481.22,539.58
20.136,481.18,541.66
20.1561,480.74,542.53
20.1758,480.39,542.02
20.196,480.12,543.82
20.2158,480.69,543.46
20.236,481.75,544.36
20.256,481.6,543.09
20.2759,481.68,544.47
20.296,481.15,545.38
20.3161,480.72,546.9
20.336,480.17,546.72
20.356,480.74,546.58
20.3761,481.19,546.26
20.3959,480.75,546.01
20.416,481,544.61
20.4358,481,544.29
20.456,481.8,543.23
20.4759,481.04,542.78
20.4958,479.83,542.23
20.516,479.67,544.78
20.5359,479.93,544.42
20.556,481.15,544.14
20.5761,480.72,542.91
20.596,481.37,543.73
20.6159,480.1,545.18
20.6358,480.88,543.95
20.656,480.3,544.56
20.676,479.84,544.05
20.6958,479.67,545.44
20.7161,479.14,545.35
20.7361,478.91,545.28
20.7561,478.13,544.42
20.7759,477.7,544.74
20.7961,477.96,546.79
20.816,478.17,546.63
20.836,478.94,544.91
20.856,479.75,542.53
20.8759,478.6,543.02
20.8959,478.48,542.82
20.916,478.18,543.25
20.9358,478.95,542.4
20.956,478.56,541.72
20.9761,479.05,541.98
20.996,479.04,541.98
21.0158,478.23,541.79
21.0359,477.18,542.43
21.056,477.75,541.14
21.076,477.8,540.71
21.096,477.84,541.97
21.1162,478.07,543.38
21.136,478.66,544.9
21.1558,478.73,545.92
21.176,477.78,544.54
21.1958,478.02,544.83
21.2157,477.42,542.86
21.236,478.14,543.49
21.2558,477.31,542.39
21.2758,477.65,543.31
21.296,476.72,543.85
21.3161,476.97,543.48
21.336,477.98,542.78
21.3558,478.18,542.83
21.3762,477.95,541.66
21.396,478.16,542.53
21.416,478.93,542.22
21.4358,478.54,543.18
21.456,478.03,542.74
21.4758,477.83,542.59
21.496,477.66,542.48
21.516,476.73,542.98
21.536,477.58,543.58
21.5561,477.47,544.07
21.5758,477.77,543.85
21.5959,477.62,544.48
21.616,477.69,544.79
21.636,477.56,544.83
21.656,477.84,543.46
21.6758,479.48,543.17
21.6958,480.18,550.14
21.716,478.94,567.51
21.736,477.36,590.01
21.756,475.88,608.21
21.7758,473.91,627.56
21.796,472.93,637.45
21.816,471.54,642.56
21.8361,471.03,641.45
21.856,471.43,638.56
21.8759,471.14,634.05
21.896,470.91,627.24
21.916,473.93,621.19
21.936,476.54,614.15
21.9559,477.44,604.72
21.9759,477.75,597.58
21.9958,479.6,593.86
22.016,480.08,585.89
22.036,481.06,583.31
22.056,481.45,580.05
22.0758,481.76,575.64
22.0958,483.21,573.31
22.116,483.57,571.85
22.1358,484.05,568.08
22.156,484.64,564.46
22.1759,483.31,564.17
22.1958,483.45,564.74
22.216,482.56,565.59
22.236,481.05,563.27
22.256,479.84,561.42
22.2758,479.27,562.53
22.2958,479.22,561.03
22.316,478.57,558.02
22.336,479.86,559.42
22.356,479.49,558.13
22.3758,479.39,558.31
22.3958,478.51,556.25
22.4159,477.61,555
22.436,476.69,557
22.456,478.75,567.4
22.4759,480,577.12
22.4961,479.6,574.69
22.5158,475.88,549.56
22.536,473.1,509.04
22.556,470.08,470.04
22.5759,469.67,442.03
22.596,467.53,424.62
22.6161,466.63,417.1
22.636,467.1,415.48
22.6559,467.48,417.58
22.6759,467.18,424.07
22.696,468.55,431.65
22.716,470.04,440.12
22.736,471.03,448.7
22.756,471.42,457.56
22.7758,471.74,466.25
22.796,473.99,475
22.8157,475.39,482.8
22.8361,475.71,489.84
22.8559,476.37,496.87
22.8759,476.5,502.9
22.8959,476.2,506.32
22.916,475.56,510.45
22.9358,476.25,514.76
22.9559,476.4,517.61
22.9758,477.52,522.09
22.9957,476.81,524.07
23.016,476.45,526.66
23.0357,476.56,530.53
23.0561,476.85,534.62
23.0758,477.28,538.5
23.0959,476.42,540
23.1158,476.14,541.2
23.136,476.11,542.56
23.1561,475.69,540.85
23.1759,475.55,540.08
23.1961,474.84,540.26
23.2158,474.47,539.01
23.236,474.18,539.01
23.256,473.94,539.81
23.2758,474.55,539.64
23.2958,474.24,538.92
23.316,474.39,540.13
23.3361,474.72,540.31
23.356,474.77,540.44
23.376,474.02,540.76
23.3958,473.61,540.2
23.416,472.89,538.96
23.436,472.51,540.37
23.4558,472.81,541.3
23.4769,472.85,540.84
23.4969,472.48,541.27
23.5178,473.38,541.22
23.538,474.51,541.57
23.558,475.21,539.86
23.5779,475.36,539.29
23.5978,475.69,540.43
23.618,475.95,540.14
23.638,475.76,539.91
23.6579,474.61,540.33
23.678,475.09,539.87
23.6978,475.47,538.69
23.7179,475.38,538.95
23.7379,475.1,538.96
23.7578,475.08,537.97
23.778,475.26,538.58
23.798,475.21,538.26
23.818,477.17,539.21
23.838,477.34,538.17
23.8579,478.27,536.93
23.8778,477.81,536.55
23.8978,478.65,537.64
23.9179,477.72,537.91
23.9381,477.98,537.33
23.958,477.98,537.26
23.9777,477.19,537.41
23.9981,476.75,537.73
24.0179,475.8,537.78
24.038,476.04,538.43
24.0581,474.83,537.34
24.0778,475.46,537.27
24.0979,475.77,537.22
24.1179,476.82,537.37
24.138,476.25,536.9
24.1579,476.8,537.92
24.1778,478.04,537.74
24.1979,477.03,540.99
24.2177,477.03,541.19
24.238,477.82,542.75
24.2579,478.06,542.6
24.2778,478.05,542.68
24.2979,477.84,543.15
24.3179,477.47,543.12
24.3379,477.38,542.09
24.3578,477.1,542.07
24.3777,477.08,541.86
24.3977,476.26,542.09
24.418,476.61,541.87
24.4379,477.49,540.9
24.458,478.19,541.12
24.4779,477.15,542.09
24.498,476.92,541.87
24.5181,476.54,541.7
24.5379,476.83,540.76
24.5578,476.26,540.61
24.579,476.61,541.09
24.5989,477.09,540.47
24.6189,478.27,540.78
24.639,478.82,540.82
24.6589,478.85,540.86
24.6787,479.28,538.48
24.6989,479.63,538.39
24.719,479.5,538.31
24.7389,480.8,537.85
24.759,480.24,537.08
24.7787,480.39,538.66
24.7998,481.51,539.13
24.82,483.21,539.9
24.8399,483.97,540.32
24.8598,484.58,541.66
24.8799,484.46,540.73
24.8998,484.17,541.78
24.9199,483.53,540.23
24.9398,484.63,539.98
24.96,484.5,540.58
24.9808,485.4,539.07
25.0009,486.32,538.65
25.0208,487.06,539.32
25.0408,487.85,539.26
25.0608,489.48,541.61
25.0809,490.38,545.69
25.1019,491.1,547.15
25.1219,490.68,546.92
25.1419,490.95,546.53
25.1616,491.76,545.43
25.1819,491.81,543.74
25.2019,493.24,542.19
25.2219,493.2,541.56
25.242,494.16,541.64
25.2617,494.33,541.12
25.2819,493.26,541.09
25.3019,492.81,541.27
25.3219,492.25,539.82
25.3419,491.8,539.66
25.3617,493.64,539.12
25.3819,493.71,538.9
25.4019,493.57,538.52
25.422,492.85,538.22
25.442,492.88,537.17
25.4618,492.71,537.74
25.4818,493.17,538.19
25.5031,493.33,538.35
25.5227,495.07,547.48
25.5428,496.65,572.79
25.5638,500.52,606.23
25.5839,501.82,633.58
25.6039,502.85,654.47
25.6239,504.48,658.37
25.6437,504.79,661.5
25.6638,502.63,659
25.6836,500.3,649
25.7039,499.04,644.2
25.7239,498.83,635.16
25.7437,498.47,627.33
25.7638,497.37,621.46
25.7841,496.7,614.97
25.8037,497.16,609.38
25.8237,498.33,601.1
25.8438,499.06,590.08
25.8638,499.25,589.06
25.8839,498,586.25
25.904,497,581.6
25.9239,497.6,579.88
25.9441,496.08,576.3
25.9639,495.46,574.24
25.9839,494.57,570
26.0039,494.66,568.8
26.0249,493.93,562.64
26.0447,493.34,563.71
26.0649,492.87,560.97
26.0849,493.7,559.77
26.1049,493.76,561.02
26.1249,494.81,564.22
26.145,496.45,574.97
26.1649,496.96,585.98
26.1849,497.16,582.98
26.205,496.53,564.79
26.2249,494.03,535.43
26.2447,490.62,502.54
26.2649,485.7,473.23
26.2849,483.36,449.99
26.3049,483.69,436.39
26.3247,484.35,431.31
26.345,486.48,430.85
26.3649,487.18,430.48
26.3848,488.55,433.78
26.4059,488.44,438.43
26.4257,488.15,442.74
26.4457,488.52,448.99
26.4659,488.42,455.79
26.4859,488.53,463.44
26.5059,489.03,468.95
26.5258,490.62,476.16
26.5459,491.5,482.93
26.5659,492,486.94
26.5857,492.2,493.15
26.6059,493.36,498.92
26.6257,494.09,505.14
26.6457,494.27,511.11
26.6669,493.82,519.69
26.6869,494.65,535.75
26.707,496.52,565.6
26.7267,499.22,619.28
26.747,503.77,674.22
26.7669,508.82,717.18
26.7869,511.86,732.94
26.8068,513.28,726.35
26.8268,511.63,699.08
26.8469,507.1,663.47
26.8669,500.88,625.17
26.8868,495.51,587.94
26.9069,490.4,555.55
26.9266,485.92,527.44
26.9468,483.34,506.35
26.9668,481.47,489.48
26.9868,479.78,477.59
27.0068,477.82,471.07
27.0267,477.66,467.65
27.0467,478.73,467.32
27.0669,479.98,467.66
27.0868,480.78,470.73
27.1069,481.23,474.58
27.1268,482.18,479.07
27.1468,483.55,484.85
27.1669,484.04,491.48
27.1869,485.23,495.79
27.2068,485.38,500.43
27.2268,484.31,506.34
27.2468,485.25,511.47
27.2667,486.6,515.18
27.2868,486.48,519.14
27.3067,486.38,522.11
27.3267,487.11,524.09
27.347,487.48,528.47
27.3668,488.59,530.58
27.3869,487.67,527.86
27.407,487.94,531.49
27.4267,488.15,532.99
27.4469,488.32,530.19
27.4669,488.26,531.56
27.4869,489.4,533.44
27.5068,489.32,541.56
27.5267,489.46,552.84
27.5468,491.17,568.68
27.5669,491.93,585.14
27.5869,492.15,600.71
27.6068,492.72,611.37
27.6268,492.57,612.7
27.6468,491.86,612.16
27.6666,491.49,608.53
27.6868,491.79,603.02
27.7068,490.83,596.42
27.7268,491.47,591.33
27.7468,489.77,586.67
27.7669,489.22,581.13
27.7867,489.37,576.31
27.8068,488.7,573.65
27.8271,488.56,569.72
27.8467,489.05,567.57
27.8666,490.64,565.26
27.8868,487.51,543.41
27.9069,487.01,517.53
27.9268,485.21,500.22
27.9469,483.77,490.38
27.9668,482.81,486.5
27.9869,482.65,485
28.0068,482.72,486
28.0266,482.98,488.2
28.0469,483.58,491.96
28.0668,483.86,495.57
28.0869,483.29,499.25
28.1066,482.23,503.2
28.1267,483.79,508.56
28.1468,483.23,510.25
28.1669,483.78,515.2
28.1868,486.03,518.16
28.2068,486.82,520.73
28.2266,486.26,524.58
28.2467,486.61,527.87
28.2667,487.48,530.49
28.2866,486.39,531.99
28.3068,485.51,533
28.327,486.01,534
28.3467,486.01,535
28.3667,486.01,537.6
28.3869,486.8,537.08
28.4067,486.04,538.86
28.4277,486.23,540.69
28.4478,485.59,542.15
28.4678,485.87,542.32
28.4878,485.9,540.66
28.5077,485.12,541.73
28.5277,485.29,540.78
28.5478,485.23,542.02
28.5679,484.79,542.22
28.5877,484.83,541.18
28.6081,485.06,542.34
28.6277,484.45,542.27
28.6476,483.96,542.02
28.6676,483.57,543.01
28.6879,483.06,543.61
28.708,483.24,543.49
28.7276,482.8,544.59
28.7478,481.64,543.47
28.7677,480.31,542.78
28.7878,481.65,543.22
28.8078,483.12,543.78
28.828,484.29,544.42
28.8479,486.04,558.34
28.8677,487.03,583.07
28.8878,489.02,614.46
28.9078,490.82,648.57
28.9276,493.05,673.25
28.948,493.04,685.4
28.9678,493.23,687.32
28.9878,491.79,681.46
29.0078,490.43,671.17
29.028,488.14,655.53
29.0488,484.52,643.63
29.0688,482.61,624.7
29.0888,482.49,612.96
29.1086,481.39,600.97
29.1288,480.91,591.77
29.1489,481.13,585.22
29.1689,480.7,578.78
29.1888,480.36,572.02
29.2088,479.69,567.62
29.2286,478.75,568.09
29.2489,478.4,561.87
29.2688,477.92,559.5
29.2888,478.74,559.2
29.3089,479.39,558.36
29.3289,479.11,559.09
29.3489,478.09,555.67
29.3689,478.07,555.34
29.3888,477.66,552.67
29.4087,477.33,550.14
29.4288,476.86,550.71
29.4488,476.89,550.37
29.4688,476.91,547.89
29.4889,477.73,548.11
29.5089,477.78,546.89
29.5286,477.83,545.51
29.5487,476.86,545.01
29.5688,477.69,545.21
29.5888,478.35,543.17
29.6086,479.48,544.73
29.6287,479.38,542.19
29.6487,479.11,540.75
29.6698,478.69,542.4
29.6897,477.55,540.12
29.7097,477.24,543.5
29.7298,477.19,546
29.7496,476.75,555.6
29.7698,480,575.88
29.7898,482.4,592.5
29.8095,484.72,599.8
29.8299,484.78,589.44
29.8498,483.62,560.35
29.8696,479.9,522.08
29.8899,476.12,481.07
29.9097,472.89,449.25
29.9309,471.32,428.8
29.9508,470.65,417.04
29.9707,469.72,410.03
29.9909,468.38,408.83
30.0117,467.9,414.66
30.0316,468.92,420.73
30.0517,468.54,428.98
30.0718,469.63,440.39
30.0916,469.1,448.31
30.1119,469.08,458.45
30.1317,469.27,466.76
30.1517,469.41,473.61
30.1717,469.33,478.69
30.1916,470.06,483.75
30.2117,469.05,490.8
30.2317,469.44,496.44
30.2519,469.55,499.35
30.2718,470.64,502.68
30.2918,470.51,506.74
30.3116,470.81,510.4
30.3318,471.25,513.32
30.3518,470.4,517.05
30.3717,469.72,521.24
30.3917,469.78,522.39
30.412,471.42,524.52
30.4318,472.74,526.41
30.4516,473.79,527.73
30.4718,474.43,529.18
30.4917,474.34,529.95
30.512,474.28,530.56
30.5318,474.62,531.25
30.5519,474.9,531.6
30.5718,473.92,533.28
30.5919,472.93,533.22
30.6116,473.75,534.18
30.6319,473.8,533.74
30.6518,474.64,533.79
30.6718,473.71,533.23
30.6918,474.57,533.79
30.7117,473.85,534.63
30.7328,472.88,536.9
30.7528,473.91,537.52
30.7728,474.13,539.22
30.7931,474.9,538.78
30.8129,475.12,537.82
30.8328,474.9,536.66
30.8527,475.72,537.92
30.8726,477.17,537.14
30.8938,477.54,537.11
30.9138,478.83,537.89
30.934,478.86,537.91
30.9537,478.69,537.53
30.9739,479.15,538.22
30.9938,480.32,538.38
31.0139,480.66,537.7
31.0339,480.93,537.56
31.0537,479.54,537.85
31.0735,480.43,538.88
31.0938,479.35,538.9
31.1137,479.88,538.92
31.1338,480.1,540.34
31.1538,480.28,540.67
31.1738,480.43,541.74
31.1936,480.14,541.19
31.214,481.11,541.15
31.2336,480.49,540.52
31.2547,481.59,540.62
31.2748,482.47,540.89
31.2947,482.18,539.71
31.3147,482.34,539.97
31.3348,482.87,539.78
31.3547,482.9,541.02
31.3747,482.72,542.82
31.3948,482.98,541.25
31.4148,483.38,543
31.4347,483.9,542.2
31.4548,484.92,541.96
31.4746,485.74,542.17
31.4947,486.39,542.74
31.5145,486.91,542.39
31.5347,486.93,543.71
31.5548,486.54,544.17
31.5748,486.24,543.53
31.5951,485.39,544.23
31.6146,484.71,544.98
31.6348,484.57,545.19
31.6546,484.65,545.15
31.6747,485.12,544.32
31.6946,484.5,546.26
31.7148,484,545
31.7348,483.4,545.4
31.7547,483.72,545.72
31.7755,485.78,546.18
31.7956,486.62,545.14
31.8156,486.7,543.91
31.8355,486.36,544.53
31.8557,486.49,544.22
31.8755,487.19,543.78
31.8958,488.15,542.22
31.9156,487.92,542.98
31.9356,487.54,543.38
31.9558,487.83,542.31
31.9757,488.06,543.05
31.9958,489.05,544.44
32.0157,489.24,545.15
32.0357,489.39,545.12
32.0555,489.91,546.7
32.0756,489.73,545.76
32.0955,489.98,544.01
32.1158,489.79,542.6
32.1358,490.03,544.28
32.1558,490.82,544.03
32.1755,491.46,543.62
32.1955,492.17,543.1
32.2157,492.13,542.68
32.2357,491.71,541.54
32.2558,491.97,541.03
32.2755,491.77,540.83
32.2957,491.62,541.26
32.3157,491.09,542.01
32.3357,489.88,541.21
32.3557,489.3,541.37
32.3756,489.64,541.49
32.3957,489.51,541.39
32.4157,489.61,541.72
32.4355,489.09,541.17
32.4557,489.07,541.34
32.4755,489.46,542.07
32.4956,490.16,541.86
32.5157,489.53,542.68
32.5357,489.83,541.75
32.5557,492.46,542.4
32.5756,492.17,541.72
32.5956,491.93,542.77
32.6157,491.55,543.22
32.6357,491.24,542.98
32.6557,490.79,543.58
32.6755,489.83,543.46
32.6956,490.07,543.17
32.7157,490.45,542.94
32.7357,490.96,542.75
32.7557,491.17,543.4
32.7756,492.74,543.32
32.7957,491.79,544.26
32.8157,491.23,544.8
32.8357,490.98,545.04
32.8557,491.79,545.24
32.8757,492.83,543.99
32.8956,493.06,543.19
32.9157,492.45,542.15
32.9356,492.96,541.32
32.9558,491.57,541.46
32.9767,492.66,540.57
32.9967,492.92,540.25
33.0167,493.14,540.2
33.0365,494.11,538.96
33.0565,494.89,537.97
33.0767,494.91,537.78
33.0966,495.33,537.82
33.1168,495.66,539.46
33.1368,494.73,551.57
33.1576,495.58,577.25
33.1776,496.27,606
33.1978,498.01,630.2
33.2177,499.21,648.56
33.2378,500.37,657.45
33.2577,501.1,659.56
33.2775,499.68,655.25
33.2976,499.14,650
33.3177,498.31,642
33.3375,498.85,634.2
33.3577,500.08,627.16
33.3776,500.86,618.33
33.3977,501.09,615.66
33.4177,500.47,610.53
33.4377,500.78,608.02
33.4577,499.02,601.82
33.4775,499.42,598.66
33.4977,498.53,596.32
33.5177,499.03,596.66
33.5378,499.42,596.93
33.5577,498.94,592.34
33.5776,498.75,589.27
33.5975,497.6,585.82
33.6177,496.68,580.46
33.6378,497.54,575.76
33.6577,497.64,572.81
33.6779,498.31,569.85
33.6977,497.45,564.08
33.7177,497.36,561.26
33.7377,497.49,561.41
33.7577,496.79,560.73
33.7775,496.03,558.98
33.7978,495.62,564.19
33.8179,498.3,577.95
33.8375,500.84,591.56
33.8577,502.67,597.85
33.8778,502.74,588.28
33.8978,501.19,556.82
33.9177,499.55,516.26
33.9377,496.24,477.21
33.9576,494.59,448.17
33.9775,492.27,427.53
33.9986,491.02,417.83
34.0187,489.62,415.26
34.0386,488.89,415.61
34.0594,488.31,421.49
34.0796,487.65,427.79
34.0996,486.72,434.43
34.1195,485.78,444.55
34.1397,485.22,453.04
34.1597,483.78,460.63
34.1797,484.42,468.1
34.1997,484.54,474.08
34.2197,484.83,482.07
34.2397,485.26,489.25
34.2596,486.41,494.8
34.2795,487.93,498.44
34.2997,489.14,502.75
34.3197,489.91,508.8
34.3397,488.53,513.24
34.3597,488.23,517.59
34.3809,487.58,521.08
34.4007,487.26,525.26
34.4206,486.81,527.61
34.4417,486.25,529.09
34.4616,486.2,532.27
34.4817,486.36,533.02
34.5017,485.69,534.21
34.5216,484.95,533.57
34.5425,483.76,533.46
34.5624,482.81,534.56
34.5825,481.85,535.85
34.6025,480.88,538.08
34.6226,480.9,539.87
34.6425,480.92,539.29
34.6627,480.14,541.03
34.6828,479.91,541.03
34.7026,480.33,542.02
34.7227,479.66,542.22
34.7428,479.53,542.37
34.7627,479.82,544.3
34.7827,481.26,543.84
34.8026,482.21,544.87
34.8228,482.97,545.7
34.8437,482.17,546.56
34.8635,481.54,545.85
34.8838,480.43,545.68
34.9037,479.94,545.74
34.9237,478.36,546.59
34.9434,477.28,544.27
34.9635,476.23,545.02
34.9836,476.78,544.62
35.0036,476.43,545.49
35.0236,476.34,545.79
35.0436,477.27,546.24
35.0636,477.42,547.19
35.0834,478.13,547.15
35.1037,478.91,545.92
35.1235,478.53,545.94
35.1435,478.42,545.75
35.1645,478.34,544
35.1846,478.47,544.8
35.2056,478.38,543.84
35.2266,477.9,542.67
35.2465,478.12,541.74
35.2667,478.1,541.79
35.2865,477.08,543.23
35.3065,475.66,542.59
35.3265,475.53,540.47
35.3464,475.42,540.77
35.3666,474.34,540.22
35.3867,474.07,539.78
35.4067,474.06,538.82
35.4265,474.85,538.86
35.4468,475.28,538.09
35.4665,475.82,537.87
35.4865,475.06,538.09
35.5066,474.85,536.48
35.5266,475.28,539.18
35.5476,475.62,539.74
35.5674,475.9,541.4
35.5877,475.32,541.12
35.6077,475.85,541.89
35.6275,475.48,541.71
35.6476,474.99,540.37
35.6677,475.79,540.9
35.6875,475.23,540.52
35.7077,475.39,540.21
35.7277,476.11,540.77
35.7475,477.49,539.62
35.7686,477.99,540.29
35.7887,476.99,540.43
35.8089,476.59,539.95
35.8286,476.67,541.56
35.8486,476.14,541.05
35.8686,474.91,539.84
35.8885,476.13,539.47
35.9096,477.9,539.58
35.9296,478.12,539.66
35.9496,479.1,539.93
35.9697,479.68,541.14
35.9896,480.14,540.51
36.0096,481.11,541.41
36.0298,480.49,540.53
36.0496,481.39,541.02
36.0696,481.71,540.42
36.0896,481.17,540.73
36.1096,482.34,541.19
36.1295,482.87,540.35
36.1496,483.5,541.28
36.1696,484.2,541.22
36.1897,483.96,541.38
36.2094,483.57,540.5
36.2296,484.65,539.2
36.2497,484.72,539.16
36.2697,485.18,539.73
36.2896,484.74,540.78
36.3095,485.19,541.63
36.3297,485.96,542.7
36.3496,485.56,542.56
36.3697,485.05,542.45
36.3895,486.04,543.16
36.4095,486.03,542.33
36.4296,486.63,542.46
36.4496,486.3,542.17
36.4696,486.24,541.54
36.4896,485.39,541.83
36.5094,485.31,541.06
36.5297,484.05,541.25
36.5496,482.64,540.2
36.5697,482.51,541.36
36.5897,481.81,541.49
36.6095,481.65,540.99
36.6309,482.52,540.39
36.6506,483.61,539.91
36.6706,484.89,539.13
36.6906,485.31,538.9
36.7105,485.25,539.12
36.7308,486.2,539.9
36.7504,486.76,538.92
36.7706,488.01,538.94
36.7907,487.81,538.95
36.8105,488.65,539.76
36.8307,488.92,540.01
36.8507,488.13,540.41
36.8705,487.51,540.92
36.8906,487.21,540.54
36.9105,486.36,540.83
36.9306,485.89,541.07
36.9506,486.11,540.65
36.9704,486.89,540.72
36.9907,487.51,540.38
37.0104,487.81,542.3
37.0306,488.05,542.04
37.0517,488.44,541.43
37.0717,488.35,542.15
37.0916,488.48,541.92
37.1114,489.58,541.73
37.1316,489.87,542.79
37.1516,490.29,543.23
37.1716,491.04,543.18
37.1914,491.43,542.95
37.2114,490.94,541.96
37.2317,491.75,541.77
37.2517,492,542.41
37.2717,492.6,542.13
37.2916,493.68,541.5
37.3114,493.75,541
37.3316,494.4,541.2
37.3514,493.92,540.96
37.3716,493.33,541.97
37.3916,493.07,541.38
37.4116,492.45,541.7
37.4316,492.56,541.76
37.4516,492.65,540.01
37.4716,492.92,539.61
37.4916,493.34,538.49
37.5114,493.47,537.59
37.5316,492.98,545.87
37.5516,493.18,563.7
37.5716,490.94,584.16
37.5916,489.96,604.73
37.6115,486.76,623.98
37.6316,484.41,635.78
37.6518,482.73,639.23
37.6717,482.58,638.98
37.6918,483.27,634.59
37.7114,484.01,632.27
37.7315,486.01,627.01
37.7513,487.81,622.61
37.7715,491.45,616.09
37.7916,494.16,609.87
37.812,496.93,606.5
37.8317,499.54,602.4
37.8516,501.03,598.32
37.8717,501.43,593.65
37.8914,503.34,593.92
37.9115,504.87,592.14
37.9316,506.7,590.11
37.9516,505.96,586.69
37.9716,506.17,583.55
37.9916,505.53,581.44
38.0115,504.03,575.35
38.0316,503.22,571.88
38.0516,502.58,568.11
38.0716,502.06,566.88
38.0916,501.25,561.31
38.1116,500.6,560.65
38.1316,500.48,557.92
38.1515,499.78,557.33
38.1727,498.43,556.87
38.1924,498.14,563.69
38.2126,498.91,573.15
38.2326,499.73,578.52
38.2526,497.98,567.82
38.2726,494.59,539.66
38.2924,491.87,501.32
38.3127,490.1,464.06
38.3326,488.48,434.85
38.3524,488.78,417.08
38.3727,488.83,409.26
38.3926,488.26,406.21
38.4127,488.41,409.57
38.4326,487.93,415.05
38.4526,487.54,423.64
38.4726,488.03,432.11
38.4924,488.23,441.49
38.5127,488.58,450.79
38.5326,489.86,460.43
38.5528,490.89,468.15
38.5726,489.91,476.52
38.5924,490.93,485.41
38.6125,492.14,494.33
38.6325,492.12,500.87
38.6525,493.89,507.29
38.6726,493.71,513.23
38.6927,495.37,517.39
38.7123,495.3,521.31
38.7325,495.84,524.85
38.7526,495.27,528.08
38.7726,494.42,530.06
38.7924,494.33,532.65
38.8125,494.47,535.32
38.8326,495.97,536.26
38.8527,497.18,539.4
38.8727,497.54,540.92
38.8925,497.43,540.14
38.9127,497.55,540.71
38.9326,497.44,542.77
38.9525,497.75,544.02
38.9725,496.4,545.21
38.9924,496.92,544.57
39.0126,497.14,546.26
39.0326,495.71,546
39.0526,495.37,543.6
39.0727,494.49,544.88
39.0923,494.59,544.91
39.1127,494.68,545.13
39.1326,494.54,545.1
39.1525,494.63,545.28
39.1724,494.71,546.02
39.1925,493.56,545.02
39.2126,494.25,546.22
39.2325,493.6,546.37
39.2525,493.68,547.5
39.2726,492.74,547.8
39.2924,492.4,546.84
39.3136,492.32,547.47
39.3335,493.25,547.78
39.3536,493.4,547.62
39.3736,493.12,545.9
39.3935,493.3,545.92
39.4137,492.44,546.13
39.4334,493.35,546.11
39.4546,493.08,546.29
39.4746,492.66,546.43
39.4945,492.13,546.34
39.5143,491.11,545.07
39.5347,490.88,546.26
39.5546,491.31,546.21
39.5746,491.25,545.97
39.5945,491.8,545.37
39.6145,491.64,544.7
39.6347,492.11,544.76
39.6546,493.29,544.81
39.6745,492.83,545.05
39.6955,492.26,543.64
39.7155,491.81,543.51
39.7355,493.45,543.21
39.7557,492.16,542.57
39.7753,491.13,542.45
39.7956,490.7,543.36
39.8157,490.56,542.69
39.8356,489.65,543.15
39.8555,490.52,541.92
39.8754,490.42,543.54
39.8958,490.53,543.03
39.9156,489.83,542.62
39.9356,489.06,543.5
39.9556,489.05,543.8
39.9754,488.64,543.64
39.9956,489.11,542.31
40.0155,489.09,543.45
40.0355,489.07,543.96
40.0555,489.06,543.57
40.0754,490.05,544.85
40.0954,490.24,545.28
40.1156,489.59,544.63
40.1355,490.07,545.7
40.1555,489.86,545.16
40.1753,489.09,546.33
40.1953,488.07,545.66
40.2155,489.25,545.73
40.2356,490.2,547.38
40.2553,490.36,546.51
40.2753,490.09,546.61
40.2955,490.07,547.08
40.3156,490.06,547.47
40.3355,489.85,547.77
40.3555,490.68,547.22
40.3755,491.34,546.98
40.3955,491.07,546.78
40.4155,491.06,546.82
40.4355,490.25,545.46
40.4555,489.6,543.97
40.4753,488.88,543.57
40.4953,488.1,542.66
40.5155,487.88,542.33
40.5355,487.51,542.46
40.5555,487.4,542.17
40.5753,487.12,541.94
40.5956,486.9,543.35
40.6155,487.52,541.88
40.6354,488.02,541.3
40.6556,487.81,541.24
40.6754,487.45,541.39
40.6955,487.36,541.72
40.7155,487.29,542.37
40.7356,486.83,543.3
40.7555,486.26,543.24
40.7753,485.81,542.79
40.7956,485.85,542.43
40.8155,485.28,541.75
40.8355,484.82,541.6
40.8554,485.06,541.68
40.8753,485.05,541.14
40.8956,484.44,541.91
40.9164,482.55,542.13
40.9365,482.44,543.5
40.9565,482.75,543.4
40.9764,482,544.12
40.9977,481.4,544.5
41.0174,480.12,544.6
41.0375,479.9,545.08
41.0574,480.52,545.26
41.0774,479.41,544.61
41.0976,478.93,545.29
41.1175,478.14,545.23
41.1375,477.92,545.78
41.1573,477.53,544.03
41.1776,476.63,544.62
41.1975,476.1,543.5
41.2173,477.48,543.8
41.2376,478.18,544.04
41.2575,477.35,543.23
41.2774,477.48,543.18
41.2975,476.98,544.35
41.3175,476.39,544.68
41.3375,477.31,545.14
41.3575,477.25,545.11
41.3773,477.4,543.69
41.3975,477.12,544.35
41.4175,476.69,544.88
41.4373,476.76,543.71
41.4575,477.8,544.76
41.4775,479.24,543.61
41.4973,478.79,544.29
41.5176,478.44,545.43
41.5374,478.35,544.75
41.5575,478.08,545.6
41.5774,478.26,545.68
41.5974,477.61,544.74
41.6173,477.29,543.59
41.6377,476.63,542.27
41.6575,476.1,542.42
41.6774,475.48,540.94
41.6985,474.59,540.55
41.7184,474.27,540.44
41.7384,474.42,548.75
41.7594,475.33,567.2
41.7806,475.67,587.56
41.8005,476.93,614.45
41.8205,479.55,637.16
41.8405,479.04,650.93
41.8603,479.03,653.94
41.8807,477.22,654.55
41.9005,474.38,650.44
41.9202,474.5,641.35
41.9405,474.4,631.28
41.9602,475.72,622.63
41.9806,477.18,615.1
42.0005,477.94,608.48
42.0205,477.55,601.58
42.0405,478.64,598.47
42.0604,480.91,594.17
42.0815,481.73,591.54
42.1015,481.99,588.63
42.1215,482.79,585.91
42.1414,482.03,582.52
42.1613,480.62,580.22
42.1812,480.1,576.38
42.2015,479.08,573.9
42.2215,477.86,568.32
42.2415,477.49,566.46
42.2615,475.99,561.57
42.2815,475.79,559.05
42.3013,476.44,557.24
42.3215,476.55,554.79
42.3418,476.64,553.63
42.3618,474.71,551.91
42.3814,472.97,540.33
42.4013,469.17,516.06
42.4212,466.74,484.65
42.4412,464.79,453.92
42.4613,465.23,430.74
42.4814,466.19,416.99
42.5013,467.15,414.39
42.5215,467.72,418.11
42.5414,468.58,423.69
42.5613,469.46,432.75
42.5814,470.57,441.2
42.6013,470.65,451.76
42.6214,471.32,460.81
42.6417,471.66,469.45
42.6613,472.13,477.56
42.6815,472.7,485.65
42.7015,472.76,493.12
42.7215,472.41,498.29
42.7414,471.33,505.43
42.7613,472.86,509.35
42.7815,473.69,514.08
42.8015,475.15,517.26
42.8214,475.72,520.81
42.8417,476.98,523.25
42.8616,477.38,527
42.8815,477.31,529.8
42.9015,476.04,530.04
42.9215,476.44,531.43
42.9415,476.35,532.94
42.9613,475.08,533.76
42.9815,475.86,534.4
43.0016,475.49,537.12
43.0215,475.79,536.5
43.0416,476.23,537
43.0614,477.39,536.4
43.0814,477.11,537.52
43.1014,478.09,538.42
43.1214,478.67,538.53
43.1415,479.34,536.23
43.1614,478.87,534.78
43.1815,479.9,534.02
43.2014,479.72,533.42
43.2214,479.57,534.94
43.2414,479.26,535.55
43.2616,479.01,536.24
43.2812,480.41,535.79
43.3014,480.12,537.03
43.3215,480.5,537.23
43.3413,479.6,537.78
43.3614,478.88,537.22
43.3825,479.7,538.98
43.4024,480.16,538.78
43.4224,481.33,541.63
43.4423,481.66,540.9
43.4625,481.73,539.52
43.4822,481.19,540.22
43.5023,481.35,539.77
43.5223,481.68,539.82
43.5424,481.94,539.66
43.5635,482.75,539.52
43.5835,484,539.02
43.6035,485.2,539.02
43.6233,486.36,539.81
43.6435,486.09,539.45
43.6636,485.87,540.16
43.6835,485.7,539.93
43.7035,485.56,538.94
43.7235,485.85,538.75
43.7433,485.48,538.8
43.7633,484.98,537.84
43.7832,484.79,537.67
43.8035,485.83,538.14
43.8235,486.46,537.91
43.8432,486.97,538.53
43.8635,487.78,541.02
43.8835,487.42,540.82
43.9035,487.74,541.65
43.9236,487.59,542.32
43.9432,488.07,544.46
43.9635,489.86,550.57
43.9833,491.49,560.05
44.0035,494.39,573.44
44.0235,497.31,584.55
44.0432,498.45,590.44
44.0635,497.76,591.95
44.0834,496.41,586.36
44.1033,496.13,576.49
44.1245,494.9,562.99
44.1446,492.72,545.99
44.1645,491.18,527.4
44.1846,486.34,510.92
44.2044,483.67,499.73
44.2242,481.14,491.19
44.2444,481.31,490.15
44.2644,481.25,494.92
44.2845,484.6,518.54
44.3044,486.68,551.63
44.3244,490.54,581.7
44.3444,490.23,598.36
44.3644,487.79,599.09
44.3844,483.63,589.67
44.4042,477.9,573.34
44.4244,471.72,554.27
44.4445,469.78,537.22
44.4644,469.82,523.17
44.4843,470.86,511.74
44.5042,471.09,505.99
44.5243,471.47,502.19
44.5442,474.38,504.55
44.5643,476.1,515.44
44.5846,476.28,536.55
44.6044,480.82,563.24
44.6244,484.86,585.99
44.6446,488.29,601.4
44.6643,491.43,610.12
44.6845,497.14,616.69
44.7044,501.92,622.35
44.7243,508.33,627.08
44.7441,513.67,627.47
44.7646,519.13,624.57
44.7843,520.71,618.86
44.8044,520.96,609.69
44.8244,518.77,595.15
44.8444,515.42,571.12
44.8644,509.53,536.9
44.8844,501.43,499.72
44.9044,491.14,464.97
44.9244,479.51,434.58
44.9444,470.21,411.86
44.9642,465.17,396.09
44.9845,461.33,388.67
45.0043,460.87,390.34
45.0244,461.09,397.27
45.0446,463.28,407.22
45.0644,467.62,420.77
45.0845,470.7,434.22
45.1044,474.16,447.97
45.1244,477.33,460.38
45.1444,482.26,473.7
45.1644,486.61,486.56
45.1843,490.49,501.85
45.2044,495.99,521.88
45.2244,509.99,554.3
45.2442,530.59,588.04
45.2645,554.87,617.83
45.2844,577.9,638.67
45.3043,592.72,646.73
45.3244,601.18,649.59
45.3444,603.14,645.67
45.3642,598.71,640.14
45.3843,591.57,634.71
45.4044,581.66,631.17
45.4245,570.52,628.33
45.4445,559.22,620.07
45.4644,544.78,599.45
45.4844,525.82,570.16
45.5045,508.26,543.13
45.5244,494.61,519.5
45.5444,484.68,501.2
45.5644,477.95,488.56
45.5844,472.36,481.85
45.6044,469.49,477.68
45.6244,467.19,476.74
45.6442,467.15,479.6
45.6644,467.92,482.48
45.6843,468.94,485.78
45.7044,470.35,490.42
45.7244,471.68,494.14
45.7442,480.74,498.11
45.7644,485.79,501.09
45.7843,489.24,504.07
45.8043,491.99,506.46
45.8244,493.19,510.17
45.8442,495.15,515.33
45.8645,497.32,518.87
45.8842,499.26,520.49
45.9044,501.21,520.19
45.9245,502.17,516.96
45.9443,504.33,518.16
45.9641,504.07,515.73
45.9845,504.05,515.99
46.0044,503.04,515.59
46.0244,500.63,517.87
46.0445,501.11,521.1
46.0644,501.49,527.48
46.0845,500.59,533.58
46.1044,495.27,531.87
46.1241,494.02,529.29
