Program Time [s],data 0,data 1
69.96002,463.32,473.99
69.98004,463.96,474.39
69.99982,464.53,474.42
70.02053,467.11,474.58
70.04081,468.30,475.09
70.06070,472.39,476.93
70.08007,468.49,476.33
70.10004,470.48,476.80
70.12038,471.05,473.52
70.13969,473.11,474.64
70.16079,475.04,473.33
70.17924,470.93,475.60
70.19965,473.49,475.57
70.22059,472.17,474.15
70.23942,474.57,475.65
70.25978,472.63,475.37
70.27985,472.99,475.74
70.29900,474.78,474.64
70.32048,472.20,473.28
70.34068,475.67,472.46
70.35963,473.70,471.12
70.37999,471.63,471.13
70.39927,470.35,475.01
70.41942,473.31,472.93
70.43940,471.87,474.48
70.46038,472.94,473.42
70.48112,471.57,473.19
70.49971,475.31,475.44
70.52040,474.37,475.10
70.54042,473.39,472.26
70.56092,472.41,474.98
70.57976,472.81,474.12
70.59949,474.41,475.83
70.62117,475.97,473.59
70.64001,472.30,472.44
70.65929,473.43,474.33
70.68064,475.21,475.95
70.69960,477.10,475.35
70.72069,477.01,475.67
70.73964,473.32,473.49
70.76036,477.38,474.52
70.78055,475.53,477.73
70.80020,475.38,476.19
70.82019,471.35,474.60
70.83967,472.88,476.62
70.85988,473.26,474.44
70.87980,471.70,475.51
70.90046,473.08,473.87
70.92011,469.99,475.21
70.94067,469.73,475.35
70.96012,472.69,474.18
70.98097,471.50,477.38
70.99952,472.62,474.84
71.01991,471.77,476.34
71.04002,469.42,476.85
71.05931,471.53,477.32
71.07948,469.10,475.59
71.10110,471.47,473.13
71.11937,469.37,476.07
71.14077,469.18,476.69
71.15936,470.11,476.01
71.17976,471.82,474.69
71.20094,470.77,477.31
71.22025,473.63,475.51
71.23962,472.02,474.64
71.26105,472.24,476.51
71.27953,469.20,477.02
71.29984,471.79,476.53
71.32073,469.78,476.94
71.34054,469.82,476.59
71.36018,471.28,475.70
71.38016,469.31,474.38
71.39975,469.73,474.66
71.42062,469.21,473.12
71.43981,471.63,474.45
71.46028,468.93,475.73
71.47970,468.77,479.13
71.50083,469.04,473.72
71.52092,467.57,457.89
71.54105,465.98,442.38
71.56128,464.42,419.37
71.58259,462.58,402.50
71.60388,457.10,383.61
71.62227,454.26,368.26
71.64360,451.96,355.30
71.66315,448.81,347.41
71.68380,448.05,339.16
71.70259,449.73,338.76
71.72230,450.27,343.15
71.74210,450.66,344.61
71.76348,450.83,352.76
71.78431,453.84,361.40
71.80482,452.88,372.75
71.82436,456.68,383.01
71.84478,455.91,393.24
71.86440,458.91,403.86
71.88412,455.64,411.10
71.90339,456.94,418.96
71.92319,457.53,426.77
71.94312,459.90,432.04
71.96430,455.98,435.96
71.98341,459.24,441.31
72.00321,457.00,444.91
72.02312,456.46,449.54
72.04344,458.75,452.45
72.06372,459.05,453.61
72.08317,457.91,456.07
72.10418,458.01,457.11
72.12360,456.63,457.85
72.14393,460.34,462.56
72.16452,459.05,461.98
72.18472,457.49,464.42
72.20368,459.17,465.38
72.22376,457.62,465.47
72.24356,457.92,466.71
72.26353,457.90,465.94
72.28433,460.67,480.39
72.30384,466.10,509.06
72.32446,466.86,540.25
72.34314,467.72,572.40
72.36368,470.13,597.81
72.38504,473.01,615.67
72.40321,476.56,629.39
72.42479,481.45,625.72
72.44480,483.28,618.76
72.46314,479.08,603.09
72.48455,480.99,589.54
72.50476,478.16,573.78
72.52335,477.53,559.12
72.54435,477.25,546.53
72.56347,475.70,537.99
72.58354,473.20,528.34
72.60420,469.11,518.74
72.62445,466.82,515.20
72.64479,467.72,508.28
72.66397,464.08,501.88
72.68496,464.38,498.72
72.70319,463.25,492.39
72.72349,462.59,491.70
72.74479,461.63,488.47
72.76317,461.15,484.84
72.78440,463.09,482.74
72.80378,460.90,481.74
72.82338,461.36,478.91
72.84350,459.59,477.51
72.86487,462.71,477.01
72.88422,462.41,478.48
72.90400,458.58,474.51
72.92407,461.69,476.37
72.94407,460.37,475.19
72.96436,461.81,474.87
72.98420,461.13,472.71
73.00458,462.37,473.49
73.02372,460.89,470.27
73.04421,463.94,472.30
73.06328,459.43,472.93
73.08310,459.53,470.48
73.10409,458.31,471.13
73.12461,458.50,474.26
73.14345,455.42,470.71
73.16368,455.93,474.99
73.18376,457.22,470.54
73.20504,457.52,472.55
73.22376,460.88,472.12
73.24410,457.45,471.97
73.26377,459.55,471.09
73.28411,461.19,473.31
73.30489,460.39,474.06
73.32387,461.10,471.47
73.34454,463.66,474.69
73.36442,463.88,472.74
73.38361,461.43,471.37
73.40405,461.09,470.53
73.42332,463.39,471.50
73.44463,463.61,470.46
73.46374,459.63,472.06
73.48343,461.83,471.36
73.50366,458.23,470.37
73.52316,462.68,471.45
73.54398,460.84,470.61
73.56462,460.37,470.07
73.58449,461.94,470.91
73.60352,460.11,468.28
73.62427,459.75,468.64
73.64347,459.32,470.16
73.66326,456.65,469.68
73.68494,456.68,469.11
73.70524,458.70,467.11
73.72486,454.37,468.38
73.74538,454.40,466.01
73.76463,453.26,467.92
73.78613,452.20,466.80
73.80535,451.15,470.65
73.82474,451.31,468.89
73.84486,451.58,468.68
73.86508,452.71,470.13
73.88559,455.35,469.82
73.90467,453.68,471.53
73.92444,457.02,469.60
73.94515,457.32,468.30
73.96677,459.52,466.57
73.98691,458.52,465.51
74.00763,458.58,465.27
74.02626,459.02,468.11
74.04784,460.14,467.13
74.06666,456.13,464.97
74.08689,458.18,463.65
74.10601,458.94,465.42
74.12790,456.41,464.77
74.14627,454.84,464.99
74.16807,455.02,464.74
74.18709,455.92,463.53
74.20682,455.90,464.83
74.22733,456.03,464.24
74.24697,457.25,465.17
74.26733,456.21,466.40
74.28641,457.77,465.12
74.30738,455.01,467.05
74.32776,456.69,466.16
74.34652,458.03,464.83
74.36702,456.91,467.36
74.38673,456.80,467.58
74.40871,455.49,465.49
74.42834,457.01,466.64
74.44875,455.24,465.87
74.46711,454.54,466.88
74.48819,452.78,465.60
74.50782,453.38,464.04
74.52905,455.16,464.23
74.54746,457.23,466.50
74.56752,454.31,464.35
74.58812,455.36,465.54
74.60732,454.22,466.31
74.62888,454.45,468.97
74.64889,456.63,466.45
74.67005,457.66,466.93
74.68978,458.67,468.94
74.71048,457.01,467.12
74.72946,456.79,465.94
74.75052,460.42,466.58
74.77093,460.90,464.55
74.79067,459.96,466.69
74.81112,459.28,466.24
74.83034,459.54,466.16
74.85165,456.95,465.88
74.87151,456.21,464.44
74.89154,456.06,465.59
74.91016,456.82,464.03
74.93165,456.87,464.70
74.95068,457.61,464.02
74.97023,457.14,462.09
74.99100,455.54,461.70
75.01004,457.51,463.38
75.03149,458.63,460.34
75.05305,455.78,458.07
75.07302,457.67,458.57
75.09285,460.56,459.78
75.11225,460.70,461.73
75.13350,459.81,462.09
75.15416,461.17,460.37
75.17237,459.68,461.29
75.19399,461.92,462.46
75.21325,463.46,453.92
75.23282,462.34,446.70
75.25354,460.18,432.44
75.27404,458.57,419.53
75.29379,457.27,403.15
75.31332,457.53,390.93
75.33318,452.78,378.00
75.35361,451.95,371.48
75.37393,451.94,361.95
75.39437,449.31,357.02
75.41304,451.10,350.71
75.43366,450.01,351.45
75.45323,452.33,354.35
75.47452,454.10,361.52
75.49415,455.29,365.96
75.51475,456.67,369.84
75.53403,457.31,379.47
75.55452,458.49,387.49
75.57476,462.96,391.25
75.59351,461.97,400.20
75.61459,464.58,408.52
75.63493,465.59,415.31
75.65421,466.19,419.73
75.67366,463.48,428.90
75.69380,464.28,431.98
75.71467,465.38,437.60
75.73423,467.60,439.67
75.75455,464.65,446.33
75.77349,464.56,451.89
75.79356,468.31,475.87
75.81429,472.54,509.75
75.83399,432.22,551.87
75.85345,442.05,590.14
75.87473,453.80,615.33
75.89391,459.81,634.74
75.91358,460.38,632.76
75.93356,466.05,625.41
75.95367,469.86,612.81
75.97364,470.41,595.93
75.99393,469.42,581.57
76.01311,472.21,566.21
76.03451,473.89,553.44
76.05315,471.82,540.82
76.07428,468.59,531.85
76.09361,470.20,521.90
76.11283,469.97,516.90
76.13324,468.92,510.07
76.15453,465.25,504.54
76.17396,468.59,498.17
76.19331,467.18,492.24
76.21415,468.87,488.92
76.23292,464.97,487.22
76.25432,465.82,485.76
76.27325,467.22,483.82
76.29295,466.92,480.80
76.31359,463.47,478.96
76.33469,462.04,479.99
76.35302,462.84,478.08
76.37499,460.63,476.59
76.39425,460.34,474.77
76.41378,459.46,471.74
76.43355,461.22,473.00
76.45415,462.39,470.77
76.47451,463.27,471.94
76.49361,464.19,470.83
76.51505,466.19,473.41
76.53530,466.89,470.63
76.55573,466.45,471.01
76.57641,464.05,473.04
76.59639,467.83,472.99
76.61668,465.33,471.01
76.63512,466.32,474.05
76.65578,464.72,473.88
76.67582,469.87,472.14
76.69640,471.88,470.31
76.71518,471.65,469.55
76.73574,467.80,468.89
76.75652,468.55,470.39
76.77586,471.89,469.22
76.79572,468.99,469.76
76.81550,469.61,472.47
76.83616,469.54,472.28
76.85607,469.67,469.63
76.87621,468.68,471.29
76.89539,470.12,468.78
76.91505,469.98,468.40
76.93633,469.40,469.19
76.95651,469.39,470.91
76.97678,471.58,467.36
76.99710,474.25,470.72
77.01686,470.92,468.71
77.03685,474.50,472.15
77.05692,475.48,472.61
77.07602,473.27,471.96
77.09704,473.15,471.25
77.11780,473.69,471.42
77.13651,471.51,472.01
77.15591,474.75,471.54
77.17762,471.38,470.35
77.19689,471.87,470.05
77.21783,471.83,469.11
77.23703,474.29,470.91
77.25661,473.62,469.23
77.27648,471.16,472.01
77.29683,470.16,471.35
77.31623,470.77,470.19
77.33662,468.67,472.50
77.35727,470.02,470.83
77.37658,468.83,470.87
77.39641,469.58,469.96
77.41623,472.47,468.03
77.43606,468.99,468.16
77.45746,468.11,468.55
77.47633,471.02,469.28
77.49693,471.09,469.00
77.51777,470.82,470.88
77.53717,470.35,471.20
77.55779,469.58,470.12
77.57619,470.68,472.44
77.59730,471.26,469.75
77.61722,469.73,471.61
77.63661,471.90,468.82
77.65664,470.43,469.86
77.67681,471.48,468.45
77.69785,470.74,468.70
77.71623,470.57,470.15
77.73663,470.51,471.61
77.75619,473.59,470.78
77.77612,473.77,470.02
77.79799,472.92,468.35
77.81708,471.44,469.90
77.83607,469.84,467.69
77.85628,470.93,469.86
77.87657,473.54,468.05
77.89787,472.36,468.93
77.91643,473.98,468.92
77.93782,472.62,468.74
77.95723,470.68,470.80
77.97616,472.83,469.23
77.99774,472.41,467.72
78.01779,471.19,468.76
78.03764,470.83,468.30
78.05713,471.04,467.03
78.07670,472.82,466.66
78.09628,470.81,465.75
78.11644,469.10,466.18
78.13623,469.47,467.62
78.15752,468.49,465.80
78.17635,472.00,468.04
78.19667,473.54,467.80
78.21767,469.38,468.26
78.23649,472.06,467.36
78.25672,469.02,468.31
78.27650,469.36,465.99
78.29694,470.91,467.19
78.31763,470.38,465.62
78.33791,469.12,468.62
78.35615,471.63,466.24
78.37742,469.61,467.84
78.39628,472.69,469.58
78.41666,472.21,469.42
78.43674,469.94,465.88
78.45741,471.34,466.84
78.47694,470.65,467.95
78.49738,470.29,468.06
78.51640,470.00,468.64
78.53614,469.00,469.81
78.55671,469.78,469.85
78.57670,469.75,471.94
78.59696,470.12,468.27
78.61763,470.71,468.69
78.63638,466.91,469.50
78.65772,465.59,466.82
78.67742,467.84,468.23
78.69698,468.14,467.25
78.71726,467.26,467.55
78.73683,468.67,468.11
78.75701,467.91,467.46
78.77667,468.79,469.84
78.79649,467.53,470.75
78.81696,468.76,470.43
78.83712,467.46,469.12
78.85778,468.98,470.35
78.87764,471.73,470.03
78.89717,468.88,468.25
78.91786,468.41,470.85
78.93733,469.35,468.32
78.95772,471.63,469.19
78.97707,472.74,469.50
78.99651,469.27,471.37
79.01628,469.63,467.78
79.03797,468.88,469.29
79.05634,468.77,468.59
79.07620,471.82,470.19
79.09777,470.49,468.29
79.11601,461.98,468.66
79.13692,466.14,468.50
79.15656,465.18,467.51
79.17667,467.33,468.82
79.19679,468.92,465.79
79.21776,473.11,465.39
79.23698,470.01,469.11
79.25661,474.05,467.44
79.27682,472.41,463.87
79.29633,472.54,452.52
79.31636,474.95,437.90
79.33654,471.19,418.79
79.35716,472.54,402.12
79.37806,472.63,386.09
79.39685,468.40,371.09
79.41738,469.07,360.88
79.43762,465.74,351.16
79.45710,466.37,345.19
79.47776,465.86,340.52
79.49603,464.79,341.07
79.51714,463.62,346.94
79.53679,465.74,350.93
79.55669,464.94,356.54
79.57751,467.64,365.07
79.59630,467.70,371.56
79.61742,468.18,379.89
79.63862,467.15,390.06
79.65841,470.66,399.05
79.67847,471.36,406.11
79.69819,470.61,414.97
79.71876,472.77,424.66
79.73834,471.17,428.59
79.75837,471.76,435.07
79.77812,470.64,440.77
79.79922,470.89,443.25
79.81991,471.44,450.35
79.83866,468.43,452.92
79.85839,470.84,455.46
79.87999,469.64,470.57
79.89943,473.75,495.08
79.91801,471.64,531.63
79.93979,473.93,569.37
79.95969,474.67,600.23
79.97794,476.76,623.58
79.99898,477.84,639.59
80.01813,478.84,646.69
80.03875,476.95,639.60
80.05825,477.84,626.53
80.07855,478.87,610.77
80.09855,475.46,589.98
80.11960,476.37,572.82
80.14402,473.73,555.62
80.15990,472.87,538.66
80.17949,472.23,529.19
80.19816,472.10,519.10
80.22017,469.48,509.67
80.24062,472.16,505.77
80.25991,470.16,498.82
80.28058,470.00,494.20
80.30056,470.71,490.00
80.32073,472.34,486.76
80.33967,474.92,486.53
80.36077,476.61,482.46
80.37922,475.43,480.22
80.40041,475.61,476.88
80.42011,474.29,479.16
80.44037,475.29,477.75
80.46054,472.03,475.17
80.48027,476.70,476.67
80.50032,474.96,476.79
80.52017,471.21,477.64
80.54027,472.46,478.57
80.55923,470.82,478.02
80.57907,473.35,477.69
80.60054,474.33,476.70
80.62045,473.38,476.67
80.64067,473.20,477.94
80.66073,473.87,476.29
80.68011,476.77,474.76
80.69895,477.04,478.46
80.72053,474.38,477.78
80.74053,474.36,478.69
80.75902,472.77,477.59
80.77981,470.93,476.28
80.80023,470.76,474.74
80.82075,471.29,476.68
80.83961,470.13,477.83
80.86049,471.73,475.58
80.88004,471.71,474.99
80.90015,473.69,476.50
80.91942,472.21,473.41
80.93980,475.81,472.87
80.95967,474.05,473.16
80.97916,472.59,474.12
80.99988,474.69,473.15
81.01928,475.77,473.59
81.04021,476.14,474.11
81.06046,475.33,474.00
81.07939,472.53,476.98
81.10044,471.19,476.66
81.12055,473.11,475.03
81.14055,473.00,476.00
81.15998,473.74,474.92
81.18030,471.04,475.29
81.20074,470.63,475.07
81.21940,469.98,474.07
81.23963,469.75,477.15
81.25941,473.28,477.19
81.27925,470.23,476.86
81.29954,473.04,477.61
81.32010,470.98,475.37
81.33938,472.61,475.33
81.35991,474.12,476.44
81.38036,472.02,476.20
81.40031,472.07,474.45
81.41950,471.69,475.40
81.44062,473.45,472.86
81.46066,471.76,476.05
81.47915,474.32,473.93
81.49952,473.93,472.62
81.52065,474.67,475.18
81.53989,472.52,471.50
81.56027,473.92,471.55
81.57968,471.67,472.62
81.59936,471.25,474.52
81.62051,473.37,472.22
81.63941,472.24,472.81
81.66063,471.75,472.77
81.67986,472.95,474.09
81.70003,473.69,471.19
81.72131,472.44,474.57
81.74042,473.19,474.11
81.76039,473.42,472.14
81.78063,472.57,472.93
81.80077,473.77,472.01
81.82049,472.46,475.75
81.84175,473.85,473.82
81.86030,472.54,475.14
81.88200,471.56,471.87
81.90172,471.61,474.46
81.92166,472.29,471.29
81.94149,474.94,471.39
81.96048,472.06,472.54
81.98159,473.89,471.59
82.00083,474.70,472.26
82.02169,474.97,473.55
82.04078,474.74,473.26
82.06014,473.26,473.13
82.08112,470.33,474.07
82.10084,470.68,474.27
82.11989,471.25,475.88
82.14114,472.49,472.30
82.16228,471.61,476.46
82.18132,471.43,474.27
82.20341,471.39,474.68
82.22192,469.49,473.15
82.24367,473.04,474.12
82.26251,472.94,474.53
82.28364,471.99,473.73
82.30232,469.12,472.47
82.32237,470.37,473.62
82.34218,471.45,471.33
82.36350,471.63,472.52
82.38330,469.80,472.28
82.40293,468.32,470.68
82.42322,468.75,470.59
82.44302,471.95,474.44
82.46281,470.88,470.11
82.48349,470.68,471.88
82.50360,470.34,473.40
82.52363,469.74,472.68
82.54201,470.85,473.39
82.56205,471.41,471.91
82.58193,469.48,473.45
82.60232,471.01,472.86
82.62343,469.95,471.87
82.64224,471.26,471.68
82.66250,472.03,471.67
82.68230,470.12,472.16
82.70289,468.98,470.56
82.72207,469.92,470.01
82.74329,468.78,471.96
82.76219,471.67,470.36
82.78254,470.00,472.26
82.80295,469.25,470.39
82.82282,470.75,473.48
82.84288,471.62,472.23
82.86230,472.00,470.08
82.88316,469.76,471.51
82.90311,467.83,472.72
82.92378,470.48,473.60
82.94374,471.02,472.39
82.96369,468.62,472.84
82.98410,468.04,471.15
83.00331,468.92,471.59
83.02339,470.55,474.90
83.04303,470.64,472.39
83.06301,471.39,470.83
83.08342,471.92,471.49
83.10492,468.79,469.74
83.12347,471.14,469.06
83.14451,467.78,471.82
83.16343,467.67,470.91
83.18460,469.77,470.81
83.20433,468.25,472.63
83.22443,467.03,473.32
83.24456,470.87,470.87
83.26295,470.70,471.68
83.28442,467.89,468.06
83.30300,471.25,471.72
83.32437,469.07,469.84
83.34339,469.99,469.35
83.36392,469.74,468.45
83.38436,469.88,470.58
83.40412,469.95,470.90
83.42323,470.92,469.96
83.44328,470.37,470.79
83.46423,467.70,472.23
83.48354,466.53,470.83
83.50427,467.12,463.52
83.52304,467.80,449.67
83.54291,466.44,432.05
83.56390,466.21,414.72
83.58398,462.41,395.81
83.60375,460.67,378.47
83.62320,460.74,366.03
83.64356,461.82,355.23
83.66359,461.30,349.45
83.68292,462.00,344.56
83.70397,460.93,340.85
83.72465,460.82,343.65
83.74419,462.71,346.14
83.76468,464.04,356.34
83.78372,464.65,363.60
83.80483,464.87,369.26
83.82439,464.92,378.67
83.84271,467.73,391.04
83.86377,467.12,400.26
83.88412,469.09,408.86
83.90312,466.24,415.59
83.92455,469.54,424.33
83.94353,465.59,429.91
83.96469,464.81,433.01
83.98366,469.13,440.41
84.00309,469.07,442.08
84.02358,468.43,447.42
84.04437,469.72,449.66
84.06364,468.47,454.01
84.08452,471.45,465.25
84.10280,469.45,491.47
84.12327,473.12,524.12
84.14443,472.17,565.45
84.16336,473.98,600.65
84.18391,475.08,626.23
84.20443,476.55,627.77
84.22437,476.83,623.06
84.24495,474.74,611.21
84.26405,473.68,596.43
84.28474,469.09,581.06
84.30424,468.32,568.83
84.32405,469.62,552.11
84.34557,468.47,542.25
84.36595,468.72,531.23
84.38490,467.04,521.78
84.40430,467.23,511.40
84.42428,466.00,505.60
84.44405,466.78,497.84
84.46419,465.05,496.69
84.48432,465.38,490.90
84.50446,465.25,490.54
84.52475,464.92,486.05
84.54451,466.24,485.64
84.56424,466.94,481.65
84.58502,466.07,479.33
84.60536,465.95,478.35
84.62494,465.74,475.97
84.64657,467.42,473.69
84.66539,465.52,475.74
84.68548,464.62,471.22
84.70499,464.51,469.70
84.72486,462.45,471.79
84.74529,464.32,470.24
84.76627,462.56,470.59
84.78652,464.84,469.55
84.80644,463.99,472.09
84.82664,462.71,472.69
84.84657,460.52,472.37
84.86521,461.57,472.32
84.88684,463.03,468.74
84.90662,465.42,468.80
84.92564,463.10,468.80
84.94641,466.36,469.79
84.96546,464.36,466.69
84.98656,463.81,469.12
85.00744,463.80,468.64
85.02685,462.30,467.19
85.04684,460.02,467.43
85.06646,461.70,466.04
85.08583,463.08,473.05
85.10705,459.39,476.18
85.12769,461.43,474.90
85.14776,463.85,477.74
85.16642,464.95,476.11
85.18708,463.43,472.88
85.20586,460.17,475.59
85.22740,460.81,473.71
85.24730,460.09,471.71
85.26875,457.91,471.79
85.28922,458.05,472.64
85.30895,454.89,470.27
85.32795,454.19,470.98
85.34880,452.91,470.47
85.37084,452.88,468.61
85.38915,453.76,468.64
85.40992,452.95,468.05
85.42990,451.51,469.20
85.45175,450.86,469.11
85.47120,451.75,467.88
85.49282,454.59,465.92
85.51266,453.06,465.85
85.53280,453.81,465.59
85.55223,453.11,464.29
85.57298,454.35,464.30
85.59277,457.11,464.39
85.61277,453.89,466.42
85.63179,456.06,464.76
85.65353,456.86,463.73
85.67217,454.56,463.13
85.69333,455.75,462.28
85.71229,457.51,463.65
85.73297,456.83,462.90
85.75204,457.00,464.48
85.77298,458.31,460.99
85.79288,460.02,461.21
85.81244,461.10,461.84
85.83240,457.56,461.93
85.85230,460.81,463.28
85.87186,458.08,461.26
85.89378,459.49,462.31
85.91255,458.39,462.79
85.93315,459.64,463.41
85.95208,457.00,460.85
85.97274,455.87,464.03
85.99201,454.29,463.20
86.01190,455.86,462.17
86.03172,454.85,459.93
86.05332,454.50,462.63
86.07268,452.68,460.99
86.09329,451.85,460.44
86.11306,452.37,461.94
86.13383,452.77,460.09
86.15222,454.35,458.99
86.17292,454.37,460.64
86.19303,452.38,460.61
86.21218,453.45,458.79
86.23184,452.50,460.56
86.25370,454.56,460.97
86.27192,454.79,459.14
86.29233,451.55,459.84
86.31374,455.40,460.52
86.33346,454.64,457.43
86.35267,455.27,455.95
86.37353,455.74,458.09
86.39245,456.64,457.26
86.41190,457.11,457.32
86.43206,455.00,454.70
86.45315,456.40,456.92
86.47211,457.02,457.93
86.49275,455.52,456.46
86.51349,453.53,457.55
86.53267,455.58,457.83
86.55440,458.48,460.21
86.57373,455.74,458.64
86.59445,456.91,461.03
86.61276,456.59,461.06
86.63300,456.90,461.65
86.65295,458.62,461.22
86.67387,459.40,460.65
86.69385,459.12,461.24
86.71333,459.74,460.97
86.73303,458.68,462.65
86.75350,457.76,460.37
86.77439,456.46,460.50
86.79348,457.19,460.68
86.81369,455.82,463.44
86.83409,456.35,461.46
86.85489,456.79,461.08
86.87517,456.06,460.71
86.89437,457.36,463.98
86.91539,458.21,462.84
86.93532,460.49,461.42
86.95381,459.10,460.01
86.97393,459.37,460.12
86.99415,455.79,460.49
87.01447,456.57,463.91
87.03538,455.96,464.34
87.05466,456.79,462.20
87.07422,456.64,462.17
87.09380,461.09,464.37
87.11388,459.93,465.83
87.13590,458.64,462.60
87.15478,461.73,461.93
87.17575,460.01,463.36
87.19514,459.69,463.34
87.21409,457.02,463.97
87.23607,459.00,465.47
87.25505,459.79,464.19
87.27482,461.89,464.48
87.29656,462.19,466.00
87.31564,462.11,463.66
87.33658,461.96,465.50
87.35577,464.54,463.84
87.37644,464.50,466.43
87.39613,465.62,463.88
87.41490,463.08,466.59
87.43584,462.59,466.19
87.45634,464.75,463.27
87.47736,465.42,467.18
87.49645,464.54,466.43
87.51560,467.04,466.34
87.53734,467.08,465.99
87.55678,466.65,464.64
87.57843,466.93,465.54
87.59772,468.83,466.74
87.61821,469.50,465.89
87.63870,471.37,466.13
87.65879,469.73,465.95
87.67819,470.69,464.53
87.69686,471.94,464.03
87.71691,471.92,468.66
87.73797,470.66,467.08
87.75676,471.21,467.41
87.77746,468.61,468.22
87.79831,470.77,471.74
87.81675,467.53,472.07
87.83880,469.68,471.02
87.85843,466.78,471.11
87.87692,469.37,472.27
87.89808,468.06,473.21
87.91682,467.38,467.97
87.93693,467.97,457.34
87.95809,464.76,445.40
87.97712,465.30,423.28
87.99768,463.35,407.17
88.01784,464.34,393.52
88.03911,463.52,378.99
88.05771,466.90,370.45
88.07932,467.26,364.98
88.09927,467.24,358.79
88.11822,466.90,357.97
88.13914,469.05,358.05
88.15786,469.27,359.49
88.17973,466.37,361.79
88.20044,469.28,363.04
88.21906,471.45,370.61
88.24020,472.96,374.36
88.25922,471.71,380.77
88.27900,472.83,390.35
88.29965,474.36,395.60
88.31968,472.53,405.27
88.34016,472.13,411.49
88.35908,474.37,417.92
88.38075,473.73,425.80
88.39893,473.14,431.76
88.41900,473.14,434.28
88.43913,475.82,441.34
88.45978,475.41,445.00
88.47964,475.17,449.76
88.49930,475.17,453.59
88.51980,473.70,453.50
88.54005,474.06,457.26
88.55944,474.49,460.68
88.58078,472.88,467.60
88.60031,473.58,486.23
88.62021,475.09,517.23
88.64034,478.28,552.56
88.65917,482.52,586.34
88.67926,479.63,611.46
88.70060,481.80,630.28
88.71924,481.59,635.65
88.73894,479.78,634.12
88.75994,478.89,620.62
88.77945,476.94,603.41
88.79930,476.00,585.40
88.81986,474.58,572.30
88.83955,474.93,555.53
88.85920,475.78,540.69
88.87900,474.80,533.01
88.89967,473.88,519.32
88.92044,471.00,511.89
88.94064,473.34,505.19
88.95890,470.36,500.01
88.98017,473.43,493.63
89.00053,470.94,487.85
89.01934,472.86,488.14
89.04003,473.59,483.00
89.06006,470.50,483.61
89.07862,472.00,481.88
89.10013,471.77,480.38
89.11881,473.68,479.04
89.13972,473.35,477.89
89.15920,472.58,475.87
89.17985,472.09,476.62
89.20017,472.71,477.88
89.21971,475.60,476.65
89.24062,473.06,477.45
89.25907,473.22,477.33
89.27944,473.98,476.48
89.30004,472.88,477.25
89.31897,472.74,474.74
89.34048,474.09,473.67
89.35912,475.19,474.49
89.37893,474.25,472.99
89.40008,474.74,472.44
89.42052,476.78,476.15
89.44058,477.01,473.21
89.45955,474.95,474.73
89.48045,474.59,473.03
89.50056,474.34,473.92
89.52047,473.29,473.99
89.53995,474.01,476.40
89.55917,473.29,475.19
89.57964,473.92,473.07
89.59941,475.33,475.21
89.61916,475.73,475.26
89.63995,474.82,475.55
89.65884,475.21,472.49
89.67972,475.12,471.16
89.69908,473.35,472.33
89.72033,474.50,469.98
89.73959,472.99,472.56
89.75993,473.05,472.24
89.77878,471.06,471.89
89.79910,473.10,472.73
89.82012,473.38,471.21
89.84057,474.18,470.66
89.85976,473.58,473.47
89.88075,476.61,474.82
89.90016,475.51,476.28
89.91924,475.66,478.16
89.93933,472.88,475.61
89.95871,474.97,475.77
89.97983,476.07,475.39
90.00031,474.58,475.05
90.02020,474.51,474.57
90.04052,475.65,474.95
90.05956,476.72,472.45
90.07909,476.61,473.23
90.10013,474.22,473.34
90.11966,477.36,474.11
90.14033,472.67,476.05
90.15898,472.69,475.29
90.18069,473.75,474.87
90.20032,473.63,475.69
90.21951,471.43,473.48
90.23979,473.76,475.34
90.25996,472.19,474.29
90.27975,473.41,473.65
90.29924,473.56,473.08
90.31943,470.78,476.19
90.33963,472.02,476.40
90.36126,474.96,474.89
90.38164,473.16,475.30
90.40232,473.45,477.08
90.42470,472.44,475.48
90.44344,470.95,477.55
90.46290,472.67,477.36
90.48378,472.15,477.42
90.50414,470.65,478.68
90.52391,470.16,478.10
90.54322,470.29,475.64
90.56371,471.37,476.57
90.58301,468.51,474.53
90.60328,469.77,474.97
90.62435,466.36,475.59
90.64433,468.58,474.12
90.66354,467.98,473.50
90.68470,468.32,474.99
90.70478,469.99,474.36
90.72416,467.86,473.11
90.74351,465.83,474.29
90.76543,468.43,474.97
90.78413,465.81,474.12
90.80486,465.31,475.86
90.82489,468.03,473.19
90.84435,466.57,473.69
90.86496,467.18,471.88
90.88433,467.95,474.90
90.90547,466.82,474.68
90.92553,467.59,473.69
90.94519,466.68,475.30
90.96486,466.60,474.65
90.98534,467.84,472.12
91.00506,467.69,473.69
91.02533,466.61,471.14
91.04473,463.03,471.21
91.06496,464.63,470.50
91.08646,464.77,471.24
91.10601,465.57,471.78
91.12630,462.56,469.39
91.14643,462.49,470.19
91.16646,464.58,469.15
91.18565,464.78,470.94
91.20511,463.56,471.84
91.22546,464.97,473.59
91.24624,467.00,471.35
91.26535,463.22,475.27
91.28504,463.32,473.79
91.30591,464.47,471.93
91.32483,463.45,470.79
91.34502,464.24,469.85
91.36649,466.74,472.44
91.38492,463.58,471.76
91.40605,465.61,469.25
91.42663,464.63,472.08
91.44656,462.38,469.93
91.46669,463.27,469.95
91.48594,462.13,469.73
91.50582,464.55,469.67
91.52523,463.98,471.08
91.54486,463.41,471.81
91.56644,461.80,469.62
91.58500,462.23,469.77
91.60657,464.64,469.86
91.62526,463.66,469.18
91.64627,461.76,471.99
91.66506,461.50,471.42
91.68630,463.68,468.08
91.70599,460.61,471.10
91.72552,461.73,472.38
91.74612,461.28,471.27
91.76528,461.84,470.39
91.78514,461.77,470.16
91.80530,460.38,468.24
91.82601,463.82,470.06
91.84642,463.42,468.80
91.86508,461.76,470.29
91.88484,463.59,473.54
91.90559,458.81,467.32
91.92562,457.98,461.24
91.94656,455.64,453.54
91.96474,455.55,441.23
91.98607,455.59,430.06
92.00586,453.35,417.14
92.02487,449.81,405.81
92.04529,451.69,395.20
92.06593,451.09,382.53
92.08556,450.61,372.35
92.10482,447.34,361.65
92.12510,450.58,355.39
92.14640,451.61,352.46
92.16541,455.09,350.56
92.18602,457.13,350.53
92.20501,456.88,356.17
92.22580,454.46,358.51
92.24538,454.65,366.43
92.26517,455.68,370.66
92.28531,455.15,379.65
92.30472,456.30,385.04
92.32522,454.51,394.41
92.34640,455.77,402.28
92.36492,454.75,411.54
92.38647,458.59,415.94
92.40540,458.26,423.27
92.42654,460.40,432.45
92.44669,459.70,434.77
92.46592,458.52,440.40
92.48552,459.14,446.17
92.50491,462.44,450.11
92.52494,461.89,454.76
92.54636,458.77,458.50
92.56588,462.96,476.94
92.58652,463.36,505.69
92.60589,467.85,541.51
92.62536,470.69,572.92
92.64516,475.70,604.88
92.66551,478.83,627.47
92.68489,479.63,642.56
92.70625,481.92,644.16
92.72460,480.87,636.91
92.74562,480.60,623.58
92.76652,477.66,605.72
92.78664,474.13,588.98
92.80575,475.57,571.13
92.82494,470.19,555.77
92.84606,469.35,541.26
92.86643,469.46,531.99
92.88592,470.02,519.80
92.90472,466.58,510.85
92.92621,465.84,504.37
92.94510,466.29,501.45
92.96617,467.24,493.65
92.98518,462.87,488.54
93.00521,466.06,486.77
93.02639,465.92,483.93
93.04647,464.53,483.60
93.06631,464.51,482.90
93.08659,461.77,479.64
93.10600,461.55,479.70
93.12619,464.39,477.96
93.14460,462.17,476.40
93.16555,464.30,472.16
93.18524,462.59,473.03
93.20658,460.46,472.37
93.22632,461.63,469.50
93.24676,462.34,471.50
93.26584,463.96,471.52
93.28556,461.51,470.75
93.30646,463.82,470.46
93.32617,463.07,470.20
93.34587,463.11,470.72
93.36633,463.46,471.20
93.38495,463.37,472.34
93.40648,464.32,468.43
93.42595,461.31,468.48
93.44585,462.06,471.74
93.46514,460.34,471.95
93.48472,462.41,470.07
93.50571,462.38,471.56
93.52522,462.88,471.05
93.54460,463.04,469.19
93.56541,461.10,469.56
93.58530,463.48,470.48
93.60636,459.99,469.63
93.62585,461.40,469.54
93.64541,460.97,467.10
93.66598,460.97,466.68
93.68488,460.30,470.36
93.70499,463.88,466.57
93.72558,460.74,470.37
93.74607,462.62,466.39
93.76539,462.03,468.06
93.78580,461.85,467.49
93.80578,459.83,468.13
93.82658,459.93,468.85
93.84571,461.89,470.13
93.86502,463.29,469.45
93.88637,463.64,469.21
93.90599,462.84,469.21
93.92620,464.16,470.78
93.94461,463.03,470.18
93.96644,465.53,469.72
93.98599,461.62,470.75
94.00474,464.40,472.92
94.02544,462.36,472.68
94.04502,461.89,471.66
94.06477,459.40,472.18
94.08669,460.94,472.50
94.10606,461.88,471.49
94.12497,461.25,471.30
94.14501,463.44,473.78
94.16600,462.38,471.12
94.18598,459.18,473.55
94.20535,458.26,474.56
94.22497,459.38,472.78
94.24533,458.58,471.51
94.26554,460.76,472.02
94.28543,457.77,474.32
94.30494,461.54,473.73
94.32661,460.61,473.04
94.34470,459.18,471.18
94.36543,461.27,471.21
94.38598,461.09,473.21
94.40528,459.70,470.91
94.42527,460.08,472.99
94.44527,460.54,473.15
94.46557,459.28,472.58
94.48519,461.73,472.90
94.50667,460.66,474.15
94.52511,459.64,472.10
94.54494,458.84,471.87
94.56592,459.29,473.74
94.58645,459.56,472.61
94.60654,459.97,471.46
94.62666,460.74,473.12
94.64521,459.61,471.87
94.66619,461.29,469.92
94.68545,463.62,470.78
94.70549,462.10,472.81
94.72498,461.31,471.93
94.74514,460.15,471.79
94.76489,462.23,474.96
94.78566,460.32,472.43
94.80565,459.46,469.50
94.82472,459.38,472.22
94.84465,460.13,472.79
94.86512,461.30,471.02
94.88673,457.98,472.87
94.90471,458.10,470.22
94.92462,460.75,470.83
94.94493,460.11,468.99
94.96547,461.07,469.07
94.98490,459.38,468.81
95.00655,459.50,468.54
95.02462,459.36,471.29
95.04613,461.75,474.67
95.06584,460.57,472.71
95.08640,462.24,475.70
95.10556,461.56,474.35
95.12538,461.92,474.10
95.14496,458.72,476.38
95.16490,459.80,475.12
95.18629,458.03,475.27
95.20602,455.37,473.91
95.22568,455.35,472.83
95.24574,455.36,473.84
95.26557,455.95,473.79
95.28622,458.69,473.77
95.30517,458.10,472.73
95.32721,457.54,470.41
95.34561,458.47,469.77
95.36593,460.04,471.06
95.38588,459.94,469.67
95.40677,456.60,469.84
95.42575,458.12,469.26
95.44661,457.05,468.37
95.46569,458.25,467.61
95.48679,458.91,469.75
95.50550,454.14,469.83
95.52703,453.47,467.73
95.54755,456.62,465.54
95.56696,456.50,465.11
95.58616,453.62,468.05
95.60652,456.44,467.21
95.62628,452.79,469.14
95.64741,455.61,469.25
95.66568,456.31,469.59
95.68663,453.80,468.41
95.70706,453.90,469.55
95.72565,456.56,466.78
95.74678,453.98,467.93
95.76575,454.59,466.68
95.78640,453.26,467.52
95.80689,455.19,469.09
95.82635,454.32,468.68
95.84604,453.29,469.68
95.86716,454.39,466.39
95.88698,455.45,469.29
95.90688,455.17,470.68
95.92672,452.84,467.37
95.94690,455.08,467.20
95.96545,455.93,468.41
95.98565,452.72,469.42
96.00727,453.03,469.34
96.02603,455.82,469.86
96.04724,456.23,465.99
96.06647,454.83,467.62
96.08631,455.65,468.11
96.10719,452.15,468.33
96.12637,453.97,466.57
96.14701,454.55,466.19
96.16620,456.56,467.42
96.18586,453.27,466.04
96.20679,455.96,465.61
96.22636,455.22,470.90
96.24734,454.60,468.83
96.26715,454.54,464.81
96.28629,454.30,452.26
96.30608,454.47,441.00
96.32597,454.47,425.06
96.34612,452.66,409.30
96.36619,453.68,390.64
96.38739,449.52,374.43
96.40696,448.45,362.16
96.42794,448.20,350.34
96.44736,448.34,343.76
96.46835,446.13,338.47
96.48742,446.20,340.83
96.50760,446.75,339.96
96.52664,450.26,345.92
96.54727,449.71,353.71
96.56670,450.90,359.14
96.58680,453.16,369.45
96.60700,453.05,381.14
96.62769,456.10,389.57
96.64751,452.98,399.36
96.66723,454.59,406.15
96.68689,451.81,412.16
96.70705,453.18,420.76
96.72704,454.68,427.64
96.74797,455.49,431.75
96.76855,453.09,436.47
96.78844,454.26,452.54
96.80671,455.47,475.63
96.82793,457.82,505.94
96.84759,460.05,535.77
96.86680,458.39,560.31
96.88704,460.23,581.36
96.90796,460.57,599.64
96.92793,460.02,610.48
96.94726,458.10,620.82
96.96685,457.41,621.60
96.98713,454.21,610.27
97.00836,451.74,597.22
97.02700,453.42,583.92
97.04686,454.28,566.22
97.06850,449.38,554.59
97.08786,451.62,541.95
97.10731,449.05,529.79
97.12770,450.19,520.26
97.14787,450.40,508.10
97.16806,448.15,500.84
97.18703,450.94,494.92
97.20704,452.25,488.34
97.22710,453.39,485.42
97.24826,456.85,478.51
97.26679,456.06,476.31
97.28822,457.02,474.03
97.30736,460.44,471.91
97.32650,459.53,467.70
97.34798,458.14,465.96
97.36694,457.38,468.55
97.38792,457.23,463.98
97.40823,456.65,467.14
97.42718,455.65,463.01
97.44708,453.96,464.69
97.46783,451.60,466.78
97.48811,454.33,463.88
97.50816,454.92,463.69
97.52632,455.02,465.33
97.54673,451.83,462.85
97.56756,453.01,462.70
97.58741,455.01,465.45
97.60674,453.16,464.86
97.62702,455.05,464.38
97.64786,453.09,464.10
97.66650,456.43,465.00
97.68782,455.65,466.20
97.70846,453.54,467.60
97.72764,455.48,466.93
97.74669,453.91,468.08
97.76754,456.67,464.89
97.78666,454.97,467.18
97.80809,453.15,467.30
97.82831,454.20,465.99
97.84769,457.49,468.07
97.86726,457.56,466.69
97.88714,457.18,466.35
97.90744,454.34,465.81
97.92672,453.53,467.55
97.94867,453.86,464.26
97.96750,452.20,464.04
97.98678,453.71,464.64
98.00751,451.33,463.70
98.02682,454.78,465.70
98.04658,452.54,466.98
98.06704,454.41,466.95
98.08712,453.15,463.57
98.10661,452.01,464.67
98.12824,453.39,463.84
98.14788,454.20,464.91
98.16668,451.09,467.08
98.18765,454.29,465.33
98.20657,454.31,466.21
98.22699,453.85,464.20
98.24663,451.55,466.13
98.26651,453.84,466.53
98.28739,453.75,466.12
98.30771,451.84,465.42
98.32711,453.64,465.08
98.34743,454.34,466.79
98.36673,455.44,467.28
98.38854,452.65,464.57
98.40854,455.23,462.77
98.42776,455.68,465.66
98.44740,455.26,463.63
98.46799,454.99,462.73
98.48720,455.38,463.22
98.50797,454.19,464.43
98.52667,452.79,465.81
98.54802,453.59,464.32
98.56771,453.13,463.03
98.58786,453.51,464.50
98.60772,454.87,465.19
98.62665,451.10,465.31
98.64761,453.65,464.41
98.66689,451.69,466.28
98.68730,452.06,464.68
98.70847,453.93,464.12
98.72810,452.82,465.78
98.74679,454.17,465.46
98.76810,452.14,465.00
98.78727,453.18,465.77
98.80720,451.79,467.55
98.82779,452.43,463.95
98.84685,453.47,465.51
98.86813,451.13,465.95
98.88710,451.73,466.02
98.90717,453.22,467.70
98.92795,454.23,465.95
98.94802,452.37,465.98
98.96754,455.18,466.72
98.98704,452.90,467.12
99.00756,455.38,468.12
99.02750,453.24,467.15
99.04703,456.92,464.12
99.06716,454.19,463.20
99.08825,456.78,461.01
99.10808,454.71,462.76
99.12646,455.24,463.22
99.14762,455.31,462.08
99.16790,452.18,460.49
99.18674,454.97,459.43
99.20741,455.07,459.56
99.22750,454.67,461.52
99.24678,454.06,462.96
99.26728,454.09,460.23
99.28676,452.22,464.25
99.30717,453.15,461.55
99.32722,454.97,464.74
99.34819,455.45,463.20
99.36670,454.57,464.29
99.38665,453.44,466.93
99.40764,453.03,466.31
99.42786,455.06,465.36
99.44731,456.47,466.01
99.46764,456.43,465.81
99.48751,452.30,464.96
99.50680,455.05,465.32
99.52748,454.11,464.47
99.54681,453.82,463.18
99.56668,452.40,461.08
99.58713,451.90,463.94
99.60665,453.25,463.44
99.62744,452.97,464.65
99.64707,451.90,465.37
99.66796,452.74,462.40
99.68687,453.44,464.26
99.70768,453.25,465.10
99.72801,452.51,465.20
99.74761,452.88,466.69
99.76655,452.48,465.91
99.78651,455.97,467.09
99.80829,453.86,467.96
99.82782,456.85,464.74
99.84678,455.65,466.40
99.86658,454.84,464.72
99.88785,456.84,467.36
99.90690,456.94,464.95
99.92723,456.19,466.67
99.94682,454.19,467.42
99.96795,455.36,467.31
99.98828,454.00,464.76
100.00679,454.10,466.04
100.02874,453.92,463.17
100.04675,455.06,465.90
100.06888,454.67,464.45
100.08638,457.35,462.61
100.10763,452.82,465.96
100.12766,453.33,466.51
100.14765,454.73,464.47
100.16669,454.21,466.04
100.18877,455.31,466.20
100.20779,454.91,462.25
100.22704,454.00,462.35
100.24791,453.15,463.57
100.26682,454.55,461.63
100.28720,453.46,462.06
100.30760,456.20,461.12
100.32753,454.41,463.11
100.34726,453.33,463.27
100.36745,455.18,464.83
100.38861,453.59,466.14
100.40758,454.51,463.34
100.42633,456.35,464.89
100.44642,456.21,464.80
100.46710,452.97,464.06
100.48858,455.44,464.98
100.50762,454.86,465.65
100.52687,453.71,463.82
100.54711,454.41,466.19
100.56794,457.13,466.35
100.58742,453.85,465.58
100.60614,452.43,463.73
100.62886,453.33,465.96
100.64689,455.23,464.63
100.66796,454.25,463.86
100.68764,455.11,464.42
100.70824,453.96,464.53
100.72891,453.61,464.63
100.74745,450.97,460.61
100.76748,451.79,454.89
100.78702,453.39,438.93
100.80791,450.78,420.26
100.82605,449.86,402.28
100.84652,453.06,384.93
100.86884,451.41,370.48
100.88633,455.10,358.30
100.90774,455.51,350.94
100.92638,454.90,345.58
100.94625,454.00,339.14
100.96673,455.49,339.73
100.98771,454.87,342.82
101.00739,452.65,350.57
101.02746,454.93,353.27
101.04768,450.16,360.94
101.06733,450.87,370.11
101.08774,453.66,378.07
101.10621,451.84,384.62
101.12734,454.05,396.04
101.14701,454.46,405.62
101.16726,456.76,412.86
101.18610,454.16,420.84
101.20770,457.52,428.73
101.22686,457.02,431.38
101.24626,455.41,436.43
101.26872,454.98,441.61
101.28881,458.93,449.13
101.30630,458.22,468.72
101.32637,455.22,495.72
101.34744,455.79,526.59
101.36878,450.26,560.36
101.38667,448.74,582.98
101.40620,451.75,605.82
101.42610,456.36,621.91
101.44728,458.47,626.32
101.46804,460.51,617.49
101.48649,461.21,606.30
101.50834,464.27,588.23
101.52773,463.93,575.09
101.54730,460.70,557.54
101.56734,459.78,545.83
101.58618,460.20,530.93
101.60675,459.00,520.35
101.62748,456.86,513.69
101.64609,455.92,505.49
101.66731,455.31,499.07
101.68635,455.86,492.52
101.70782,454.28,489.91
101.72646,455.81,485.39
101.74726,456.76,481.88
101.76847,455.37,478.73
101.78705,455.73,475.51
101.80704,455.79,472.83
101.82646,457.08,472.76
101.84719,455.03,469.33
101.86738,455.58,469.12
101.88712,457.09,467.76
101.90694,456.94,469.36
101.92682,454.64,466.05
101.94793,457.95,466.15
101.96790,456.77,465.73
101.98715,456.44,465.15
102.00641,459.32,464.86
102.02797,456.91,465.55
102.04717,457.20,464.12
102.06617,458.46,465.95
102.08703,460.14,466.34
102.10753,460.34,464.94
102.12690,456.74,468.78
102.14797,456.22,469.54
102.16665,458.46,467.49
102.18799,457.23,467.84
102.20613,456.96,468.21
102.22796,457.18,466.83
102.24794,455.21,468.28
102.26752,457.54,464.00
102.28732,457.27,463.87
102.30790,458.69,466.33
102.32696,459.92,467.00
102.34834,460.37,467.53
102.36710,460.45,466.34
102.38700,459.13,464.11
102.40630,458.54,463.41
102.42687,457.80,465.34
102.44605,459.20,463.34
102.46721,459.25,464.87
102.48690,458.61,464.08
102.50771,456.76,466.24
102.52794,458.21,463.20
102.54633,460.16,463.39
102.56841,459.95,465.96
102.58799,456.50,463.78
102.60705,456.63,465.90
102.62734,455.95,463.55
102.64610,457.87,464.76
102.66608,459.55,465.56
102.68739,456.43,467.63
102.70763,456.35,464.25
102.72790,457.17,466.51
102.74707,455.80,464.79
102.76752,457.33,465.56
102.78779,459.19,466.87
102.80725,459.68,466.01
102.82680,455.54,462.18
102.84748,457.16,461.85
102.86721,458.56,462.55
102.88743,456.63,463.91
102.90650,458.69,466.01
102.92780,455.70,463.42
102.94665,455.81,464.42
102.96683,455.80,462.38
102.98767,455.17,465.34
103.00734,457.25,463.20
103.02759,454.67,464.35
103.04634,457.48,463.70
103.06659,456.26,464.06
103.08698,457.24,460.93
103.10654,456.50,461.26
103.12701,454.91,461.63
103.14791,455.18,464.30
103.16726,457.90,464.13
103.18619,454.78,462.50
103.20685,456.60,462.38
103.22688,457.02,463.85
103.24652,457.15,464.91
103.26643,454.85,464.28
103.28798,455.28,467.69
103.30679,457.02,469.17
103.32712,457.01,469.45
103.34687,455.96,467.40
103.36723,454.56,468.01
103.38673,455.47,469.03
103.40661,456.16,468.38
103.42601,456.72,469.10
103.44799,458.24,466.51
103.46732,455.93,466.89
103.48643,459.25,467.53
103.50622,458.16,465.05
103.52791,456.42,465.37
103.54724,455.51,467.32
103.56768,457.03,467.88
103.58755,456.10,467.04
103.60657,456.21,467.60
103.62623,455.71,467.94
103.64757,455.72,467.34
103.66679,454.79,466.86
103.68759,457.48,467.64
103.70679,456.65,467.26
103.72661,455.07,468.06
103.74689,457.55,464.21
103.76609,455.06,467.19
103.78868,457.99,464.37
103.80797,455.30,464.91
103.82790,455.60,466.64
103.84678,455.77,465.16
103.86656,455.74,463.26
103.88664,452.64,466.70
103.90695,452.23,463.34
103.92613,454.63,462.30
103.94794,452.85,465.35
103.96790,452.29,462.54
103.98604,456.38,464.18
104.00792,452.88,465.95
104.02648,455.10,466.19
104.04707,453.75,465.61
104.06743,454.48,466.34
104.08659,457.19,464.57
104.10691,455.76,463.27
104.12738,457.85,466.47
104.14696,454.43,466.03
104.16664,457.20,466.30
104.18727,456.14,464.74
104.20744,455.28,466.29
104.22780,455.50,466.75
104.24760,453.66,464.44
104.26624,457.94,464.86
104.28737,455.83,462.78
104.30718,454.99,462.95
104.32696,455.32,464.30
104.34745,456.70,465.47
104.36719,453.64,466.87
104.38796,455.04,464.31
104.40724,453.38,463.82
104.42643,453.75,464.47
104.44796,454.81,464.73
104.46768,456.21,462.10
104.48673,458.69,464.57
104.50782,456.33,461.30
104.52644,459.90,462.92
104.54765,460.60,462.03
104.56706,456.19,463.66
104.58781,459.93,466.61
104.60612,457.18,466.03
104.62626,457.89,465.42
104.64681,457.18,465.71
104.66620,456.24,464.31
104.68733,455.06,462.87
104.70750,453.93,462.79
104.72662,455.50,463.47
104.74681,455.83,460.03
104.76630,455.83,459.28
104.78797,458.80,459.56
104.80626,456.14,459.12
104.82780,459.64,456.70
104.84750,458.39,455.43
104.86731,456.12,456.44
104.88668,455.98,455.10
104.90732,456.49,458.38
104.92744,458.35,459.06
104.94636,457.70,456.32
104.96605,458.84,460.56
104.98601,457.07,459.79
105.00634,457.62,459.86
105.02766,457.84,458.78
105.04692,457.45,462.47
105.06654,459.03,461.58
105.08748,459.67,461.38
105.10771,458.47,465.22
105.12779,458.88,462.59
105.14606,458.81,463.49
105.16722,459.19,462.87
105.18644,455.50,465.23
105.20772,457.31,464.10
105.22684,458.42,464.67
105.24790,457.94,465.51
105.26637,458.30,467.26
105.28733,458.54,465.45
105.30739,461.04,456.35
105.32765,463.55,443.27
105.34641,463.15,426.58
105.36688,463.62,409.16
105.38629,463.56,392.87
105.40798,462.98,378.64
105.42765,464.16,367.53
105.44753,457.22,355.11
105.46825,455.55,344.53
105.48860,455.59,343.99
105.50832,452.30,340.12
105.52877,454.45,341.49
105.54791,451.38,347.70
105.56886,453.86,350.18
105.58701,452.57,360.45
105.60732,451.59,365.83
105.62863,450.09,375.30
105.64814,452.29,382.46
105.66787,450.30,391.71
105.68802,452.33,403.06
105.70706,451.05,407.84
105.72738,455.03,417.21
105.74788,455.66,423.33
105.76785,454.91,428.37
105.78745,454.71,434.23
105.80867,453.89,438.04
105.82856,457.98,457.19
105.84701,460.92,485.20
105.86878,461.57,520.65
105.88832,464.44,561.30
105.90757,465.98,589.35
105.92701,465.09,613.14
105.94878,469.01,628.58
105.96896,468.61,633.33
105.98752,470.64,626.98
106.00768,468.15,610.60
106.02793,467.50,596.74
106.04816,466.65,582.75
106.06762,465.83,565.41
106.08808,465.33,553.98
106.10747,465.46,540.29
106.12747,464.48,530.06
106.14819,463.92,519.63
106.16779,464.28,513.54
106.18765,463.96,503.86
106.20743,465.72,500.77
106.22713,461.28,492.27
106.24969,464.70,488.96
106.26723,460.91,483.82
106.29010,463.42,480.39
106.30893,460.59,475.24
106.32776,461.38,472.29
106.34726,459.40,470.79
106.36763,459.38,468.70
106.38896,460.85,468.48
106.40787,458.19,467.52
106.42849,459.82,465.70
106.44724,457.10,464.40
106.46783,458.11,466.07
106.48867,457.86,465.69
106.50746,456.95,465.11
106.52817,460.17,463.76
106.54794,459.78,462.67
106.56776,460.34,464.66
106.58838,460.86,464.47
106.60864,457.97,462.44
106.62843,460.58,467.06
106.64835,460.74,466.16
106.66972,461.61,467.31
106.68804,461.74,466.64
106.70951,460.34,467.58
106.72840,461.30,466.33
106.74944,463.13,465.57
106.76877,461.64,468.35
106.78817,463.93,469.77
106.80989,465.44,469.37
106.82893,463.86,467.42
106.84817,462.30,467.73
106.86891,462.16,470.63
106.88813,464.46,469.48
106.90987,464.27,471.75
106.92906,465.88,470.69
106.94959,464.51,472.89
106.96856,462.85,471.40
106.98992,463.26,469.47
107.00838,465.00,471.63
107.02933,462.67,473.23
107.04823,463.26,470.72
107.06994,462.63,470.50
107.08914,463.10,471.14
107.10953,465.24,469.44
107.12810,466.01,472.86
107.14923,463.63,472.69
107.16944,463.02,471.08
107.18920,463.09,471.37
107.20942,464.57,469.71
107.22854,464.54,469.56
107.24919,462.76,468.50
107.26922,465.59,468.72
107.28932,463.98,469.28
107.30876,462.86,469.40
107.32827,462.78,468.47
107.34951,461.89,470.81
107.36833,463.16,470.34
107.38933,464.42,469.43
107.40945,462.05,465.35
107.42910,464.52,466.29
107.44950,463.05,468.05
107.46872,462.00,465.03
107.48837,462.88,466.27
107.50944,461.34,465.29
107.52927,463.80,464.44
107.54861,464.94,464.91
107.56971,462.63,464.55
107.58922,462.65,466.14
107.60830,462.90,467.80
107.62870,466.31,466.95
107.64886,465.55,465.75
107.66887,465.70,465.43
107.68958,466.10,467.00
107.70848,465.86,468.50
107.72884,466.93,466.21
107.74845,464.31,466.26
107.76812,466.88,469.40
107.78811,464.94,468.05
107.80950,464.88,466.22
107.82885,466.02,467.61
107.84803,462.83,467.79
107.86841,464.59,467.63
107.88958,461.21,464.59
107.90999,460.52,467.28
107.92983,462.65,465.00
107.94825,461.83,468.65
107.96811,463.86,465.07
107.98921,463.48,466.62
108.00905,464.43,466.00
108.02822,462.46,465.73
108.04910,463.20,467.67
108.06993,464.49,463.90
108.08884,466.15,465.44
108.10936,462.97,464.33
108.12931,464.29,467.09
108.14995,466.45,464.90
108.16992,466.33,464.94
108.18804,465.92,466.41
108.20914,463.02,466.24
108.22853,467.00,468.01
108.24815,464.42,465.30
108.26978,463.12,468.67
108.28913,464.19,466.94
108.30887,463.52,466.83
108.32908,463.33,467.60
108.34813,464.88,469.19
108.36954,465.89,470.04
108.38852,466.16,466.17
108.41090,465.58,466.14
108.42941,462.80,469.35
108.44923,463.63,470.81
108.46918,465.29,469.98
108.48989,464.44,468.70
108.50934,466.81,467.37
108.52942,466.21,468.55
108.54847,464.32,468.17
108.56802,463.26,467.52
108.58986,463.00,466.73
108.60806,462.14,467.45
108.62899,462.42,469.30
108.64919,462.69,465.76
108.66846,463.32,467.94
108.68899,463.19,467.14
108.70945,465.92,468.90
108.72872,463.86,467.33
108.74872,464.57,467.10
108.76975,463.79,468.34
108.78972,466.84,468.61
108.80930,466.05,468.42
108.82923,465.36,468.67
108.84857,466.38,468.22
108.86888,463.80,464.79
108.88823,463.64,467.15
108.90810,462.69,465.07
108.92837,462.41,467.59
108.94829,461.83,465.57
108.96926,462.81,465.87
108.98952,463.27,468.78
109.00846,461.48,467.31
109.02855,463.89,467.75
109.04988,461.83,465.19
109.06898,465.21,466.79
109.08970,462.78,464.82
109.10977,464.32,466.39
109.12957,464.41,466.61
109.14886,465.17,467.68
109.16934,464.31,463.85
109.18820,462.82,464.28
109.20999,464.78,466.99
109.22937,465.61,464.76
109.24816,466.37,465.22
109.26968,467.81,465.23
109.28980,465.85,466.64
109.30816,464.86,465.58
109.32956,467.97,467.39
109.34907,464.78,466.13
109.36954,464.91,470.30
109.38908,467.45,466.82
109.40930,467.23,457.31
109.42853,465.54,444.56
109.44885,463.96,432.51
109.46864,467.38,417.23
109.48882,467.41,403.57
109.50815,467.44,391.28
109.52968,467.31,377.53
109.54850,466.14,367.95
109.56939,464.27,361.72
109.58828,463.04,355.44
109.60852,459.76,351.37
109.62931,457.73,350.19
109.64992,459.96,352.25
109.66980,459.18,357.15
109.68902,459.07,365.04
109.70908,458.01,369.81
109.72980,458.58,379.48
109.74825,460.01,387.82
109.76815,458.91,395.25
109.78823,460.90,403.75
109.80984,463.09,411.40
109.82852,461.53,420.67
109.84900,461.39,424.86
109.86984,466.01,432.58
109.88859,466.70,435.06
109.90828,465.55,442.02
109.92953,467.47,444.08
109.94890,468.43,447.31
109.96827,469.06,451.35
109.98935,467.30,451.70
110.00805,468.82,454.91
110.02955,468.72,457.48
110.04999,469.78,476.56
110.06835,473.05,507.16
110.08914,474.73,545.46
110.10889,477.66,583.64
110.12889,475.46,614.27
110.14897,476.98,631.98
110.16869,477.37,636.54
110.18957,474.23,632.67
110.20818,475.27,617.90
110.22959,471.53,600.66
110.24811,471.38,583.59
110.26870,469.96,566.39
110.28982,466.83,551.75
110.30919,470.74,537.14
110.32838,467.84,525.86
110.34950,469.12,516.34
110.36951,467.02,506.80
110.38924,468.70,500.73
110.40851,468.29,495.84
110.42810,465.94,489.41
110.44892,466.87,486.69
110.46853,465.54,483.33
110.48860,466.47,480.18
110.50812,465.55,476.50
110.52906,465.48,475.26
110.54866,465.57,471.25
110.56940,465.29,470.10
110.58955,461.52,468.25
110.60894,462.01,467.58
110.62940,465.63,468.82
110.64876,465.14,468.84
110.66889,465.85,466.59
110.68907,468.79,466.56
110.70898,469.82,468.25
110.72833,469.32,467.06
110.74944,468.26,468.13
110.76927,469.39,471.63
110.78982,470.53,472.66
110.80881,468.54,477.07
110.82828,474.88,495.26
110.84842,477.13,519.50
110.86995,481.91,553.79
110.88850,483.47,582.11
110.90864,484.85,597.57
110.92969,485.04,593.62
110.94871,479.99,578.36
110.96867,479.05,557.07
110.98803,476.16,530.44
111.00981,472.63,505.38
111.02841,471.81,484.71
111.04936,467.10,463.51
111.06864,466.42,448.42
111.08944,467.56,431.40
111.10992,466.32,422.95
111.12877,465.08,415.63
111.14849,463.28,412.46
111.16816,462.93,410.29
111.18920,462.76,412.05
111.20827,463.08,412.79
111.22950,463.13,415.42
111.24936,460.85,421.59
111.26894,462.63,422.68
111.28840,461.49,428.12
111.30825,460.89,431.72
111.32804,462.89,435.97
111.34902,463.89,436.74
111.37069,468.06,441.23
111.38990,466.13,445.68
111.41028,467.26,450.36
111.43078,468.43,453.58
111.44994,467.16,454.89
111.47060,469.88,456.34
111.48901,470.02,460.25
111.50914,468.36,461.04
111.52976,467.39,460.31
111.54916,469.21,463.04
111.57022,469.27,464.70
111.59097,470.91,464.42
111.60975,469.08,465.52
111.63134,470.25,465.16
111.65122,471.64,467.69
111.67164,471.19,469.16
111.69181,474.67,466.17
111.71024,471.26,467.48
111.73067,472.35,469.95
111.75050,472.13,471.33
111.77102,472.26,468.66
111.79096,472.98,472.13
111.81069,471.25,469.02
111.83002,473.09,472.59
111.85186,470.18,471.73
111.87014,470.82,469.23
111.89165,472.91,468.50
111.91050,471.72,470.92
111.93141,475.37,468.11
111.95121,473.16,469.98
111.97077,473.40,470.81
111.99017,472.14,467.88
112.01066,471.87,469.09
112.03199,475.23,468.78
112.05179,471.98,469.22
112.07190,474.87,470.49
112.09126,474.73,471.86
112.11026,473.49,471.17
112.13139,473.92,471.28
112.15124,474.71,472.07
112.17157,473.46,470.24
112.19192,473.33,471.53
112.21194,470.92,473.36
112.23154,471.81,469.52
112.25144,473.07,472.54
112.27027,472.13,472.35
112.29023,471.58,468.45
112.31037,471.34,472.20
112.33198,470.68,471.51
112.35134,472.45,472.25
112.37102,470.89,471.80
112.39118,471.31,472.56
112.41094,473.84,470.00
112.43028,469.86,473.57
112.45009,472.40,470.43
112.47152,469.12,473.16
112.49170,470.75,469.59
112.51040,470.31,472.57
112.53074,470.75,470.73
112.55070,471.42,471.58
112.57122,470.25,472.76
112.59179,472.03,472.08
112.61183,472.93,471.28
112.63006,471.05,472.91
112.65015,472.13,472.70
112.67096,471.03,473.05
112.69047,471.43,473.16
112.71059,471.00,471.24
112.73073,472.35,473.31
112.75022,471.21,469.92
112.77031,468.32,470.23
112.79059,471.67,471.79
112.81010,468.50,472.19
112.83195,469.36,472.36
112.85057,471.99,472.96
112.87142,470.62,472.03
112.89085,470.33,472.81
112.91118,471.97,473.69
112.93165,470.36,474.11
112.95143,471.08,473.67
112.97083,471.28,472.99
112.99082,472.55,472.50
113.01184,470.59,473.56
113.03151,470.56,474.21
113.05109,472.94,472.93
113.07277,472.54,473.39
113.09212,473.98,475.66
113.11186,472.44,472.59
113.13284,473.12,473.68
113.15111,475.89,475.32
113.17222,476.74,473.38
113.19255,477.29,475.45
113.21201,474.68,475.31
113.23175,477.07,477.45
113.25117,473.53,478.43
113.27195,477.34,482.24
113.29198,477.93,492.08
113.31296,477.53,504.88
113.33199,481.60,524.02
113.35224,483.85,538.52
113.37299,482.29,550.47
113.39128,483.08,551.35
113.41214,481.25,544.31
113.43242,476.23,524.88
113.45289,476.43,503.75
113.47248,470.84,484.96
113.49150,466.89,467.34
113.51112,464.97,453.15
113.53250,462.83,451.43
113.55128,462.70,457.63
113.57125,463.08,476.06
113.59178,462.60,498.33
113.61127,462.12,510.10
113.63165,462.08,508.70
113.65209,459.78,497.78
113.67240,455.29,485.45
113.69106,456.52,474.70
113.71239,455.62,463.50
113.73271,456.16,455.46
113.75289,457.20,448.72
113.77224,462.97,443.08
113.79295,463.26,438.90
113.81259,465.37,440.08
113.83136,468.39,447.78
113.85284,469.57,460.77
113.87272,477.08,482.08
113.89238,480.30,512.19
113.91270,484.39,537.18
113.93224,489.34,554.93
113.95286,492.55,565.71
113.97122,493.09,575.02
113.99166,494.66,580.71
114.01151,492.78,573.41
114.03205,489.76,556.59
114.05275,484.00,528.40
114.07243,477.81,501.38
114.09345,477.42,473.82
114.11407,479.20,452.76
114.13516,475.25,437.43
114.15478,475.57,428.17
114.17551,475.86,419.23
114.19500,475.11,417.27
114.21524,476.96,413.51
114.23575,476.49,413.70
114.25487,475.37,414.74
114.27555,472.41,418.85
114.29478,470.83,421.79
114.31537,471.88,423.62
114.33465,469.59,431.06
114.35510,471.88,433.09
114.37557,471.38,439.24
114.39467,468.69,445.18
114.41547,470.61,444.65
114.43446,465.69,449.78
114.45402,456.90,451.28
114.47419,454.37,452.31
114.49466,450.61,454.40
114.51533,452.21,455.20
114.53588,453.96,455.34
114.55592,453.11,460.63
114.57513,454.05,462.67
114.59566,459.26,465.68
114.61569,459.02,467.33
114.63562,464.60,472.26
114.65520,465.78,472.11
114.67542,468.34,476.23
114.69542,469.07,477.58
114.71410,473.95,478.06
114.73578,473.20,480.99
114.75555,471.73,479.64
114.77519,474.20,480.16
114.79552,474.32,475.98
114.81689,474.22,479.16
114.83576,472.69,475.55
114.85550,467.49,477.92
114.87682,455.08,474.19
114.89581,444.03,472.81
114.91584,434.33,471.07
114.93696,430.25,469.17
114.95631,427.82,468.64
114.97566,426.16,465.04
114.99558,427.88,467.24
115.01609,434.02,465.03
115.03650,438.50,465.55
115.05627,441.30,467.11
115.07528,446.51,468.80
115.09540,448.96,470.58
115.11593,453.32,472.67
115.13504,466.14,481.27
115.15566,475.34,489.98
115.17563,480.95,494.77
115.19637,486.63,494.24
115.21535,492.01,496.86
115.23691,492.02,495.70
115.25501,489.79,494.33
115.27620,490.54,494.61
115.29669,491.36,496.51
115.31576,491.41,497.75
115.33620,486.52,491.23
115.35660,486.66,489.09
115.37573,486.72,487.55
115.39542,484.38,483.46
115.41696,487.52,481.27
115.43581,485.89,480.88
115.45641,485.14,476.72
115.47605,486.35,479.82
115.49666,487.36,481.50
115.51692,487.84,483.05
115.53685,489.68,486.73
115.55610,489.64,484.16
115.57635,492.62,482.61
115.59612,495.74,481.76
115.61503,497.33,481.91
115.63641,485.65,484.89
115.65687,472.08,494.16
115.67665,461.10,496.67
115.69685,455.37,493.56
115.71695,453.61,485.55
115.73685,456.72,482.63
115.75698,459.50,471.29
115.77659,460.50,464.93
115.79665,464.59,463.56
115.81551,467.20,460.77
115.83591,470.41,457.69
115.85601,471.91,451.91
115.87698,476.55,452.29
115.89510,477.25,468.42
115.91543,479.26,489.17
115.93633,477.46,495.25
115.95568,480.63,503.34
115.97589,477.99,503.56
115.99509,479.55,498.82
116.01587,475.91,496.12
116.03669,475.35,493.11
116.05553,471.49,489.39
116.07642,471.31,483.66
116.09538,468.92,483.51
116.11567,469.93,477.75
116.13648,471.93,477.40
116.15725,468.30,466.62
116.17829,463.39,445.25
116.19843,459.63,423.53
116.21872,454.15,414.88
116.23864,452.22,404.69
116.25852,449.35,400.39
116.27772,450.12,403.42
116.29832,449.87,405.91
116.31720,448.88,411.40
116.33977,450.45,423.96
116.35925,451.72,435.57
116.37958,454.30,460.47
116.39828,449.10,501.37
116.42099,434.77,541.89
116.44005,423.99,564.98
116.46145,409.46,579.86
116.48133,394.44,575.24
116.50159,379.33,562.90
116.52101,371.70,552.69
116.54088,364.76,533.38
116.56119,364.75,513.85
116.58105,364.48,486.56
116.60103,368.16,448.00
116.62200,376.92,420.13
116.64132,382.24,386.23
116.66088,391.78,380.55
116.68113,403.42,359.57
116.70050,414.11,341.14
116.72163,428.47,348.64
116.74060,430.54,344.03
116.76112,436.12,347.68
116.78067,443.06,366.19
116.80134,448.02,382.21
116.82117,449.23,387.10
116.84229,450.59,387.52
116.86237,455.36,388.58
116.88186,457.76,400.17
116.90228,456.83,421.12
116.92260,461.53,445.42
116.94138,488.89,474.66
116.96107,517.27,520.21
116.98202,550.43,539.45
117.00285,585.40,557.03
117.02138,612.01,554.73
117.04250,621.92,581.38
117.06130,639.31,573.64
117.08231,646.65,570.50
117.10219,645.74,590.41
117.12123,648.39,590.61
117.14389,632.15,593.77
117.16221,620.64,590.92
117.18382,606.28,572.01
117.20301,588.52,564.38
117.22315,576.17,556.21
117.24454,561.42,525.10
117.26377,543.48,491.94
117.28596,523.39,455.98
117.30678,503.26,428.17
117.32682,488.11,402.50
117.34515,469.02,361.49
117.36539,453.28,372.27
117.38700,452.46,360.15
117.40617,445.41,349.25
117.42563,435.69,350.99
117.44642,432.69,350.71
117.46587,423.20,372.40
117.48674,425.74,369.70
117.50623,427.27,369.55
117.52652,426.21,349.04
117.54589,429.25,354.19
117.56646,430.60,352.72
117.58541,418.87,343.03
117.60647,410.66,334.95
117.62523,407.24,344.30
117.64523,400.29,337.55
117.66629,399.48,366.61
117.68696,405.71,376.64
117.70513,411.85,379.99
117.72552,417.18,388.17
117.74691,424.23,384.20
117.76517,417.95,414.68
117.78594,420.82,418.72
117.80503,427.88,424.09
117.82616,434.91,426.46
117.84611,434.78,425.96
117.86627,441.34,440.17
117.88543,440.86,439.69
117.90528,444.13,462.75
117.92501,448.73,488.34
117.94672,450.39,511.08
