Program Time [s],data 0,data 1
24.42904,462.40,476.09
24.44993,463.76,479.84
24.46942,465.59,481.07
24.49068,467.57,482.06
24.51223,465.70,484.65
24.53147,465.64,486.07
24.55120,466.10,486.55
24.57082,464.67,488.84
24.59077,465.16,486.15
24.61079,463.66,488.74
24.63049,464.06,486.29
24.65214,463.23,490.46
24.67207,465.50,490.25
24.69174,464.11,492.49
24.71090,462.22,492.80
24.73109,464.13,496.38
24.75189,469.54,516.63
24.77221,475.75,556.24
24.79192,481.07,594.81
24.81171,486.69,622.69
24.83056,481.94,633.90
24.85198,478.62,627.13
24.87058,471.36,607.35
24.89091,468.37,587.05
24.91130,462.15,564.90
24.93026,457.65,541.06
24.95104,457.50,525.62
24.97080,457.06,505.66
24.99181,457.22,492.62
25.01061,455.56,485.21
25.03090,457.55,476.22
25.05109,458.25,471.75
25.07212,459.06,470.06
25.09151,460.78,470.00
25.11153,462.83,474.88
25.13138,461.12,475.87
25.15108,461.86,475.42
25.17060,463.16,478.82
25.19172,462.02,482.36
25.21176,463.43,481.15
25.23239,466.97,480.77
25.25218,465.12,483.21
25.27307,470.07,485.05
25.29242,468.75,486.40
25.31241,468.62,489.99
25.33403,471.28,489.06
25.35390,471.37,490.64
25.37325,472.61,492.28
25.39412,469.85,492.52
25.41320,471.18,491.22
25.43314,469.87,489.04
25.45385,469.34,489.52
25.47260,470.84,490.29
25.49366,469.39,486.63
25.51418,468.24,487.27
25.53396,470.59,487.75
25.55347,468.44,488.89
25.57341,468.32,491.35
25.59426,471.22,492.54
25.61402,470.03,495.87
25.63309,468.34,496.46
25.65427,469.06,497.12
25.67321,470.32,495.58
25.69342,471.81,501.11
25.71247,471.72,500.19
25.73251,470.72,499.47
25.75351,469.31,498.39
25.77394,472.67,499.90
25.79338,469.86,496.88
25.81423,470.05,497.28
25.83300,467.59,497.44
25.85319,468.05,492.21
25.87277,466.88,491.19
25.89279,466.07,491.76
25.91243,465.56,493.24
25.93281,468.95,491.44
25.95287,467.14,495.64
25.97346,466.21,496.35
25.99328,468.26,495.22
26.01250,470.04,498.77
26.03353,468.54,498.30
26.05380,471.01,501.13
26.07392,468.77,501.17
26.09275,469.79,500.42
26.11326,470.16,501.19
26.13401,470.27,503.55
26.15313,467.37,499.48
26.17428,467.87,500.88
26.19371,467.65,500.58
26.21309,468.86,499.29
26.23391,469.78,498.09
26.25416,470.45,498.31
26.27388,467.82,496.80
26.29293,468.62,499.42
26.31376,468.05,497.18
26.33365,465.09,487.45
26.35300,459.61,474.09
26.37234,454.03,453.17
26.39401,450.20,429.86
26.41407,448.03,412.25
26.43279,445.62,399.30
26.45330,444.73,390.23
26.47277,450.50,382.57
26.49420,454.24,379.70
26.51264,457.01,379.90
26.53382,459.34,383.31
26.55322,462.37,388.17
26.57343,462.81,396.11
26.59333,464.27,405.14
26.61409,466.57,413.79
26.63384,468.90,423.64
26.65291,469.65,430.86
26.67421,470.74,438.49
26.69364,471.40,446.70
26.71251,471.83,454.50
26.73432,471.23,459.70
26.75238,469.43,465.88
26.77366,471.35,470.39
26.79420,473.14,473.42
26.81322,470.08,478.65
26.83429,471.96,481.67
26.85389,470.84,485.09
26.87388,468.68,485.82
26.89404,471.87,489.04
26.91237,470.30,488.22
26.93295,470.97,488.14
26.95261,473.02,489.68
26.97344,470.09,492.58
26.99235,469.77,491.60
27.01402,470.80,495.72
27.03263,471.20,496.62
27.05240,470.28,494.70
27.07269,472.21,493.04
27.09303,471.10,493.88
27.11280,470.63,493.74
27.13389,470.15,496.31
27.15252,471.38,496.09
27.17304,473.14,498.13
27.19287,472.38,497.67
27.21279,473.86,497.89
27.23285,469.70,510.83
27.25279,474.50,539.38
27.27390,474.16,576.07
27.29406,474.60,610.45
27.31301,481.47,637.55
27.33298,485.98,652.88
27.35298,486.42,651.75
27.37398,483.60,639.42
27.39371,483.19,628.16
27.41419,485.63,614.37
27.43369,482.71,600.43
27.45338,480.50,585.78
27.47335,482.49,574.42
27.49246,480.66,563.80
27.51336,481.44,554.62
27.53262,481.71,549.24
27.55294,482.03,548.72
27.57324,484.42,553.64
27.59324,482.65,552.46
27.61394,483.07,550.47
27.63360,482.81,547.03
27.65297,483.06,542.76
27.67313,484.13,538.32
27.69402,482.21,535.54
27.71252,484.22,530.75
27.73379,483.15,528.04
27.75385,481.04,526.62
27.77400,478.94,524.40
27.79304,477.16,521.47
27.81418,477.53,520.93
27.83408,477.56,516.90
27.85343,478.82,515.58
27.87226,477.59,510.75
27.89243,476.02,511.28
27.91410,473.74,509.28
27.93353,474.49,506.77
27.95312,475.90,504.77
27.97319,476.18,504.84
27.99423,474.35,502.71
28.01350,476.28,502.51
28.03428,473.67,504.84
28.05313,474.15,503.58
28.07358,474.03,502.07
28.09394,474.28,504.62
28.11312,476.10,504.84
28.13394,477.00,503.26
28.15297,475.26,502.69
28.17418,475.92,503.96
28.19328,474.22,501.90
28.21398,474.72,501.55
28.23300,471.20,504.88
28.25297,476.18,505.56
28.27273,473.72,503.13
28.29235,473.00,504.16
28.31299,472.36,502.86
28.33358,471.75,501.93
28.35420,470.42,502.90
28.37308,473.45,504.17
28.39306,472.66,502.23
28.41345,471.12,503.86
28.43526,471.98,503.11
28.45359,470.68,503.84
28.47518,473.93,504.45
28.49404,471.98,505.34
28.51504,473.57,502.97
28.53428,473.37,503.96
28.55520,476.13,507.08
28.57450,473.92,504.91
28.59553,478.69,504.85
28.61516,477.04,502.95
28.63539,478.90,505.04
28.65559,480.49,503.47
28.67494,475.73,504.83
28.69469,476.85,503.93
28.71609,472.82,503.79
28.73459,472.66,506.45
28.75420,471.00,505.52
28.77603,474.13,505.92
28.79569,476.48,492.07
28.81560,473.48,473.52
28.83583,473.86,453.82
28.85663,473.08,433.02
28.87535,468.68,418.07
28.89578,469.09,403.43
28.91632,464.70,388.93
28.93701,465.28,385.34
28.95642,464.05,381.12
28.97553,465.73,379.77
28.99646,463.27,383.49
29.01666,466.08,389.77
29.03643,465.45,398.36
29.05595,468.57,408.25
29.07595,469.70,417.42
29.09653,471.61,428.62
29.11750,473.61,435.94
29.13693,473.35,446.69
29.15776,471.27,455.28
29.17786,471.75,463.00
29.19725,475.18,467.20
29.21823,474.93,471.90
29.24009,473.01,475.70
29.25934,475.26,480.35
29.27930,474.58,481.83
29.29985,470.83,485.37
29.31913,470.73,490.81
29.33976,470.09,491.35
29.35923,469.72,495.60
29.37968,472.39,496.30
29.40006,471.27,498.19
29.42033,470.55,499.31
29.43905,468.57,502.36
29.45870,468.15,504.39
29.47970,467.69,504.36
29.50022,471.38,506.36
29.52029,470.99,511.47
29.53916,473.11,511.05
29.55862,470.95,513.11
29.57884,471.57,511.96
29.59991,470.76,510.71
29.61978,468.89,509.15
29.64096,468.85,514.96
29.66030,469.84,531.87
29.68174,471.99,554.99
29.70252,471.57,587.47
29.72205,472.93,615.89
29.74289,473.26,637.42
29.76139,475.85,657.57
29.78286,479.73,666.74
29.80126,478.94,667.47
29.82154,479.30,656.75
29.84248,479.51,640.71
29.86266,478.14,626.02
29.88224,474.09,613.66
29.90156,474.14,598.13
29.92316,471.80,587.26
29.94228,473.16,575.55
29.96182,469.60,566.45
29.98263,470.57,556.95
30.00213,466.66,550.80
30.02147,468.97,541.55
30.04286,469.97,537.12
30.06191,466.79,531.47
30.08176,468.60,529.16
30.10160,469.43,527.77
30.12186,467.57,525.29
30.14317,465.88,519.61
30.16252,465.58,517.54
30.18216,464.88,517.46
30.20238,464.91,513.91
30.22213,467.20,514.55
30.24153,464.56,511.61
30.26140,468.23,512.68
30.28123,466.79,512.14
30.30142,465.62,510.84
30.32324,466.24,509.49
30.34298,464.12,509.25
30.36237,464.07,509.67
30.38365,462.80,508.77
30.40422,459.82,508.08
30.42259,459.94,505.74
30.44237,462.92,507.14
30.46409,460.67,507.45
30.48279,464.59,506.54
30.50330,461.23,506.98
30.52394,462.62,507.62
30.54390,460.21,507.64
30.56403,461.51,506.35
30.58391,460.58,506.60
30.60452,462.50,504.70
30.62476,462.39,505.88
30.64508,459.23,505.49
30.66455,459.65,503.11
30.68320,458.25,504.51
30.70394,459.28,504.59
30.72422,459.19,505.61
30.74426,456.74,504.68
30.76389,459.58,502.26
30.78470,458.89,505.75
30.80370,458.95,505.12
30.82494,458.81,503.35
30.84442,459.47,504.15
30.86540,456.20,503.29
30.88387,459.23,501.66
30.90494,459.90,501.77
30.92399,460.23,501.28
30.94339,455.98,502.77
30.96463,458.83,502.95
30.98501,457.96,503.40
31.00391,460.19,506.14
31.02350,460.69,507.11
31.04475,459.23,503.90
31.06327,458.40,504.74
31.08508,461.80,507.14
31.10446,457.82,506.92
31.12455,457.88,504.07
31.14467,457.76,505.58
31.16495,458.08,503.41
31.18525,457.69,505.06
31.20564,458.40,502.59
31.22613,458.43,500.63
31.24422,454.80,503.12
31.26533,454.88,501.92
31.28433,455.67,503.10
31.30550,454.30,502.39
31.32573,456.96,503.49
31.34548,459.70,501.01
31.36446,460.38,501.72
31.38497,458.19,503.36
31.40588,459.23,503.51
31.42459,458.61,500.36
31.44545,460.25,502.90
31.46665,457.95,502.48
31.48770,458.43,503.12
31.50819,457.71,501.87
31.52891,461.02,504.63
31.54943,463.25,502.66
31.56983,462.20,503.41
31.59076,463.08,500.78
31.61115,465.65,501.38
31.62944,466.07,504.51
31.65148,467.80,502.10
31.67138,468.52,504.82
31.69109,469.74,504.36
31.71228,471.49,505.61
31.73302,472.72,506.38
31.75184,471.80,507.92
31.77219,474.93,507.91
31.79241,476.15,507.67
31.81184,474.25,508.63
31.83190,473.92,510.57
31.85275,477.16,510.66
31.87178,476.67,511.19
31.89219,477.03,511.73
31.91291,475.24,508.99
31.93299,477.20,510.78
31.95301,476.41,510.74
31.97192,477.33,508.60
31.99263,477.10,511.42
32.01283,477.00,509.74
32.03263,474.43,508.84
32.05198,474.55,506.48
32.07268,476.66,507.72
32.09216,474.12,507.84
32.11146,476.24,506.05
32.13226,477.03,506.36
32.15156,477.68,507.20
32.17105,476.32,506.64
32.19197,476.95,506.25
32.21293,477.09,507.88
32.23120,475.24,507.00
32.25111,475.31,509.48
32.27194,478.25,507.29
32.29282,477.95,506.06
32.31290,476.13,510.08
32.33304,477.30,510.76
32.35271,476.18,515.92
32.37300,478.03,514.66
32.39322,479.69,510.16
32.41331,480.89,492.35
32.43315,482.66,473.93
32.45242,484.20,452.44
32.47372,485.27,435.38
32.49265,483.31,419.25
32.51356,482.28,406.95
32.53404,479.89,399.54
32.55304,474.84,391.99
32.57262,474.65,387.81
32.59278,473.12,389.52
32.61229,471.22,391.32
32.63298,470.52,397.78
32.65338,469.32,403.77
32.67374,471.55,408.40
32.69319,469.71,418.41
32.71253,468.39,430.48
32.73270,471.12,438.34
32.75316,475.58,446.67
32.77312,478.37,453.76
32.79413,477.04,459.62
32.81341,478.92,468.05
32.83369,476.10,472.85
32.85263,478.91,477.13
32.87328,480.80,484.66
32.89353,481.18,486.80
32.91389,481.22,493.18
32.93279,480.47,493.27
32.95285,481.09,496.11
32.97228,477.26,499.46
32.99381,479.41,500.99
33.01252,479.73,504.08
33.03403,477.70,504.33
33.05378,479.53,505.53
33.07246,479.49,506.76
33.09313,480.48,508.84
33.11393,478.61,507.30
33.13250,480.12,505.96
33.15304,477.13,508.79
33.17283,479.91,507.59
33.19389,478.50,507.93
33.21319,477.28,509.07
33.23271,476.65,508.53
33.25359,474.39,506.39
33.27250,474.63,510.50
33.29383,475.96,522.71
33.31376,478.50,545.44
33.33310,482.34,579.06
33.35262,485.19,617.48
33.37332,483.70,643.33
33.39400,483.07,660.07
33.41324,479.59,669.77
33.43349,479.24,669.01
33.45350,482.19,662.30
33.47386,482.14,651.46
33.49340,479.25,639.55
33.51273,478.09,621.87
33.53390,480.11,610.07
33.55303,479.53,597.77
33.57235,477.55,585.62
33.59245,476.73,574.92
33.61348,475.56,565.41
33.63288,477.91,559.54
33.65303,475.65,554.00
33.67358,478.84,546.04
33.69316,479.23,543.62
33.71268,478.34,536.55
33.73402,477.55,537.06
33.75301,477.72,533.49
33.77312,478.95,530.64
33.79317,477.58,525.38
33.81357,476.87,525.56
33.83402,476.25,521.27
33.85398,475.81,521.29
33.87351,476.42,517.44
33.89401,473.77,516.72
33.91282,477.35,520.22
33.93224,476.57,518.79
33.95328,473.87,519.32
33.97413,476.07,516.80
33.99355,474.51,514.69
34.01406,478.29,515.77
34.03247,478.21,516.80
34.05327,477.60,518.50
34.07371,476.71,515.35
34.09291,476.48,516.29
34.11316,478.70,514.76
34.13412,480.09,516.51
34.15395,476.60,514.46
34.17299,477.56,515.36
34.19333,477.86,515.98
34.21279,480.04,514.42
34.23219,478.98,514.72
34.25260,477.52,515.80
34.27257,476.78,513.62
34.29327,476.32,514.09
34.31265,477.86,515.35
34.33338,474.77,514.24
34.35346,476.26,517.02
34.37424,475.78,514.72
34.39424,475.42,512.80
34.41373,475.62,513.06
34.43408,477.34,513.07
34.45383,476.33,513.81
34.47448,476.97,514.93
34.49439,477.37,516.37
34.51499,477.30,515.01
34.53446,476.35,514.72
34.55513,474.74,518.66
34.57403,475.69,518.98
34.59307,474.66,518.44
34.61399,473.89,517.81
34.63447,475.51,519.66
34.65437,475.22,520.37
34.67350,472.46,519.95
34.69438,473.95,516.76
34.71381,473.35,519.84
34.73352,476.19,517.18
34.75422,475.59,517.93
34.77344,473.85,516.09
34.79477,476.83,512.79
34.81464,478.58,508.55
34.83510,479.43,505.96
34.85339,476.58,506.79
34.87423,476.17,508.59
34.89327,476.21,505.07
34.91328,477.79,506.60
34.93503,477.26,508.10
34.95345,475.80,507.62
34.97488,478.49,510.22
34.99379,475.24,509.51
35.01342,476.91,510.32
35.03396,475.35,512.07
35.05369,476.75,514.21
35.07365,476.60,512.29
35.09430,475.39,511.45
35.11346,475.29,512.63
35.13498,474.77,513.24
35.15466,476.55,511.96
35.17341,475.55,511.66
35.19408,477.59,513.99
35.21474,478.72,514.97
35.23507,480.92,512.82
35.25482,478.34,512.59
35.27479,478.16,514.69
35.29372,477.14,512.80
35.31401,479.19,511.43
35.33426,479.38,513.90
35.35429,475.88,513.39
35.37408,474.31,514.57
35.39457,474.14,514.16
35.41382,476.06,512.79
35.43472,475.60,511.28
35.45435,477.07,513.29
35.47393,475.19,514.21
35.49465,474.09,514.79
35.51420,475.73,513.80
35.53375,476.53,515.90
35.55354,473.52,513.92
35.57359,474.92,515.08
35.59411,473.83,516.18
35.61451,475.57,515.16
35.63412,472.97,515.96
35.65335,475.74,515.01
35.67468,474.58,514.45
35.69436,473.42,516.29
35.71420,475.94,514.47
35.73417,473.51,516.44
35.75322,477.28,514.30
35.77468,476.19,516.46
35.79340,475.50,517.18
35.81468,477.76,513.67
35.83476,474.41,514.77
35.85418,474.38,515.46
35.87349,476.02,513.49
35.89379,476.40,514.49
35.91338,474.83,509.80
35.93332,472.44,511.42
35.95389,473.43,512.42
35.97497,474.12,510.36
35.99359,472.74,512.29
36.01337,472.68,513.00
36.03391,471.52,512.08
36.05446,473.13,513.25
36.07410,473.45,512.44
36.09344,475.79,515.45
36.11333,474.43,515.43
36.13424,477.67,507.36
36.15357,473.13,493.81
36.17379,474.74,478.79
36.19398,473.40,458.92
36.21460,469.18,442.38
36.23455,469.08,427.00
36.25408,466.37,419.79
36.27398,467.42,413.09
36.29354,465.21,410.09
36.31341,466.63,406.84
36.33411,466.64,410.25
36.35428,469.40,409.14
36.37502,469.04,415.37
36.39478,470.80,422.93
36.41360,470.52,430.48
36.43440,474.31,439.50
36.45389,473.15,446.09
36.47322,475.11,455.30
36.49396,473.53,460.49
36.51502,472.60,467.90
36.53427,474.68,472.92
36.55393,476.48,477.95
36.57329,476.76,482.79
36.59393,475.06,488.96
36.61385,474.57,492.43
36.63415,473.81,496.46
36.65411,473.98,497.55
36.67412,475.46,499.97
36.69589,476.25,503.80
36.71654,475.15,502.65
36.73646,474.92,504.87
36.75593,473.54,505.58
36.77646,471.46,505.72
36.79577,473.31,506.29
36.81628,469.97,507.13
36.83588,471.18,509.94
36.85542,472.13,508.97
36.87650,470.89,513.05
36.89623,471.28,516.50
36.91657,469.06,518.48
36.93526,467.34,517.04
36.95631,470.02,516.17
36.97644,471.07,527.93
36.99672,471.82,554.20
37.01715,474.41,584.10
37.03635,475.14,615.02
37.05692,477.11,640.42
37.07688,478.39,663.54
37.09555,481.32,670.14
37.11638,482.66,666.51
37.13677,482.64,652.62
37.15523,482.90,641.13
37.17609,479.33,625.52
37.19608,481.55,614.55
37.21707,476.30,599.24
37.23596,476.94,590.09
37.25575,474.36,580.31
37.27568,472.46,571.67
37.29528,472.52,562.13
37.31589,470.00,553.03
37.33670,470.60,549.82
37.35674,467.54,544.42
37.37642,467.21,537.39
37.39605,466.70,533.81
37.41591,467.37,529.83
37.43616,466.88,528.27
37.45557,468.97,522.92
37.47636,468.41,523.29
37.49695,469.74,521.88
37.51623,468.01,518.98
37.53548,469.79,521.10
37.55715,465.29,518.54
37.57589,467.76,518.99
37.59632,466.91,516.99
37.61598,466.05,520.28
37.63691,467.07,518.98
37.65650,466.39,520.11
37.67604,465.88,518.21
37.69706,465.03,519.83
37.71703,467.20,520.88
37.73528,468.52,517.39
37.75529,467.77,518.77
37.77677,467.64,517.39
37.79641,465.77,516.34
37.81674,465.80,518.83
37.83590,467.00,517.94
37.85588,467.36,515.78
37.87735,468.82,515.18
37.89572,469.31,517.32
37.91709,466.02,516.30
37.93573,466.15,517.24
37.95556,468.35,517.36
37.97529,468.32,516.74
37.99536,468.30,518.18
38.01645,465.68,518.14
38.03616,465.57,518.46
38.05616,466.51,516.25
38.07558,466.60,518.55
38.09565,467.22,515.97
38.11581,466.86,515.36
38.13498,469.67,518.57
38.15664,468.48,516.59
38.17654,469.10,515.45
38.19606,467.57,514.10
38.21548,465.85,515.20
38.23649,465.47,515.06
38.25664,465.84,515.31
38.27587,468.84,513.87
38.29611,466.19,515.01
38.31689,467.57,515.82
38.33647,467.44,515.84
38.35532,468.21,515.82
38.37650,466.32,518.21
38.39639,465.20,516.23
38.41551,464.21,517.24
38.43587,463.30,516.52
38.45627,462.36,517.06
38.47621,463.35,519.00
38.49691,460.57,517.03
38.51546,462.17,517.90
38.53718,463.76,517.14
38.55619,461.55,517.95
38.57523,462.94,519.34
38.59698,463.57,518.59
38.61636,464.49,516.25
38.63629,462.76,516.64
38.65669,463.73,517.40
38.67554,467.02,515.54
38.69513,464.81,515.36
38.71563,464.23,517.17
38.73565,466.68,517.63
38.75569,467.42,518.11
38.77690,466.82,518.03
38.79647,463.56,517.22
38.81570,467.13,517.56
38.83536,466.44,515.71
38.85683,466.20,515.15
38.87588,465.07,516.05
38.89624,466.08,517.13
38.91601,468.71,517.06
38.93662,467.15,516.11
38.95515,466.69,517.39
38.97561,464.67,518.27
38.99612,467.01,517.70
39.01590,467.38,517.40
39.03594,466.80,517.40
39.05640,465.90,519.99
39.07642,467.04,516.21
39.09635,464.02,517.18
39.11604,466.19,519.96
39.13661,467.03,517.74
39.15657,465.90,520.71
39.17677,467.71,519.19
39.19790,463.81,518.24
39.21615,465.10,519.31
39.23661,465.64,518.12
39.25796,465.40,517.40
39.27737,462.47,518.66
39.29800,462.06,508.10
39.31657,462.96,493.34
39.33767,460.15,475.98
39.35765,458.50,456.96
39.37736,455.08,439.65
39.39782,453.93,426.43
39.41832,451.28,417.63
39.43785,452.11,408.89
39.45735,448.37,401.42
39.47833,447.68,401.79
39.49757,448.09,401.76
39.51786,446.73,402.72
39.53921,449.06,408.47
39.55951,450.11,414.78
39.57837,453.56,423.19
39.59846,456.35,432.64
39.61958,458.70,440.08
39.63817,458.41,449.51
39.65991,455.33,454.27
39.67839,458.53,463.86
39.69813,455.99,467.02
39.71905,458.20,473.88
39.73838,457.51,479.47
39.75999,457.81,483.99
39.77835,455.86,488.27
39.79959,458.14,491.41
39.82006,455.50,493.82
39.83844,457.24,493.10
39.85902,456.29,499.11
39.87842,458.69,500.75
39.89849,458.71,518.36
39.91941,460.88,546.57
39.93958,465.80,582.97
39.96107,468.64,621.54
39.97963,471.87,651.28
40.00041,471.53,671.63
40.02045,469.34,672.60
40.04075,470.19,663.89
40.06015,465.79,650.15
40.07941,467.25,636.09
40.10071,465.07,619.68
40.12034,461.68,603.17
40.14064,460.66,590.32
40.16092,459.90,580.86
40.17951,459.56,571.00
40.19995,457.16,561.57
40.21996,457.14,553.17
40.24004,459.55,548.39
40.26057,456.10,539.50
40.27951,455.55,537.22
40.29961,455.54,531.98
40.31929,459.31,526.80
40.34008,459.12,526.76
40.35919,460.17,523.42
40.38063,457.54,518.51
40.40084,461.20,517.49
40.41957,458.02,515.95
40.43996,456.79,516.37
40.46056,458.51,513.84
40.48059,457.93,512.17
40.49918,458.66,510.72
40.51902,458.21,510.19
40.54078,458.52,512.70
40.55989,458.41,512.00
40.58190,457.98,514.88
40.60171,459.91,514.88
40.62001,461.46,514.51
40.64142,459.22,515.60
40.66100,460.23,512.43
40.68099,459.76,514.77
40.70151,459.36,514.56
40.72006,460.73,514.32
40.74202,462.32,511.52
40.76074,462.77,511.97
40.78137,462.99,510.60
40.80140,461.48,508.99
40.82060,462.98,511.58
40.83997,463.86,508.26
40.86119,462.27,508.94
40.88181,462.55,509.23
40.90064,464.89,510.72
40.92094,463.45,509.11
40.94019,462.32,509.27
40.96164,464.06,510.71
40.98047,463.17,511.78
40.99992,463.03,509.63
41.02094,460.18,511.19
41.04037,461.41,510.41
41.06075,458.21,512.25
41.08169,458.68,510.75
41.10040,459.47,510.90
41.12186,462.30,510.52
41.14113,461.83,510.21
41.16136,461.26,508.40
41.18002,462.25,508.97
41.20055,459.60,510.56
41.22024,462.90,507.34
41.24009,460.48,509.42
41.26186,461.65,508.41
41.28189,463.03,506.43
41.30093,459.52,509.66
41.32204,458.44,509.21
41.34198,459.45,507.66
41.35985,458.91,508.10
41.38024,461.94,506.25
41.40146,459.48,508.46
41.42199,459.82,508.87
41.44029,461.82,508.49
41.46162,460.23,507.66
41.48208,461.71,506.09
41.50096,458.29,507.32
41.52140,459.03,507.27
41.54015,460.73,506.93
41.56047,460.59,508.00
41.58133,460.32,511.14
41.60093,461.03,510.33
41.62226,463.62,508.48
41.64134,463.59,510.83
41.66282,466.74,509.42
41.68366,463.88,510.58
41.70209,465.71,510.48
41.72251,465.20,511.92
41.74384,465.38,513.85
41.76361,465.64,514.83
41.78210,466.83,514.93
41.80362,468.70,512.76
41.82289,470.04,512.06
41.84349,469.14,513.67
41.86290,470.80,511.74
41.88369,471.08,512.89
41.90268,469.73,510.96
41.92222,468.00,510.38
41.94277,469.59,510.00
41.96277,470.21,511.85
41.98219,470.09,510.81
42.00355,467.14,513.64
42.02247,467.67,513.78
42.04401,468.85,513.92
42.06336,469.64,513.61
42.08376,467.60,511.95
42.10237,467.31,513.50
42.12231,469.30,515.31
42.14272,464.98,513.66
42.16305,465.20,505.13
42.18384,465.29,491.60
42.20355,464.19,475.96
42.22228,461.22,456.38
42.24312,459.94,440.24
42.26383,459.88,427.34
42.28263,457.08,414.82
42.30352,455.22,409.23
42.32216,458.68,404.70
42.34391,457.50,403.85
42.36329,461.46,406.04
42.38269,460.35,408.77
42.40325,460.81,413.84
42.42410,459.56,416.92
42.44407,463.09,425.50
42.46314,464.47,431.18
42.48391,465.37,440.89
42.50225,468.38,445.73
42.52353,469.37,455.24
42.54339,468.90,461.95
42.56172,468.85,466.13
42.58342,469.12,472.90
42.60410,469.99,476.09
42.62354,471.16,479.85
42.64234,473.44,485.81
42.66372,472.63,486.85
42.68246,472.90,493.89
42.70363,471.66,495.01
42.72275,468.55,497.93
42.74247,468.21,495.27
42.76314,470.56,499.14
42.78374,470.04,500.83
42.80456,468.80,508.00
42.82394,470.25,523.66
42.84340,473.33,543.52
42.86459,473.87,571.47
42.88458,478.62,602.67
42.90329,478.36,633.18
42.92490,482.38,655.59
42.94387,485.20,667.17
42.96355,484.29,671.47
42.98298,484.12,664.87
43.00322,483.07,651.64
43.02389,482.52,637.16
43.04313,481.82,623.86
43.06464,481.03,607.63
43.08441,479.80,594.72
43.10496,478.01,581.59
43.12314,479.10,573.15
43.14463,477.28,564.75
43.16479,479.30,557.31
43.18453,478.52,552.32
43.20399,476.66,546.00
43.22308,476.72,544.67
43.24432,473.14,535.93
43.26462,472.05,534.62
43.28416,472.64,528.80
43.30339,473.96,528.52
43.32310,471.53,522.02
43.34338,473.09,524.18
43.36430,474.10,521.51
43.38381,474.07,520.28
43.40313,472.35,517.61
43.42468,474.24,517.59
43.44397,473.68,517.25
43.46343,475.29,515.12
43.48457,473.24,515.81
43.50352,474.58,515.04
43.52319,473.76,514.60
43.54311,474.10,515.78
43.56441,474.20,515.62
43.58384,473.95,517.38
43.60444,475.28,513.84
43.62464,476.00,517.19
43.64326,471.81,515.99
43.66300,474.86,515.76
43.68287,474.37,516.04
43.70311,472.54,516.32
43.72375,473.53,514.77
43.74292,475.14,515.08
43.76333,473.96,512.62
43.78438,476.83,514.78
43.80302,476.72,512.39
43.82314,475.56,514.16
43.84374,474.17,515.14
43.86401,473.21,514.89
43.88336,475.11,511.74
43.90441,473.34,511.65
43.92397,474.82,512.37
43.94360,476.16,512.82
43.96448,474.55,516.39
43.98429,475.07,513.55
44.00417,475.59,516.05
44.02502,476.74,517.81
44.04481,481.57,516.28
44.06549,481.73,517.44
44.08437,481.79,515.68
44.10544,478.98,516.43
44.12461,481.47,514.50
44.14565,482.02,513.57
44.16397,479.45,516.40
44.18476,479.31,514.15
44.20443,480.70,515.98
44.22441,478.46,515.49
44.24462,476.16,516.06
44.26463,476.14,513.67
44.28532,479.10,513.13
44.30404,476.14,514.29
44.32490,476.00,512.86
44.34438,474.20,512.78
44.36510,473.39,514.86
44.38500,474.86,515.58
44.40402,475.19,515.27
44.42398,474.95,513.90
44.44539,475.81,516.11
44.46551,475.85,515.39
44.48542,476.11,517.00
44.50450,475.31,516.20
44.52592,474.07,518.46
44.54622,474.97,515.50
44.56566,475.80,518.30
44.58538,475.19,517.62
44.60623,474.85,516.98
44.62637,475.08,517.83
44.64548,474.82,517.60
44.66632,475.47,518.00
44.68652,475.81,515.91
44.70645,475.61,519.28
44.72526,476.26,519.66
44.74574,477.96,517.41
44.76554,476.94,517.65
44.78551,477.20,519.08
44.80574,475.00,517.00
44.82567,475.62,517.04
44.84641,476.62,518.75
44.86564,475.06,519.56
44.88570,474.47,519.62
44.90590,472.64,520.80
44.92526,477.71,519.43
44.94648,475.36,519.01
44.96631,477.04,520.35
44.98540,475.54,522.46
45.00587,476.82,521.56
45.02486,478.49,522.07
45.04659,475.88,520.47
45.06615,476.46,520.67
45.08610,476.31,519.31
45.10664,476.04,518.58
45.12852,474.95,519.47
45.14817,475.71,521.53
45.16713,473.96,521.79
45.18781,475.02,522.87
45.20684,475.92,519.45
45.22856,475.27,518.35
45.24703,473.81,519.94
45.26725,476.74,520.76
45.28803,476.18,522.53
45.30802,473.58,519.15
45.32858,473.82,520.76
45.34908,473.79,518.15
45.36961,475.14,520.05
45.38918,471.82,518.46
45.41007,471.33,519.07
45.42888,470.32,518.26
45.45064,468.84,517.75
45.46981,467.87,518.56
45.48966,471.03,519.76
45.50989,470.91,519.61
45.52929,471.20,517.21
45.54945,471.26,518.71
45.56932,469.60,518.02
45.59039,469.63,515.72
45.61062,469.24,516.70
45.62953,469.49,517.13
45.65021,468.29,516.39
45.66910,468.00,513.82
45.68916,469.21,513.05
45.71031,469.62,516.66
45.72899,469.77,514.13
45.75032,469.13,517.54
45.77000,467.07,515.96
45.78955,468.14,517.22
45.80967,468.03,514.69
45.82933,467.68,514.64
45.84956,469.66,515.36
45.86965,469.92,515.86
45.89012,467.60,514.08
45.91087,469.15,514.76
45.93077,467.36,515.92
45.94926,465.87,515.52
45.96874,468.77,516.00
45.99043,469.17,516.05
46.01054,466.60,516.72
46.03018,466.73,519.12
46.04983,468.32,521.04
46.07014,465.98,516.13
46.08970,467.20,506.48
46.11032,462.26,491.92
46.12946,461.68,476.37
46.14907,455.18,461.30
46.16988,454.02,447.15
46.19051,446.75,432.57
46.21063,444.21,425.95
46.23001,446.40,419.90
46.24978,448.84,414.26
46.27028,449.40,409.36
46.28951,450.85,410.74
46.30888,455.66,410.85
46.32991,458.31,414.56
46.34913,462.05,420.32
46.37007,462.73,422.83
46.39068,466.37,429.08
46.40911,466.44,437.70
46.42952,466.46,448.38
46.44890,465.11,456.05
46.46916,466.08,462.20
46.48910,467.21,469.91
46.50946,464.52,475.30
46.52994,467.19,479.91
46.54995,466.43,484.66
46.57000,464.48,490.32
46.58972,468.26,492.61
46.61065,465.31,493.75
46.62958,467.83,498.23
46.64955,467.99,499.24
46.66971,466.45,503.15
46.69020,467.24,506.51
46.70901,468.70,505.26
46.73045,465.86,512.96
46.74977,470.61,542.11
46.77079,470.11,579.80
46.78948,471.62,616.60
46.80909,477.97,645.35
46.83005,476.81,667.36
46.84909,480.36,676.78
46.86928,480.36,675.15
46.88917,479.26,667.98
46.90956,478.48,656.43
46.93046,475.42,641.91
46.95068,477.10,623.24
46.97057,472.98,611.24
46.99021,473.82,596.02
47.01031,471.48,584.48
47.03026,470.84,576.76
47.04973,469.67,566.46
47.06995,469.70,556.96
47.08885,467.78,554.06
47.11137,466.78,547.01
47.13053,464.33,539.34
47.15093,464.57,534.58
47.17014,463.15,532.50
47.19150,463.65,529.69
47.21105,460.34,525.82
47.23011,462.58,526.19
47.25005,460.88,523.21
47.26977,460.20,521.57
47.29156,460.65,519.97
47.31053,463.62,519.25
47.33074,464.09,516.09
47.35132,462.31,514.09
47.37083,462.95,513.95
47.39181,462.93,514.37
47.41075,462.96,514.34
47.43191,461.62,511.38
47.45184,459.44,514.45
47.47258,462.15,513.12
47.49207,462.60,512.74
47.51105,458.52,512.73
47.53185,459.00,514.78
47.55106,461.28,511.97
47.57140,462.50,514.59
47.59175,459.23,512.27
47.61117,457.99,511.58
47.63186,458.45,514.93
47.65198,459.48,514.29
47.67265,458.25,510.59
47.69252,458.85,510.31
47.71172,461.08,511.81
47.73221,460.72,511.74
47.75228,461.60,510.25
47.77176,460.85,511.68
47.79096,458.02,510.10
47.81166,457.56,509.55
47.83293,459.50,513.24
47.85118,459.57,512.32
47.87238,455.65,510.56
47.89198,457.47,510.67
47.91267,456.88,511.55
47.93142,459.40,509.95
47.95225,456.94,509.94
47.97170,457.45,508.90
47.99237,459.68,509.00
48.01239,460.24,510.38
48.03214,460.14,508.67
48.05169,456.83,510.86
48.07224,457.59,508.25
48.09226,458.47,506.77
48.11240,458.38,509.35
48.13267,460.22,509.52
48.15081,456.00,505.32
48.17160,458.85,507.06
48.19277,455.31,506.56
48.21263,456.21,509.18
48.23137,459.13,507.13
48.25111,456.48,506.86
48.27119,459.65,508.70
48.29249,458.80,511.32
48.31204,457.49,512.09
48.33104,455.26,509.28
48.35200,457.81,512.70
48.37267,454.84,512.50
48.39247,452.26,511.29
48.41250,453.20,508.55
48.43107,456.68,507.96
48.45121,456.68,507.14
48.47097,455.92,508.36
48.49072,457.56,506.94
48.51261,456.93,507.81
48.53159,458.77,508.72
48.55082,455.66,509.99
48.57261,457.00,508.87
48.59080,455.79,508.59
48.61213,456.49,509.47
48.63191,454.69,511.08
48.65234,457.10,509.06
48.67208,456.54,509.29
48.69099,456.91,508.62
48.71082,457.39,510.47
48.73114,458.51,507.62
48.75138,459.09,507.94
48.77184,460.85,509.12
48.79246,459.65,507.72
48.81124,458.93,510.77
48.83228,457.97,508.59
48.85196,456.57,509.75
48.87111,454.98,508.57
48.89102,457.84,510.74
48.91166,456.87,512.36
48.93143,457.97,511.70
48.95185,456.97,511.30
48.97143,454.73,511.06
48.99259,456.02,508.57
49.01123,455.09,509.52
49.03193,456.35,508.52
49.05120,457.87,506.74
49.07283,459.54,507.84
49.09208,457.72,510.08
49.11184,461.20,509.58
49.13253,460.07,508.26
49.15192,458.69,508.26
49.17288,461.59,509.55
49.19214,461.31,510.87
49.21187,461.32,510.43
49.23123,461.81,511.70
49.25178,458.74,511.44
49.27122,459.11,511.03
49.29265,456.81,508.57
49.31171,456.81,507.88
49.33193,457.43,509.54
49.35199,455.60,508.48
49.37204,455.56,508.07
49.39226,458.35,506.38
49.41268,454.73,507.05
49.43244,456.58,507.27
49.45163,456.09,507.53
49.47144,454.70,507.99
49.49115,457.39,507.98
49.51253,457.51,508.75
49.53111,456.08,509.01
49.55071,457.65,508.04
49.57237,455.34,509.64
49.59091,455.30,509.01
49.61230,456.10,507.39
49.63191,456.31,506.78
49.65203,456.97,508.17
49.67129,458.41,507.39
49.69172,457.57,507.89
49.71099,456.23,508.09
49.73198,459.60,507.02
49.75086,459.11,507.13
49.77230,457.28,507.64
49.79205,456.79,508.41
49.81238,456.35,505.80
49.83355,456.33,508.04
49.85411,459.60,508.67
49.87550,460.94,498.26
49.89619,463.19,484.17
49.91699,464.11,473.06
49.93572,470.47,460.00
49.95688,474.01,453.28
49.97608,475.70,441.60
49.99646,475.24,435.83
50.01711,474.24,427.56
50.03589,477.22,419.50
50.05750,474.99,415.82
50.07650,470.41,413.83
50.09623,469.02,411.91
50.11748,468.77,410.35
50.13723,465.74,410.14
50.15704,468.18,411.65
50.17676,464.77,414.61
50.19696,462.25,419.31
50.21681,463.76,427.98
50.23696,463.34,429.61
50.25740,460.96,439.76
50.27719,461.53,444.79
50.29636,459.94,449.86
50.31608,459.43,459.17
50.33650,461.97,463.74
50.35858,460.99,471.53
50.37850,463.68,478.81
50.39697,464.18,484.43
50.41863,467.81,485.20
50.43872,466.17,503.27
50.45815,469.64,528.73
50.47856,471.07,559.40
50.49790,471.90,598.66
50.51753,473.17,630.73
50.53694,476.25,654.80
50.55686,475.26,667.43
50.57868,474.87,673.29
50.59803,476.26,663.36
50.61744,473.53,647.68
50.63828,472.26,634.88
50.65742,474.58,619.91
50.67726,473.99,606.73
50.69779,473.11,593.17
50.71818,474.28,582.00
50.73751,475.72,571.78
50.75736,474.63,563.93
50.77735,476.05,558.85
50.79711,475.25,551.31
50.81758,474.81,545.77
50.83760,472.42,539.98
50.85821,472.38,536.12
50.87690,473.74,532.82
50.89713,476.26,528.01
50.91935,473.28,525.54
50.93839,474.62,526.16
50.95784,475.15,522.37
50.97839,476.93,521.05
50.99803,475.43,521.10
51.01779,478.35,519.97
51.03878,478.06,517.01
51.05939,478.20,519.23
51.07851,476.51,517.94
51.09879,475.98,515.95
51.11941,477.33,518.29
51.13855,478.22,516.55
51.15918,478.46,516.31
51.17968,478.39,514.99
51.19899,478.19,518.66
51.21795,477.19,516.51
51.23971,476.61,515.08
51.25792,474.77,517.67
51.27802,476.44,517.03
51.29807,475.01,515.40
51.31813,478.47,516.66
51.33969,478.47,514.33
51.35900,477.45,515.92
51.37942,479.75,516.18
51.39800,476.89,517.96
51.41934,475.65,514.86
51.43956,476.44,516.88
51.45924,477.55,515.98
51.47892,477.00,515.47
51.49887,477.75,515.54
51.51956,477.94,514.84
51.53877,478.46,516.55
51.55784,477.43,514.60
51.57837,481.12,515.16
51.59862,478.42,515.46
51.61853,480.55,518.27
51.63970,478.20,517.31
51.65844,480.94,517.93
51.67838,478.34,516.56
51.69801,481.52,517.90
51.71904,478.60,516.35
51.73941,480.02,518.47
51.76037,480.61,515.19
51.77898,479.17,516.66
51.79973,478.33,516.23
51.81938,480.06,516.78
51.84070,477.06,518.10
51.85978,479.31,520.65
51.87949,477.96,519.01
51.89932,478.99,517.89
51.92063,479.38,518.19
51.93927,478.19,517.03
51.95989,478.54,516.71
51.97884,478.79,516.54
52.00016,477.05,517.97
52.01961,479.02,520.67
52.03949,477.59,516.91
52.06029,477.51,518.45
52.08052,480.33,519.96
52.09979,479.64,518.45
52.11905,480.85,516.70
52.13909,481.48,516.20
52.15975,481.11,513.30
52.17988,479.65,514.07
52.19946,480.11,515.14
52.22055,479.50,515.09
52.24064,477.88,515.45
52.26088,475.30,517.91
52.27994,476.00,516.90
52.29984,477.68,518.32
52.32118,476.53,517.60
52.34262,475.26,517.79
52.36104,474.55,518.41
52.38121,477.25,517.48
52.40130,476.06,520.29
52.42148,476.15,520.34
52.44247,477.57,519.70
52.46134,477.86,519.69
52.48083,475.35,518.85
52.50135,475.58,518.16
52.52071,475.94,519.86
52.54075,476.63,517.91
52.56184,475.61,519.70
52.58215,476.94,520.58
52.60089,475.38,517.47
52.62146,475.46,517.47
52.64077,476.08,517.73
52.66184,473.27,516.89
52.68256,477.04,516.13
52.70170,473.87,516.73
52.72092,475.82,515.39
52.74265,475.28,517.19
52.76187,473.75,517.75
52.78162,470.61,516.98
52.80259,471.23,517.33
52.82203,471.02,516.31
52.84078,472.36,517.32
52.86183,473.83,515.74
52.88081,474.87,516.00
52.90193,475.16,518.24
52.92447,473.40,516.30
52.94513,472.60,516.30
52.96557,471.92,515.77
52.98469,472.09,516.75
53.00589,470.47,513.38
53.02490,470.63,512.92
53.04610,466.88,515.05
53.06650,466.32,516.63
53.08461,463.66,513.24
53.10571,463.42,513.90
53.12514,466.52,515.49
53.14613,463.67,512.12
53.16613,464.01,512.28
53.18544,462.77,514.01
53.20541,460.95,511.13
53.22501,462.50,512.92
53.24531,461.35,514.39
53.26651,460.23,512.83
53.28562,462.67,512.84
53.30526,459.69,512.54
53.32503,462.61,513.68
53.34469,462.98,512.08
53.36518,459.77,511.02
53.38567,461.73,513.73
53.40643,462.96,514.40
53.42647,462.33,511.44
53.44530,463.35,514.26
53.46600,462.52,513.93
53.48581,462.94,514.05
53.50501,462.50,515.41
53.52679,462.96,513.14
53.54476,464.19,513.78
53.56457,462.54,512.19
53.58587,461.71,513.13
53.60610,461.89,514.70
53.62519,462.04,510.77
53.64621,461.19,512.87
53.66471,461.98,513.82
53.68595,460.53,514.14
53.70610,460.46,513.76
53.72604,462.54,511.96
53.74649,461.76,512.40
53.76481,458.86,510.03
53.78616,461.08,511.17
53.80544,461.33,510.35
53.82536,459.69,512.07
53.84649,460.35,510.42
53.86491,463.13,509.96
53.88474,461.71,510.86
53.90474,462.57,509.76
53.92455,464.11,511.68
53.94641,462.52,509.00
53.96657,462.90,512.21
53.98499,466.29,512.25
54.00555,465.52,512.37
54.02544,466.93,513.86
54.04553,463.63,513.54
54.06605,463.84,510.58
54.08519,464.29,498.35
54.10620,462.11,485.65
54.12519,460.11,469.65
54.14634,460.60,449.70
54.16629,456.37,436.65
54.18521,459.12,422.78
54.20563,455.69,411.18
54.22535,456.85,401.39
54.24607,452.39,398.61
54.26733,453.08,393.55
54.28793,453.03,394.84
54.30957,454.28,398.31
54.33089,454.88,405.44
54.35135,454.91,408.76
54.37039,458.39,419.00
54.39102,456.94,427.59
54.41162,457.25,435.44
54.43288,458.54,446.16
54.45381,459.76,455.79
54.47461,461.04,460.42
54.49440,464.08,468.68
54.51381,467.03,476.10
54.53399,466.21,480.15
54.55518,467.49,484.02
54.57401,470.59,489.49
54.59539,472.32,492.87
54.61499,471.45,495.76
54.63494,472.80,510.08
54.65454,474.65,530.80
54.67628,473.02,564.49
54.69566,475.99,601.33
54.71757,475.51,635.33
54.73700,476.92,662.13
54.75671,480.36,674.74
54.77690,481.33,677.51
54.79677,481.65,665.82
54.81731,484.85,650.78
54.83712,484.65,636.91
54.85591,483.92,622.95
54.87758,483.51,605.71
54.89627,483.27,595.76
54.91608,484.49,583.69
54.93725,482.28,575.56
54.95818,481.79,565.79
54.97849,481.99,556.03
54.99891,480.55,550.31
55.01983,481.77,545.83
55.03921,482.08,540.24
55.06026,481.42,537.19
55.08018,477.68,535.59
55.09889,480.08,529.87
55.12016,476.55,529.99
55.13940,477.47,525.58
55.15851,475.43,523.32
55.17967,476.30,524.96
55.19926,475.94,522.67
55.21986,476.09,521.98
55.23909,475.88,516.23
55.25941,475.02,516.75
55.27991,476.19,516.31
55.29984,477.23,517.65
55.32088,474.47,513.72
55.34028,476.75,515.40
55.36153,476.67,514.95
55.37957,474.36,518.51
55.40167,471.47,518.94
55.42125,472.04,515.64
55.44120,472.84,515.71
55.45977,472.76,517.02
55.48173,470.88,515.47
55.50146,472.24,516.29
55.52084,472.43,515.19
55.54052,469.55,515.77
55.56038,470.85,515.79
55.57964,471.12,516.69
55.60047,468.51,513.94
55.62105,469.56,516.23
55.64099,471.51,514.72
55.66117,469.12,514.59
55.68102,471.48,514.54
55.69974,472.00,518.13
55.72164,472.49,518.53
55.74147,473.70,517.71
55.76021,473.25,516.03
55.78027,471.46,516.96
55.80073,473.84,515.92
55.82048,473.50,516.25
55.84141,474.08,514.64
55.86116,473.44,514.50
55.88092,476.29,515.05
55.90078,475.59,512.81
55.92219,476.16,511.90
55.94131,473.10,514.34
55.96205,474.04,513.50
55.98211,470.72,513.62
56.00166,469.13,511.64
56.02125,468.33,511.91
56.04241,468.89,511.10
56.06323,467.94,511.87
56.08283,467.68,511.69
56.10283,466.47,513.06
56.12253,468.18,511.33
56.14181,467.43,511.47
56.16263,465.82,512.42
56.18254,464.26,512.36
56.20331,465.94,510.74
56.22275,462.40,510.67
56.24361,464.69,511.43
56.26340,463.26,509.80
56.28367,462.12,509.94
56.30232,464.64,508.99
56.32353,464.59,512.36
56.34339,463.73,509.77
56.36257,462.22,509.73
56.38201,463.01,513.22
56.40351,463.51,513.20
56.42292,463.08,510.33
56.44380,465.24,511.44
56.46236,465.77,510.74
56.48229,465.09,513.70
56.50293,466.34,514.35
56.52149,466.25,513.69
56.54225,465.39,513.33
56.56250,463.31,513.25
56.58282,463.72,512.88
56.60306,464.70,512.02
56.62289,465.74,513.91
56.64288,465.34,514.70
56.66286,465.87,514.61
56.68289,465.24,512.23
56.70194,461.16,515.07
56.72265,459.81,514.46
56.74243,461.58,514.59
56.76328,459.63,516.69
56.78196,460.58,514.05
56.80152,459.25,516.32
56.82151,463.12,517.00
56.84264,463.06,516.60
56.86253,461.57,516.47
56.88230,461.01,516.12
56.90221,462.66,518.69
56.92313,464.43,515.60
56.94152,462.85,515.65
56.96340,462.30,517.63
56.98264,462.30,517.39
57.00331,464.10,517.03
57.02343,460.86,516.85
57.04251,464.60,517.09
57.06327,463.98,516.68
57.08321,461.78,513.91
57.10232,462.19,515.25
57.12175,463.76,512.97
57.14160,463.98,514.64
57.16308,464.13,514.40
57.18341,462.02,513.40
57.20289,461.86,510.82
57.22359,461.78,510.77
57.24583,458.49,510.64
57.26670,458.53,510.91
57.28754,462.52,511.59
57.30645,461.59,512.21
57.32816,461.55,511.61
57.34795,460.79,510.69
57.36803,463.70,512.27
57.38743,463.85,512.59
57.40722,461.51,513.71
57.42752,461.32,509.62
57.44839,462.36,511.66
57.46684,457.80,508.28
57.48718,458.48,511.60
57.50675,460.39,509.39
57.52695,460.86,511.03
57.54787,458.06,508.27
57.56804,459.35,511.35
57.58716,458.82,509.75
57.60793,457.75,510.54
57.62751,460.01,509.33
57.64657,461.91,508.68
57.66732,460.99,506.69
57.68806,463.90,505.52
57.70808,462.18,504.56
57.72783,462.10,506.86
57.74833,462.12,507.32
57.76712,462.24,508.25
57.78689,460.02,504.91
57.80705,463.70,507.72
57.82732,462.37,506.68
57.84669,459.39,509.10
57.86690,458.85,505.44
57.88792,455.83,498.38
57.90783,453.56,487.72
57.92821,453.38,474.47
57.94681,450.65,460.00
57.96713,449.02,450.47
57.98678,449.91,438.88
58.00849,450.91,430.76
58.02704,449.33,421.85
58.04837,452.67,417.38
58.06693,450.54,410.90
58.08851,453.51,406.50
58.10820,454.59,403.99
58.12912,457.14,406.23
58.14781,458.07,406.65
58.16768,459.27,412.99
58.18854,460.17,415.33
58.20812,462.18,420.75
58.22843,462.09,424.22
58.24910,462.55,428.82
58.26778,461.56,436.37
58.28928,461.29,442.29
58.30889,464.72,451.38
58.32870,462.67,455.58
58.34942,465.75,461.54
58.36933,463.99,468.39
58.38905,467.33,474.47
58.40762,466.85,478.38
58.42856,465.68,481.70
58.44825,466.15,484.74
58.46798,463.95,490.46
58.48955,464.30,494.69
58.50897,465.31,498.98
58.52789,462.95,499.20
58.54922,466.13,501.58
58.56790,464.74,502.57
58.58803,467.47,505.11
58.60831,468.91,520.67
58.62826,471.32,549.16
58.64866,471.70,578.74
58.66807,474.87,614.55
58.68893,476.41,646.87
58.70796,478.53,666.78
58.72838,480.03,679.87
58.74895,481.18,682.02
58.76844,482.24,676.38
58.78886,480.75,664.08
58.80789,481.07,647.77
58.82819,478.09,628.19
58.84871,478.30,610.86
58.86931,476.12,598.55
58.88935,473.37,583.30
58.90761,472.96,568.87
58.92820,473.30,561.25
58.94916,470.63,551.49
58.96932,468.76,543.39
58.98744,469.81,538.95
59.00742,468.24,534.81
59.02763,470.27,529.94
59.04871,468.06,526.63
59.06774,469.06,522.91
59.08879,469.96,518.42
59.10929,469.36,514.57
59.12869,467.14,512.42
59.14822,468.20,513.01
59.16854,467.64,510.25
59.18785,466.96,509.28
59.20753,469.85,506.75
59.22867,466.58,509.55
59.24884,467.76,507.02
59.26855,467.90,505.94
59.28902,468.59,507.41
59.30847,468.60,508.17
59.32872,468.56,508.74
59.34902,468.93,507.40
59.36811,470.32,510.55
59.38850,468.56,510.80
59.40775,468.23,507.26
59.42891,467.84,510.47
59.44914,470.10,508.86
59.46859,467.76,509.25
59.48824,470.38,509.55
59.50922,468.65,508.12
59.52860,468.38,508.47
59.54827,469.41,510.49
59.56802,472.14,509.06
59.58775,473.20,509.52
59.60831,471.81,510.22
59.62882,472.74,511.23
59.64831,473.95,512.49
59.66911,472.67,510.43
59.68872,475.60,513.00
59.71005,471.53,511.58
59.72914,473.90,513.46
59.75017,470.45,510.24
59.77135,473.07,511.76
59.78971,471.30,510.03
59.81042,471.68,513.43
59.83137,474.52,510.80
59.85033,471.33,512.27
59.87128,473.12,511.46
59.89137,471.03,512.69
59.91061,471.32,510.21
59.93180,472.52,511.82
59.95178,474.92,512.47
59.97221,474.96,514.47
59.99163,477.87,511.70
60.01155,478.13,514.55
60.03135,477.29,516.94
60.05200,475.35,516.11
60.07210,474.94,512.97
60.09100,475.04,513.66
60.11043,475.60,513.89
60.13198,476.05,513.37
60.15152,475.96,514.47
60.17148,477.95,512.64
60.19163,476.82,514.40
60.21134,476.10,513.94
60.23162,476.32,517.20
60.25180,476.54,515.30
60.27097,477.68,517.39
60.29115,474.77,516.62
60.31296,478.18,515.23
60.33307,474.73,517.48
60.35333,473.75,514.44
60.37381,476.84,517.13
60.39406,477.14,519.19
60.41402,474.06,519.98
60.43234,477.86,518.77
60.45264,478.20,518.28
60.47265,478.91,517.77
60.49438,475.68,521.65
60.51289,477.85,517.42
60.53425,478.29,518.09
60.55279,478.45,517.47
60.57263,478.00,520.57
60.59318,480.19,517.94
60.61252,478.25,516.11
60.63414,475.69,515.41
60.65330,477.80,518.99
60.67426,475.94,516.52
60.69459,475.28,514.93
60.71255,475.91,517.10
60.73257,474.21,517.31
60.75330,476.85,515.77
60.77426,476.66,516.44
60.79438,474.67,515.76
60.81372,475.67,515.44
60.83368,476.28,514.20
60.85461,474.14,513.13
60.87455,476.11,515.29
60.89590,475.66,515.11
60.91480,475.13,514.36
60.93515,473.29,512.82
60.95637,472.60,511.95
60.97483,475.55,510.72
60.99580,473.41,511.15
61.01512,473.16,511.71
61.03533,473.98,514.44
61.05511,474.60,513.78
61.07655,473.01,510.68
61.09536,472.51,511.72
61.11568,470.55,510.52
61.13589,471.06,510.49
61.15497,471.70,511.56
61.17596,470.48,511.55
61.19506,471.82,510.81
61.21465,468.69,511.20
61.23493,471.46,509.13
61.25493,470.77,511.58
61.27521,471.80,510.71
61.29539,468.97,512.22
61.31471,472.47,511.74
61.33623,472.33,511.76
61.35630,471.91,514.01
61.37559,471.54,512.15
61.39581,473.79,513.09
61.41587,470.88,512.83
61.43674,470.60,512.10
61.45727,468.38,514.22
61.47783,469.58,513.98
61.49757,468.27,511.89
61.51650,466.88,512.55
61.53661,468.26,512.47
61.55848,466.74,510.00
61.57759,465.18,509.60
61.59647,464.38,510.08
61.61653,464.95,510.30
61.63822,462.98,510.40
61.65790,463.19,509.27
61.67915,463.68,508.93
61.69913,464.47,511.52
61.71794,464.62,511.07
61.73781,462.50,511.03
61.75931,462.48,502.56
61.77750,460.51,488.96
61.79863,460.45,474.78
61.81775,457.87,459.46
61.83924,455.14,440.39
61.85763,452.65,425.70
61.87767,452.11,413.00
61.89785,450.40,406.92
61.91896,450.08,398.83
61.93858,449.38,395.21
61.95776,449.33,395.80
61.97869,451.74,397.77
61.99840,452.62,400.53
62.01769,453.95,406.33
62.03925,452.79,416.92
62.05937,455.82,424.98
62.07872,456.80,432.79
62.09960,454.20,439.42
62.12046,457.15,447.68
62.13886,457.29,454.53
62.15870,456.46,463.17
62.17898,453.66,470.03
62.19895,456.44,472.12
62.21969,453.34,478.25
62.24003,455.47,479.64
62.25857,455.59,485.99
62.28031,456.34,488.29
62.29951,459.00,491.20
62.31927,459.47,489.82
62.33891,459.47,489.85
62.35976,458.54,493.96
62.37903,457.06,503.72
62.39901,458.88,532.72
62.41882,458.01,568.90
62.44010,463.35,604.34
62.45931,465.02,635.98
62.47978,467.31,653.80
62.50103,466.43,657.91
62.52109,469.08,648.76
62.54158,470.52,638.23
62.56155,468.26,623.29
62.58274,468.03,610.01
62.60368,466.65,595.26
62.62513,467.35,581.78
62.64397,468.22,571.17
62.66470,468.90,560.68
62.68400,466.98,554.62
62.70372,465.77,544.82
62.72435,464.37,540.10
62.74384,463.86,536.37
62.76495,463.44,530.24
62.78414,467.09,529.72
62.80369,466.74,525.27
62.82405,467.71,524.16
62.84487,467.24,523.40
62.86505,467.21,520.88
62.88522,469.02,518.22
62.90434,467.25,515.23
62.92517,467.41,514.97
62.94389,464.84,511.74
62.96460,463.75,509.28
62.98521,466.90,511.31
63.00529,464.24,508.35
63.02614,462.58,512.02
63.04473,466.67,508.52
63.06606,464.40,509.30
63.08577,466.23,509.13
63.10575,466.05,509.57
63.12608,468.14,508.76
63.14480,467.48,508.72
63.16490,465.67,510.23
63.18491,466.36,507.39
63.20633,465.89,507.67
63.22509,468.23,510.77
63.24483,465.68,508.50
63.26570,468.29,507.06
63.28428,465.22,508.52
63.30625,466.58,509.76
63.32543,466.14,508.66
63.34573,465.83,508.34
63.36548,465.30,507.47
63.38525,465.78,510.04
63.40579,466.51,511.19
63.42525,465.55,512.37
63.44525,463.67,512.80
63.46590,466.87,511.59
63.48586,465.62,513.52
63.50508,463.07,510.86
63.52468,465.47,511.36
63.54425,466.20,513.20
63.56514,466.22,512.50
63.58554,465.73,508.89
63.60497,467.77,512.18
63.62545,466.72,510.65
63.64440,467.80,510.86
63.66574,467.60,509.32
63.68563,466.36,509.88
63.70534,465.64,509.67
63.72480,467.33,507.85
63.74461,465.71,509.27
63.76591,468.08,506.40
63.78569,466.84,509.88
63.80618,468.39,510.32
63.82515,467.88,509.24
63.84478,466.12,510.46
63.86613,467.39,508.27
63.88536,467.25,508.53
63.90490,470.42,512.22
63.92637,468.12,509.35
63.94900,468.75,508.75
63.96605,471.17,512.03
63.98467,471.07,509.46
64.00614,472.91,513.32
64.02471,471.83,511.30
64.04470,474.39,509.20
64.06549,473.87,512.06
64.08623,472.95,510.83
64.10496,475.20,509.76
64.12585,475.06,508.65
64.14550,471.83,511.54
64.16471,471.64,510.86
64.18555,470.36,512.41
64.20615,472.14,509.82
64.22482,470.27,511.76
64.24552,469.94,510.00
64.26628,469.93,513.98
64.28471,472.16,512.23
64.30577,472.63,511.65
64.32627,471.22,510.69
64.34543,473.25,511.98
64.36551,473.89,511.03
64.38464,473.02,512.89
64.40540,470.84,513.33
64.42541,473.19,512.61
64.44680,475.71,509.60
64.46711,474.34,511.96
64.48760,475.00,511.13
64.50787,475.63,514.13
64.52991,476.65,512.35
64.55010,478.27,514.10
64.56883,477.20,513.41
64.58998,476.27,513.32
64.60876,475.73,516.04
64.62942,474.15,516.78
64.65018,476.91,515.75
64.66902,477.48,515.55
64.68909,478.64,515.06
64.70875,479.05,516.61
64.72987,477.36,516.01
64.74847,476.61,513.85
64.76933,477.29,513.65
64.79034,474.64,516.37
64.80938,477.71,516.67
64.82938,476.96,515.93
64.84990,477.14,516.04
64.87107,475.14,515.08
64.89196,477.67,515.47
64.91331,476.76,514.71
64.93238,476.45,515.11
64.95152,474.55,517.31
64.97297,472.64,516.96
64.99429,471.59,517.12
65.01427,472.25,512.93
65.03253,470.76,515.77
65.05354,470.70,515.67
65.07243,473.19,514.49
65.09379,472.00,514.44
65.11344,471.67,512.76
65.13356,469.89,511.82
65.15325,471.59,512.31
65.17362,471.12,512.42
65.19288,470.32,511.94
65.21438,471.13,514.13
65.23407,468.86,514.61
65.25436,469.95,514.53
65.27540,466.42,515.24
65.29623,466.07,513.21
65.31618,467.94,514.72
65.33577,468.60,514.07
65.35584,468.68,513.23
65.37554,468.15,511.17
65.39564,469.25,512.04
65.41520,465.83,511.80
65.43683,464.95,509.42
65.45620,466.31,509.15
65.47802,461.89,508.22
65.49652,462.60,507.45
65.51801,461.22,508.92
65.53652,461.28,508.48
65.55798,460.39,509.34
65.57648,461.39,509.68
65.59643,459.28,510.70
65.61674,461.96,509.47
65.63754,463.07,508.31
65.65865,463.25,509.53
65.67738,462.98,508.34
65.69854,462.64,505.38
65.71821,461.44,507.99
65.73802,459.45,504.92
65.75860,462.64,503.96
65.77844,457.96,507.04
65.79914,460.83,507.07
65.81730,460.54,504.99
65.83819,458.94,506.22
65.85782,460.30,507.24
65.87842,457.24,506.72
65.89838,460.22,504.73
65.91887,461.97,507.24
65.94103,461.01,504.73
65.96001,461.17,507.66
65.98122,461.62,506.82
66.00124,464.63,509.29
66.02130,465.94,511.75
66.04352,467.36,509.62
66.06441,468.71,502.45
66.08468,469.40,490.10
66.10449,470.37,476.47
66.12357,469.22,459.50
66.14410,471.20,448.96
66.16487,470.72,436.57
66.18520,467.70,425.08
66.20368,468.59,420.16
66.22514,465.54,417.10
66.24474,465.00,416.76
66.26492,463.37,414.85
66.28504,461.29,412.40
66.30406,464.07,415.58
66.32323,463.53,416.51
66.34456,465.86,421.55
66.36344,468.93,424.42
66.38460,469.14,426.30
66.40475,468.90,433.44
66.42597,471.78,440.62
66.44450,472.07,446.93
66.46618,474.22,450.82
66.48678,472.90,458.73
66.50633,474.61,463.76
66.52819,474.73,470.70
66.54826,473.57,477.26
66.56895,472.78,482.91
66.59080,474.04,487.25
66.60943,472.25,489.63
66.63025,470.70,495.16
66.64993,471.65,494.90
66.66941,471.14,501.95
66.69089,474.27,514.84
66.70955,472.06,539.34
66.73017,471.51,565.14
66.75069,473.74,598.22
66.77079,472.65,627.84
66.78944,472.43,652.86
66.80939,473.35,665.39
66.83067,478.96,669.95
66.85066,480.48,667.91
66.87066,480.81,657.26
66.89078,479.71,644.29
66.91031,481.68,625.69
66.93033,482.04,612.19
66.95036,479.08,596.69
66.97288,477.61,587.69
66.99334,478.43,574.81
67.01208,475.83,566.46
67.03232,472.69,555.04
67.05143,475.53,552.00
67.07153,471.99,546.56
67.09192,474.13,540.31
67.11200,474.14,536.92
67.13191,473.12,533.07
67.15270,473.22,529.51
67.17331,474.88,527.28
67.19218,472.21,526.40
67.21234,471.92,520.97
67.23188,473.10,518.34
67.25245,471.85,518.84
67.27284,471.61,517.76
67.29180,469.74,516.76
67.31279,468.15,518.75
67.33192,467.73,517.24
67.35277,469.12,515.50
67.37301,466.77,514.54
67.39199,468.37,516.04
67.41284,468.09,513.44
67.43272,468.55,513.70
67.45317,467.00,513.95
67.47154,464.81,515.80
67.49137,467.49,512.89
67.51292,466.71,511.41
67.53262,468.59,511.40
67.55233,468.52,510.68
67.57173,469.60,510.70
67.59247,469.73,512.85
67.61145,465.30,513.33
67.63273,466.50,514.86
67.65150,466.70,514.19
67.67148,467.42,513.59
67.69230,465.23,510.99
67.71336,466.57,513.97
67.73234,465.42,513.61
67.75312,464.67,511.64
67.77287,466.25,512.19
67.79170,468.00,514.06
67.81243,465.26,513.49
67.83204,466.59,512.65
67.85255,467.13,512.01
67.87241,465.48,512.98
67.89209,466.37,515.64
67.91227,463.83,514.70
67.93405,463.86,513.40
67.95321,462.64,511.54
67.97296,463.17,513.63
67.99278,461.77,512.74
68.01398,461.48,511.85
68.03306,460.21,513.29
68.05341,463.01,514.29
68.07334,460.83,514.19
68.09395,463.08,511.80
68.11376,461.94,513.86
68.13328,460.82,514.20
68.15374,464.11,512.31
68.17316,463.77,511.20
68.19273,464.15,511.03
68.21272,463.92,509.33
68.23334,464.49,509.67
68.25312,465.12,508.08
68.27382,462.95,509.33
68.29216,465.28,509.41
68.31247,463.76,510.29
68.33233,463.94,510.04
68.35298,462.73,508.05
68.37335,465.52,510.66
68.39233,463.43,510.39
68.41359,460.81,510.49
68.43239,461.75,508.88
68.45290,463.37,511.63
68.47312,461.75,509.58
68.49288,460.24,510.48
68.51369,460.46,512.90
68.53242,459.25,511.44
68.55430,460.42,509.53
68.57259,461.32,511.25
68.59261,461.27,510.28
68.61349,461.27,511.90
68.63329,459.87,510.68
68.65314,463.23,509.33
68.67391,460.84,512.19
68.69238,463.48,512.22
68.71296,461.92,509.57
68.73294,461.92,508.80
68.75270,461.11,510.83
68.77387,459.64,508.60
68.79412,458.87,507.96
68.81286,459.65,510.58
68.83255,458.83,508.32
68.85357,457.54,509.62
68.87249,458.93,506.73
68.89342,460.40,506.38
68.91367,461.74,509.79
68.93227,462.87,506.78
68.95285,459.54,507.48
68.97245,462.06,507.55
68.99368,459.69,510.36
69.01239,458.46,509.52
69.03393,458.70,510.31
69.05367,460.44,511.42
69.07341,458.97,509.23
69.09323,457.86,508.00
69.11308,459.58,509.71
69.13289,458.45,510.77
69.15417,458.73,508.03
69.17257,458.74,507.31
69.19349,460.04,508.29
69.21223,459.86,508.58
69.23310,459.77,508.63
69.25395,456.04,509.02
69.27320,457.20,508.84
69.29291,458.16,511.04
69.31379,459.10,510.01
69.33417,457.55,511.05
69.35285,456.61,507.11
69.37278,456.99,508.31
69.39384,457.22,507.80
69.41319,457.96,507.75
69.43280,456.30,508.41
69.45428,457.85,506.84
69.47377,459.58,509.07
69.49233,457.95,508.39
69.51300,459.98,506.77
69.53248,458.44,507.45
69.55446,459.61,510.27
69.57368,459.03,507.51
69.59462,459.45,511.00
69.61453,460.95,511.21
69.63435,459.53,509.55
69.65442,458.14,507.04
69.67578,456.60,506.67
69.69624,455.97,506.90
69.71474,458.47,507.61
69.73469,457.91,505.50
69.75530,459.20,505.32
69.77624,459.25,504.92
69.79520,457.90,503.16
69.81418,458.17,505.12
69.83548,459.11,505.62
69.85589,460.60,501.76
69.87594,460.52,502.70
69.89449,458.88,503.89
69.91492,459.29,504.43
69.93472,460.66,504.01
69.95512,458.76,502.14
69.97535,460.65,506.57
69.99536,458.46,503.94
70.01488,459.91,506.18
70.03480,458.15,505.27
70.05474,457.02,503.44
70.07557,458.67,505.15
70.09639,455.90,500.81
70.11552,455.18,493.60
70.13586,453.96,480.85
70.15545,454.05,467.65
70.17581,448.30,452.17
70.19566,448.15,436.92
70.21648,444.76,426.35
70.23554,442.23,421.23
70.25525,440.46,411.59
70.27655,439.55,409.45
70.29688,441.14,404.34
70.31652,440.84,401.90
70.33589,445.64,400.93
70.35608,444.22,403.47
70.37586,447.87,405.94
70.39565,446.47,410.62
70.41550,448.28,417.31
70.43596,452.76,421.93
70.45551,454.20,428.64
70.47563,456.05,436.22
70.49590,458.65,443.44
70.51626,459.32,450.24
70.53644,459.95,456.40
70.55572,461.67,461.66
70.57692,463.81,466.81
70.59584,464.08,473.90
70.61571,462.89,478.98
70.63578,464.59,482.86
70.65558,465.15,483.22
70.67708,465.22,487.48
70.69633,466.22,495.37
70.71682,467.12,509.97
70.73704,467.77,527.72
70.75606,467.79,559.23
70.77558,471.90,587.43
70.79684,470.10,613.78
70.81595,471.30,639.48
70.83726,472.55,652.43
70.85710,474.56,655.73
70.87629,477.25,654.19
70.89547,475.64,649.19
70.91649,477.20,636.69
70.93553,476.69,621.80
70.95605,473.74,604.94
70.97634,470.52,592.61
70.99557,472.24,578.76
71.01560,470.47,568.37
71.03577,470.34,555.55
71.05680,470.01,550.81
71.07654,466.78,543.98
71.09596,469.03,536.44
71.11536,469.45,530.84
71.13623,465.51,525.02
71.15553,465.56,521.80
71.17541,467.11,517.09
71.19575,463.60,515.58
71.21546,465.60,514.25
71.23558,463.99,512.16
71.25698,462.28,508.97
71.27592,461.97,508.17
71.29680,463.68,505.16
71.31618,465.95,502.45
71.33620,462.25,502.28
71.35682,462.93,501.94
71.37573,464.52,497.42
71.39646,463.94,500.85
71.41540,462.09,498.80
71.43529,460.62,498.58
71.45556,463.14,498.05
71.47570,461.82,499.74
71.49641,461.34,501.25
71.51678,459.84,501.81
71.53647,462.92,505.24
71.55649,461.66,505.93
71.57636,462.91,503.92
71.59560,463.69,506.90
71.61657,461.59,504.51
71.63646,461.96,503.60
71.65557,460.77,504.58
71.67672,462.51,504.22
71.69593,462.27,503.43
71.71601,461.46,504.52
71.73707,461.54,506.73
71.75521,462.55,505.82
71.77558,460.53,505.83
71.79637,460.17,506.60
71.81642,461.08,505.69
71.83656,460.60,507.27
71.85535,462.10,507.97
71.87649,462.34,506.84
71.89628,463.50,509.82
71.91536,461.57,505.23
71.93587,463.83,508.85
71.95622,463.18,505.03
71.97650,463.90,504.92
71.99578,460.93,508.79
72.01655,461.07,508.60
72.03665,463.46,507.53
72.05562,465.59,507.16
72.07581,466.11,508.82
72.09633,464.27,510.00
72.11628,465.21,507.78
72.13574,463.16,508.74
72.15661,462.67,508.86
72.17696,465.50,507.45
72.19557,465.58,508.51
72.21553,462.46,507.55
72.23534,466.12,508.39
72.25580,463.15,506.94
72.27677,465.40,505.90
72.29576,465.22,505.73
72.31659,466.21,505.14
72.33562,464.86,505.44
72.35714,464.60,506.38
72.37696,466.28,507.42
72.39681,467.62,507.90
72.41603,467.59,507.02
72.43600,465.62,508.47
72.45615,463.34,506.43
72.47552,465.21,507.76
72.49644,464.73,505.28
72.51620,465.72,506.99
72.53628,464.37,507.19
72.55609,464.72,507.77
72.57522,463.65,505.27
72.59581,463.55,508.68
72.61545,460.56,508.16
72.63671,462.15,507.27
72.65618,463.46,506.16
72.67659,462.52,509.28
72.69710,463.07,508.22
72.71683,462.53,509.20
72.73555,466.13,507.74
72.75691,466.14,506.62
72.77622,466.29,509.22
72.79693,464.26,511.11
72.81692,465.04,510.56
72.83678,464.61,508.36
72.85668,465.65,506.57
72.87627,464.05,508.38
72.89666,464.18,506.09
72.91651,464.21,506.73
72.93597,466.49,508.61
72.95687,465.92,505.04
72.97652,464.17,508.84
72.99608,464.89,508.89
73.01604,465.79,512.39
73.03604,467.31,498.36
73.05596,463.34,478.58
73.07707,464.20,462.34
73.09731,465.11,450.61
73.11891,464.73,448.20
73.13780,462.20,446.98
73.15838,461.08,448.32
73.17869,464.29,452.98
73.19824,465.73,456.92
73.21758,466.36,460.83
73.23772,467.89,469.29
73.25853,466.90,475.84
73.27812,469.17,478.24
73.29853,469.54,485.96
73.31832,470.17,487.59
73.33810,469.69,488.83
73.35813,468.74,493.56
73.37787,469.72,493.53
73.39730,467.66,497.06
73.41823,466.28,498.44
73.43850,466.67,499.96
73.45900,467.67,503.73
73.47782,467.81,503.22
73.49750,469.61,507.96
73.51733,469.37,506.92
73.54009,472.17,510.16
73.55983,473.79,511.50
73.57871,472.09,512.70
73.59818,472.22,512.54
73.61857,471.53,512.43
73.63832,471.65,514.84
73.65960,471.07,514.92
73.67796,471.23,516.09
73.69928,473.17,518.39
73.71940,472.35,517.50
73.73906,474.64,517.72
73.75887,472.01,516.08
73.77940,476.50,518.30
73.79942,475.61,516.96
73.81810,475.82,515.78
73.84062,476.39,517.34
73.85964,478.74,516.07
73.87983,478.28,516.49
73.90027,475.37,516.80
73.91965,475.06,517.21
73.93971,476.68,519.20
73.96027,477.89,516.34
73.98091,477.71,517.97
74.00082,474.43,516.61
74.02069,476.39,518.33
74.04102,479.18,517.89
74.06032,477.81,518.06
74.08185,480.36,519.39
74.10149,480.76,518.02
74.12164,476.65,517.26
74.14105,477.78,518.67
74.16132,477.12,519.73
74.18163,477.28,523.63
74.20056,478.88,522.84
74.22145,477.52,526.65
74.24212,479.65,524.51
74.26024,477.99,523.69
74.28090,476.13,524.09
74.30162,476.68,522.12
74.32057,475.83,519.71
74.34057,478.29,521.81
74.36070,477.85,518.54
74.38168,480.28,519.39
74.40199,477.65,519.80
74.42157,477.41,518.40
74.44147,478.39,514.54
74.46178,479.17,516.00
74.48165,476.37,515.34
74.50135,475.81,514.54
74.52121,476.12,515.46
74.54161,476.76,514.55
74.56020,473.65,513.02
74.58207,475.45,513.74
