Program Time [s],data 0,data 1
5.96718,549.18,595.84
5.98662,548.99,595.44
6.00539,549.54,601.04
6.02559,551.54,599.67
6.04567,549.76,597.33
6.06513,551.59,601.05
6.08545,550.22,599.99
6.10717,551.42,603.13
6.12701,551.77,608.87
6.14618,550.00,605.76
6.16547,549.55,608.98
6.18550,549.81,609.93
6.20538,546.31,606.20
6.22544,549.35,603.41
6.24569,550.20,608.67
6.26532,552.65,606.69
6.28575,553.74,606.18
6.30533,552.72,601.32
6.32527,556.64,605.02
6.34580,553.61,603.46
6.36646,553.83,600.20
6.38739,549.94,597.10
6.40614,551.58,595.00
6.42671,549.74,597.54
6.44741,546.86,595.11
6.46657,546.36,592.12
6.48711,544.14,595.84
6.50755,546.33,595.05
6.52648,544.75,593.91
6.54761,546.19,596.99
6.56671,545.78,592.84
6.58761,545.05,594.17
6.60641,545.18,593.89
6.62664,544.39,593.71
6.64623,542.95,592.06
6.66658,544.48,597.46
6.68719,547.19,619.89
6.70642,547.05,641.02
6.72711,547.05,666.98
6.74727,549.73,687.34
6.76821,552.31,699.77
6.78641,553.18,703.18
6.80785,549.78,695.91
6.82778,549.06,694.90
6.84733,548.14,693.32
6.86693,551.74,683.03
6.88772,550.78,679.85
6.90754,548.02,671.49
6.92673,547.97,667.45
6.94618,549.12,658.85
6.96680,549.25,651.32
6.98787,547.80,646.14
7.00794,548.73,643.22
7.02767,547.81,636.70
7.04623,546.01,632.34
7.06707,545.40,625.77
7.08653,545.97,625.73
7.10830,543.31,620.22
7.12876,542.69,617.32
7.14853,542.86,615.64
7.16892,542.20,612.29
7.18941,543.08,609.71
7.20918,543.52,605.92
7.22928,542.75,600.13
7.24920,543.33,598.20
7.27041,544.03,597.78
7.29031,542.66,596.18
7.31144,542.40,593.98
7.33131,541.67,594.40
7.35132,543.51,596.50
7.37020,543.09,595.25
7.39191,543.34,597.15
7.41103,542.19,596.43
7.43159,539.85,596.57
7.45052,540.65,597.00
7.47170,539.46,594.91
7.49132,539.22,594.45
7.51107,544.18,596.27
7.53130,545.15,594.24
7.55269,545.47,592.22
7.57211,545.00,590.53
7.59170,544.62,594.98
7.61129,542.48,591.08
7.63147,541.54,595.24
7.65174,543.10,592.92
7.67209,541.51,574.24
7.69160,541.61,550.39
7.71148,542.16,520.14
7.73230,539.24,491.43
7.75263,539.55,477.98
7.77279,537.19,472.94
7.79276,538.27,474.29
7.81298,536.11,478.15
7.83376,537.15,482.38
7.85368,538.62,491.14
7.87208,539.29,495.93
7.89402,538.86,505.39
7.91286,541.67,516.22
7.93232,543.33,522.63
7.95355,543.42,528.85
7.97397,544.13,538.27
7.99475,547.90,547.41
8.01387,549.06,551.50
8.03340,551.16,561.35
8.05427,551.79,566.53
8.07365,552.24,569.52
8.09365,549.42,573.08
8.11466,550.66,575.59
8.13430,550.30,577.66
8.15485,548.28,578.60
8.17450,550.80,584.56
8.19361,550.73,584.82
8.21347,550.90,583.38
8.23396,552.23,585.80
8.25506,551.05,587.32
8.27382,552.78,586.64
8.29414,551.25,590.02
8.31367,550.92,589.82
8.33505,552.75,593.09
8.35381,550.49,591.46
8.37419,552.77,591.84
8.39460,554.23,593.66
8.41505,552.76,594.34
8.43425,553.42,592.81
8.45426,553.57,592.27
8.47356,556.17,590.85
8.49377,552.83,589.34
8.51462,554.81,590.40
8.53498,551.80,592.61
8.55419,552.49,591.97
8.57381,550.27,592.09
8.59436,549.95,590.35
8.61367,553.52,592.55
8.63382,552.31,589.17
8.65496,554.81,590.63
8.67397,554.90,592.38
8.69396,554.08,592.06
8.71305,552.50,593.00
8.73455,555.01,591.76
8.75476,553.50,594.69
8.77460,554.05,597.13
8.79345,553.92,592.57
8.81372,555.37,597.11
8.83357,552.64,593.48
8.85346,552.46,594.31
8.87331,552.35,594.42
8.89319,556.11,595.09
8.91472,553.41,593.10
8.93476,554.08,592.45
8.95362,550.54,592.65
8.97350,552.48,594.41
8.99292,553.45,596.44
9.01307,552.80,594.67
9.03463,555.07,595.00
9.05318,555.74,595.75
9.07473,553.62,595.91
9.09481,555.92,597.05
9.11496,552.84,596.43
9.13328,556.01,596.41
9.15498,553.67,596.31
9.17437,555.35,595.86
9.19493,552.52,594.22
9.21483,555.26,596.15
9.23468,551.36,595.74
9.25457,550.87,595.53
9.27396,551.57,594.50
9.29431,551.41,596.36
9.31399,550.58,597.23
9.33690,551.21,596.13
9.35610,552.53,599.16
9.37599,558.59,597.27
9.39531,558.75,598.57
9.41561,558.85,602.30
9.43555,560.28,602.55
9.45706,561.03,601.74
9.47632,561.19,600.66
9.49637,560.53,604.76
9.51646,563.27,601.31
9.53651,561.68,604.70
9.55567,561.89,604.50
9.57686,561.19,603.98
9.59589,562.30,603.70
9.61617,561.48,603.80
9.63675,562.84,601.86
9.65702,561.47,600.07
9.67509,560.35,600.56
9.69613,559.71,600.29
9.71540,561.87,599.83
9.73689,561.51,601.15
9.75641,561.78,599.13
9.77589,562.02,599.18
9.79727,563.29,598.63
9.81542,560.76,597.38
9.83702,560.33,594.67
9.85531,562.32,598.66
9.87616,559.38,599.19
9.89672,557.52,599.39
9.91603,559.24,598.98
9.93530,560.15,595.66
9.95666,558.18,596.47
9.97689,560.29,594.60
9.99556,558.65,595.29
10.01612,560.41,599.02
10.03650,558.40,595.25
10.05595,559.90,594.66
10.07623,560.29,595.19
10.09523,562.79,593.87
10.11703,561.37,596.28
10.13703,563.47,602.78
10.15582,567.19,635.58
10.17594,571.04,664.60
10.19562,573.35,693.47
10.21562,577.47,721.51
10.23693,578.80,737.43
10.25628,578.91,742.66
10.27674,577.19,736.83
10.29697,576.19,725.09
10.31688,577.15,717.15
10.33697,575.35,707.41
10.35661,573.86,693.56
10.37575,574.11,679.35
10.39557,571.97,665.64
10.41517,568.05,657.33
10.43585,569.53,649.97
10.45574,568.95,641.14
10.47728,568.10,637.03
10.49616,568.23,631.51
10.51612,569.48,630.72
10.53493,568.11,628.35
10.55626,569.22,630.43
10.57536,568.33,626.25
10.59520,569.53,626.54
10.61596,567.69,618.13
10.63773,566.71,615.35
10.65655,566.47,617.50
10.67621,564.50,617.26
10.69624,567.30,616.98
10.71662,566.92,611.26
10.73707,565.73,609.88
10.75773,564.40,604.53
10.77683,563.44,604.71
10.79712,566.26,603.16
10.81773,562.47,604.85
10.83738,567.12,605.73
10.85789,566.22,606.50
10.87663,567.90,606.99
10.89619,565.84,603.84
10.91770,564.66,605.23
10.93762,563.03,603.56
10.95802,563.14,603.51
10.97689,561.38,603.32
10.99599,563.92,603.07
11.01727,562.85,604.59
11.03616,563.41,603.84
11.05621,562.61,599.29
11.07777,563.53,602.46
11.09728,562.86,598.38
11.11716,562.61,599.15
11.13685,566.02,601.21
11.15776,565.34,607.08
11.17725,566.12,621.88
11.19785,570.30,641.71
11.21700,575.91,668.65
11.23800,576.85,683.90
11.25616,578.65,683.09
11.27705,578.09,660.17
11.29754,576.03,618.70
11.31759,568.96,571.34
11.33677,563.36,525.39
11.35682,560.63,493.17
11.37741,557.96,469.83
11.39771,558.46,457.29
11.41599,557.33,453.26
11.43791,552.96,451.83
11.45687,553.37,454.68
11.47627,556.15,464.19
11.49785,557.51,472.70
11.51684,554.96,477.59
11.53780,554.95,490.03
11.55640,555.40,501.73
11.57716,559.52,510.71
11.59648,557.21,521.62
11.61715,560.27,530.46
11.63629,559.09,538.32
11.65664,558.97,545.27
11.67632,560.91,555.77
11.69634,562.87,561.19
11.71744,565.18,567.72
11.73706,563.27,570.00
11.75751,565.29,574.00
11.77719,567.45,577.63
11.79615,567.06,582.89
11.81610,567.34,584.90
11.83798,568.50,588.21
11.85657,566.33,589.26
11.87772,566.92,591.03
11.89757,567.31,590.96
11.91656,565.87,594.20
11.93638,564.48,593.21
11.95725,565.37,596.08
11.97618,565.71,597.74
11.99710,564.50,596.82
12.01619,565.61,595.32
12.03666,568.53,594.83
12.05669,567.43,599.92
12.07741,566.29,600.63
12.09658,565.09,600.10
12.11797,566.50,603.46
12.13803,566.92,602.68
12.15798,563.84,600.76
12.17839,565.07,599.97
12.19917,566.63,597.87
12.21782,564.03,599.22
12.23786,563.54,602.75
12.25746,564.88,602.01
12.27871,564.99,603.92
12.29860,562.34,605.02
12.31742,562.68,603.45
12.33795,562.73,600.85
12.35823,564.82,601.04
12.37896,566.27,599.95
12.39871,567.26,600.37
12.41828,563.97,600.72
12.43716,565.19,600.00
12.45886,566.13,601.33
12.47715,564.69,601.46
12.49828,566.46,600.14
12.51880,567.60,600.64
12.53707,569.70,600.89
12.55822,567.93,601.32
12.57754,567.78,599.80
12.59793,564.75,600.40
12.61804,564.02,600.38
12.63770,565.54,600.44
12.65878,566.96,599.97
12.67794,564.74,600.20
12.69790,566.86,604.12
12.71798,565.18,600.85
12.73841,566.35,600.72
12.75737,565.78,601.72
12.77762,567.10,602.02
12.79881,564.11,601.40
12.81724,564.42,599.87
12.83712,564.56,602.26
12.85856,564.76,599.87
12.87770,565.48,599.74
12.89817,563.19,600.45
12.91701,562.54,600.91
12.93829,564.45,601.28
12.95787,565.99,601.81
12.97865,565.29,599.30
12.99722,565.58,599.96
13.01818,565.13,599.94
13.03814,564.94,600.83
13.05777,566.08,600.26
13.07687,563.81,603.98
13.09820,564.89,603.34
13.11837,564.30,602.95
13.13813,567.31,604.12
13.15828,565.82,602.43
13.17842,567.31,604.78
13.19712,566.57,601.98
13.21863,564.31,602.02
13.23785,566.44,603.65
13.25721,566.44,602.54
13.27833,565.68,599.67
13.29865,564.24,603.20
13.31882,563.82,604.09
13.33887,565.61,602.52
13.35858,562.57,600.87
13.37714,563.58,604.09
13.39848,564.42,600.03
13.41750,566.51,603.06
13.43768,567.60,599.66
13.45854,565.08,603.24
13.47691,562.96,598.91
13.49706,564.80,602.52
13.51803,563.90,603.22
13.53712,565.88,605.18
13.55786,565.61,602.64
13.57822,565.50,601.08
13.59862,567.59,601.59
13.61834,567.60,599.08
13.63715,566.32,598.87
13.65857,568.26,602.29
13.67747,569.61,601.54
13.69858,567.46,602.81
13.71867,566.94,604.67
13.73774,567.07,600.41
13.75825,567.53,603.29
13.77853,566.33,600.73
13.79708,566.00,604.07
13.81877,564.95,602.69
13.83739,565.28,604.44
13.85778,562.75,605.26
13.87718,563.13,603.04
13.89800,564.61,603.01
13.91812,569.27,602.34
13.93759,568.22,602.59
13.95699,569.35,603.94
13.97848,568.58,602.10
13.99874,570.24,603.61
14.01774,568.38,601.83
14.03734,570.96,598.33
14.05864,568.89,599.72
14.07704,569.72,598.49
14.09799,565.43,594.43
14.11721,564.34,599.67
14.13767,564.21,607.59
14.15858,567.20,624.52
14.17803,567.13,648.68
14.19833,569.06,678.04
14.21724,570.69,703.40
14.23780,574.82,724.70
14.25695,577.55,730.07
14.27772,575.71,728.84
14.29740,576.31,725.20
14.31811,576.27,707.59
14.33841,575.39,697.04
14.35785,575.59,689.65
14.37724,574.03,673.80
14.39870,575.84,663.20
14.41829,572.19,649.92
14.43894,570.83,640.01
14.45799,571.92,634.54
14.47846,569.81,630.10
14.49794,571.63,621.16
14.51748,569.31,619.58
14.53709,568.72,619.68
14.55726,568.12,615.58
14.57738,564.46,612.90
14.59750,566.38,610.48
14.61847,566.15,609.89
14.63715,565.33,611.07
14.65849,565.37,607.70
14.67877,566.28,606.21
14.69873,565.32,609.77
14.71896,562.38,608.07
14.73711,563.32,607.08
14.75775,561.01,605.36
14.77762,563.68,607.36
14.79722,562.67,606.64
14.81727,564.27,604.69
14.83804,562.06,602.81
14.85735,562.31,602.24
14.87739,560.55,599.50
14.89738,562.16,602.76
14.91720,564.12,601.02
14.93809,561.72,604.04
14.95816,563.62,602.76
14.97735,564.12,602.50
14.99875,564.98,606.26
15.01809,561.76,603.60
15.03867,563.06,602.66
15.05891,564.47,603.62
15.07828,563.52,602.77
15.09788,561.10,606.07
15.11780,564.67,603.58
15.13746,562.39,603.58
15.15801,563.06,606.24
15.17749,562.59,599.64
15.19733,562.16,583.48
15.21879,558.37,554.29
15.23860,557.57,526.64
15.25883,554.69,508.88
15.27783,550.54,497.04
15.29857,549.16,493.16
15.31758,548.98,493.41
15.33816,549.71,495.89
15.35807,550.52,502.87
15.37789,552.46,510.03
15.39737,553.59,519.10
15.41705,552.51,529.48
15.43766,556.49,534.52
15.45886,559.53,542.57
15.47771,559.44,551.15
15.49786,559.39,555.56
15.51760,560.58,560.66
15.53835,562.91,568.18
15.55802,560.71,572.39
15.57798,561.45,575.29
15.59806,564.87,579.74
15.61780,565.03,582.59
15.63849,561.89,586.39
15.65728,561.01,590.56
15.67850,566.56,594.06
15.69841,566.36,596.59
15.71784,566.06,597.86
15.73711,564.79,597.79
15.75691,564.91,601.55
15.77798,564.70,602.15
15.79833,562.36,603.74
15.81891,565.41,602.62
15.83969,562.66,604.63
15.85846,564.77,603.44
15.87987,563.47,603.15
15.89810,561.55,604.12
15.91882,560.69,597.58
15.93823,559.71,600.44
15.95971,559.52,598.93
15.97873,558.31,597.12
15.99841,556.50,600.96
16.01866,558.10,599.72
16.03911,558.98,599.99
16.05939,559.53,600.67
16.07879,559.34,599.40
16.09845,558.10,599.36
16.11956,561.37,601.54
16.13814,560.62,600.80
16.15942,557.51,600.12
16.17957,559.02,601.24
16.19930,559.74,600.99
16.21982,559.69,602.74
16.23840,562.01,598.35
16.25785,562.30,597.47
16.27918,559.95,600.72
16.29834,560.26,600.96
16.31903,561.67,601.90
16.33803,559.77,602.18
16.35952,559.75,599.64
16.37798,558.50,600.98
16.39821,559.63,599.13
16.41961,560.06,600.17
16.43897,560.49,597.28
16.45933,560.38,600.53
16.47861,557.00,599.29
16.49978,557.50,596.48
16.51912,556.88,599.00
16.53986,556.74,599.42
16.55792,555.32,599.79
16.57919,556.48,603.02
16.59955,557.19,602.51
16.61969,557.45,603.52
16.63807,557.65,605.40
16.65817,558.46,602.22
16.67939,557.39,604.37
16.69921,559.03,601.38
16.71944,559.86,603.21
16.73965,559.99,601.12
16.75895,555.74,602.46
16.77901,558.17,598.32
16.79978,557.33,600.66
16.82020,555.47,599.19
16.83957,556.07,597.02
16.86014,555.01,598.91
16.88051,554.13,595.42
16.90027,554.63,595.15
16.91935,554.71,595.90
16.94039,557.03,595.59
16.95979,553.34,597.81
16.98028,552.78,599.16
17.00019,554.02,598.20
17.02077,555.69,595.74
17.03982,555.46,598.33
17.05972,555.18,598.62
17.08038,554.65,599.95
17.10079,554.74,599.28
17.11974,552.74,596.56
17.13990,555.95,598.76
17.15945,556.64,599.39
17.18045,557.12,601.49
17.20036,557.15,599.66
17.22011,558.11,600.21
17.23896,555.69,599.07
17.26016,552.53,600.77
17.28041,552.61,602.12
17.29907,553.73,598.35
17.32086,551.86,598.65
17.34081,554.11,599.55
17.35915,552.25,599.65
17.37961,551.68,599.30
17.40040,549.42,598.79
17.42081,550.83,598.75
17.43943,553.13,597.80
17.46029,551.97,600.83
17.48062,550.73,600.62
17.50060,547.87,599.83
17.52012,548.78,600.11
17.54015,550.40,599.39
17.55977,552.14,600.63
17.58016,552.10,598.83
17.59983,553.52,600.73
17.61973,554.65,604.13
17.63946,552.96,598.90
17.65920,550.10,599.71
17.68043,550.93,599.27
17.70026,549.01,598.47
17.71944,549.66,597.21
17.73912,552.69,597.76
17.76071,550.41,599.95
17.78053,549.99,600.41
17.80015,550.65,598.21
17.82002,550.16,600.67
17.83946,547.66,599.72
17.86057,551.09,601.25
17.87927,547.62,600.40
17.90072,550.08,602.30
17.92074,547.90,602.99
17.94042,549.33,599.94
17.96078,549.20,600.39
17.98085,547.38,602.20
18.00027,548.64,602.72
18.01974,549.25,601.23
18.04079,548.91,597.13
18.05949,549.29,598.55
18.08000,549.08,600.89
18.10004,550.95,599.13
18.12036,551.20,599.57
18.14052,551.06,597.35
18.16003,551.23,601.54
18.18071,549.72,597.00
18.20081,551.56,600.01
18.22068,551.82,600.14
18.24034,550.49,598.66
18.26067,549.55,599.24
18.27915,549.37,596.98
18.29987,550.16,599.75
18.31966,549.36,601.44
18.34035,548.90,597.85
18.35971,550.49,600.46
18.37906,550.56,598.36
18.39907,548.13,597.50
18.41980,548.47,597.84
18.44058,547.12,598.06
18.46057,548.41,597.87
18.47918,544.67,597.53
18.50075,546.67,596.62
18.52043,547.49,597.49
18.53900,547.64,596.08
18.55986,548.91,595.86
18.58010,551.16,598.40
18.59972,549.57,596.23
18.61898,549.90,595.98
18.63906,547.82,596.53
18.65995,551.72,596.83
18.67993,547.87,593.77
18.70062,549.28,596.86
18.71935,548.02,594.90
18.73957,549.87,596.72
18.75922,549.65,593.38
18.78018,550.60,594.39
18.80084,549.70,594.45
18.82043,550.32,594.49
18.83928,548.95,592.12
18.85947,548.86,591.01
18.88100,551.67,588.27
18.89959,549.62,585.93
18.92069,549.57,584.04
18.94080,547.29,582.44
18.96016,547.25,584.33
18.98064,547.27,581.36
18.99912,546.64,585.02
19.02055,548.40,592.80
19.04014,550.78,611.60
19.06138,552.27,642.34
19.08117,553.59,671.18
19.10121,558.26,684.47
19.12116,558.45,693.30
19.14211,558.90,694.63
19.16186,556.69,691.90
19.18263,556.25,686.03
19.20163,554.99,674.87
19.22132,552.15,667.16
19.24143,548.83,660.96
19.26160,549.93,651.99
19.28192,545.81,644.94
19.30234,545.91,639.39
19.32372,543.94,630.43
19.34367,543.85,622.64
19.36252,544.47,618.04
19.38363,542.28,615.29
19.40313,543.91,614.64
19.42193,542.98,609.95
19.44270,543.00,605.32
19.46299,541.64,607.74
19.48219,541.28,606.62
19.50361,542.54,603.58
19.52357,542.35,602.12
19.54327,542.74,599.32
19.56216,539.77,601.69
19.58192,539.87,598.75
19.60272,542.18,601.26
19.62349,539.02,600.47
19.64193,541.19,600.58
19.66337,537.19,602.73
19.68228,537.96,598.78
19.70369,540.19,600.66
19.72312,542.51,600.59
19.74240,542.60,598.32
19.76343,543.83,598.10
19.78388,541.19,597.41
19.80352,543.58,593.19
19.82301,540.41,596.82
19.84335,538.85,595.43
19.86380,540.89,593.46
19.88280,540.87,597.69
19.90285,539.21,597.39
19.92369,542.00,593.42
19.94388,540.51,594.27
19.96365,542.06,598.16
19.98329,542.79,597.34
20.00263,540.61,601.45
20.02272,543.48,600.48
20.04311,542.63,599.78
20.06325,545.48,596.74
20.08382,543.54,591.81
20.10222,539.76,572.80
20.12199,536.55,548.59
20.14291,533.69,530.69
20.16220,528.25,510.78
20.18331,529.81,503.56
20.20239,527.96,500.46
20.22182,529.32,500.55
20.24299,531.10,504.88
20.26216,530.50,506.42
20.28323,529.30,515.44
20.30263,530.51,521.99
20.32357,529.32,525.81
20.34271,532.69,535.40
20.36251,530.29,539.52
20.38346,534.64,544.92
20.40331,534.84,548.66
20.42317,533.69,556.54
20.44201,536.87,562.57
20.46379,536.58,566.40
20.48390,537.26,567.96
20.50194,540.73,569.93
20.52350,541.66,576.57
20.54306,538.95,577.76
20.56221,539.99,578.46
20.58373,540.49,582.31
20.60383,540.50,582.09
20.62387,542.53,583.27
20.64239,541.82,584.83
20.66222,541.06,583.51
20.68297,538.84,587.80
20.70299,539.27,584.83
20.72291,539.48,588.19
20.74282,540.57,587.78
20.76338,540.12,587.15
20.78355,542.37,587.82
20.80293,540.76,589.38
20.82303,543.99,592.51
20.84337,540.81,591.43
20.86351,540.61,591.82
20.88288,541.72,593.56
20.90255,541.42,589.94
20.92280,540.30,592.50
20.94348,542.92,589.64
20.96358,542.06,592.73
20.98265,544.17,591.24
21.00297,542.69,592.89
21.02289,540.65,592.63
21.04223,543.80,591.72
21.06266,542.00,593.84
21.08301,540.97,589.80
21.10342,540.79,592.53
21.12266,540.99,592.59
21.14225,541.99,590.26
21.16216,540.17,592.41
21.18196,540.85,591.71
21.20414,542.06,593.86
21.22406,542.75,592.74
21.24353,540.99,592.86
21.26618,544.90,592.77
21.28466,544.51,595.39
21.30552,546.30,595.32
21.32538,547.10,595.09
21.34425,544.82,594.01
21.36503,548.76,594.54
21.38650,550.27,594.71
21.40541,548.38,594.32
21.42486,550.68,592.59
21.44563,550.98,591.78
21.46652,554.83,592.23
21.48648,550.76,595.47
21.50533,554.27,596.41
21.52532,553.63,595.12
21.54662,554.40,595.49
21.56607,554.69,596.48
21.58613,555.73,592.97
21.60635,554.46,592.18
21.62678,556.80,596.46
21.64703,558.32,595.91
21.66698,556.58,597.23
21.68863,557.28,594.91
21.70792,556.69,597.98
21.72837,557.64,598.94
21.74769,562.41,597.39
21.76797,561.58,597.96
21.78740,561.49,598.49
21.80677,561.96,601.41
21.82817,560.35,599.81
21.84712,559.07,600.45
21.86688,557.38,601.11
21.88864,558.56,601.14
21.90764,559.73,597.59
21.92851,560.08,598.34
21.94837,560.42,598.98
21.96701,561.26,597.42
21.98808,561.58,598.62
22.00779,560.37,599.87
22.02741,562.03,600.66
22.04743,562.80,598.73
22.06822,561.55,600.28
22.08831,560.98,597.91
22.10747,564.09,600.58
22.12713,563.85,599.13
22.14804,563.70,599.54
22.16839,566.47,602.07
22.18807,567.49,603.29
22.20875,567.49,603.00
22.22895,569.22,602.83
22.24831,563.72,603.25
22.26841,564.10,601.21
22.28915,566.04,603.90
22.30977,564.70,601.36
22.32808,562.39,600.79
22.34795,562.64,601.34
22.36891,562.35,601.43
22.38937,559.02,604.22
22.40944,560.56,603.02
22.42779,558.46,602.10
22.44924,559.78,599.15
22.46888,557.88,597.59
22.48899,562.32,600.55
22.50903,562.95,600.75
22.52849,560.95,601.01
22.54796,562.76,603.14
22.56861,560.88,600.84
22.58842,562.99,601.58
22.60918,560.01,602.27
22.62816,561.86,602.77
22.64899,562.19,600.23
22.66817,564.25,601.58
22.68891,561.49,600.51
22.70808,563.45,600.33
22.72936,562.12,599.76
22.74895,563.07,598.92
22.76959,563.11,600.14
22.78939,562.76,600.09
22.80966,561.67,600.38
22.82846,562.89,599.97
22.84868,564.60,597.90
22.86938,561.06,596.76
22.88873,563.02,596.14
22.90867,563.54,597.62
22.92819,562.55,598.53
22.94812,564.50,596.90
22.96809,562.39,598.41
22.98834,561.91,596.42
23.00879,563.03,594.80
23.02829,561.82,597.93
23.04905,562.30,598.31
23.06852,563.10,599.01
23.08782,564.15,597.44
23.10926,562.59,598.55
23.12950,562.02,601.22
23.14846,562.92,598.02
23.16961,562.23,598.44
23.18928,566.85,602.61
23.20897,567.35,611.12
23.22928,568.61,630.25
23.24959,568.17,647.51
23.26974,569.75,661.54
23.28956,569.81,669.00
23.30785,571.21,680.69
23.32897,569.92,684.51
23.34923,570.75,682.61
23.36858,572.80,684.50
23.38885,576.55,679.23
23.40902,574.63,676.41
23.42778,576.89,676.60
23.44827,578.91,674.11
23.46937,579.22,673.28
23.48852,577.51,667.54
23.50811,578.33,664.71
23.52771,576.26,660.10
23.54941,578.90,651.72
23.56967,578.56,653.80
23.58861,579.72,648.93
23.60838,576.95,645.82
23.62932,578.59,642.75
23.65076,577.49,642.00
23.67027,574.46,637.06
23.68990,573.64,634.13
23.70930,573.84,630.41
23.72918,571.54,631.19
23.75030,571.88,625.76
23.77065,570.25,625.68
23.78958,568.63,618.77
23.80947,570.51,622.23
23.83046,569.30,616.94
23.85035,566.91,613.24
23.86915,567.13,612.77
23.88878,565.89,610.91
23.91035,565.75,614.83
23.93026,563.82,615.48
23.95176,564.30,612.31
23.97004,563.86,611.84
23.99108,565.37,612.93
24.00987,566.42,609.20
24.03018,566.05,610.06
24.05015,567.43,607.99
24.07147,565.08,608.17
24.08982,566.56,608.32
24.11113,564.93,609.36
24.13110,565.15,607.86
24.15210,565.07,603.53
24.17145,567.00,604.89
24.19181,565.78,604.61
24.21244,566.93,596.01
24.23086,564.19,578.76
24.25241,562.59,563.29
24.27237,558.80,544.45
24.29105,554.20,528.22
24.31067,549.35,512.85
24.33255,546.65,498.30
24.35192,543.61,488.69
24.37132,546.22,484.83
24.39226,545.15,480.91
24.41262,542.94,479.93
24.43176,544.56,486.26
24.45081,548.04,493.23
24.47125,546.69,498.09
24.49082,549.74,505.88
24.51062,552.66,512.16
24.53100,551.23,519.04
24.55183,551.29,527.01
24.57154,552.90,535.48
24.59227,556.69,541.45
24.61071,557.22,544.98
24.63114,557.10,553.14
24.65105,558.11,558.38
24.67119,557.25,560.44
24.69269,557.63,565.48
24.71228,560.97,572.56
24.73132,560.45,576.39
24.75171,560.52,581.80
24.77228,559.21,587.18
24.79195,561.14,587.91
24.81097,565.03,591.90
24.83139,568.74,598.58
24.85261,570.35,600.73
24.87092,570.60,603.27
24.89226,575.28,605.88
24.91216,576.56,605.41
24.93249,575.60,605.59
24.95226,575.40,603.17
24.97103,573.54,604.33
24.99239,572.96,604.03
25.01195,572.22,600.07
25.03133,568.71,602.51
25.05272,569.36,602.67
25.07263,568.88,600.18
25.09120,568.05,598.74
25.11160,566.47,598.79
25.13153,567.63,597.76
25.15250,564.12,597.52
25.17188,562.99,595.92
25.19162,566.46,596.64
25.21158,567.08,598.45
25.23181,564.90,597.52
25.25121,566.17,600.12
25.27160,565.51,599.98
25.29092,566.23,601.70
25.31196,563.47,600.83
25.33189,562.45,598.96
25.35094,561.42,601.49
25.37210,561.51,598.56
25.39083,562.81,598.69
25.41113,561.60,599.51
25.43179,562.62,598.79
25.45103,559.48,597.70
25.47255,560.37,594.79
25.49224,561.01,597.69
25.51226,562.33,596.52
25.53108,563.16,596.38
25.55077,563.60,596.39
25.57207,562.93,596.23
25.59140,560.72,595.70
25.61247,560.08,596.96
25.63091,562.92,597.80
25.65074,564.14,599.21
25.67167,562.39,597.69
25.69075,561.52,596.88
25.71246,563.61,597.70
25.73274,562.95,597.50
25.75167,564.43,599.57
25.77114,566.05,599.10
25.79244,565.42,602.63
25.81160,563.20,602.02
25.83133,561.71,600.22
25.85089,563.32,599.48
25.87081,563.79,602.41
25.89200,564.79,599.37
25.91072,561.42,601.74
25.93213,562.13,600.21
25.95198,564.10,600.96
25.97186,564.71,599.14
25.99051,563.37,601.33
26.01191,560.30,598.84
26.03161,560.95,599.00
26.05074,561.92,598.01
26.07207,564.32,596.17
26.09111,563.33,594.72
26.11239,562.25,594.65
26.13091,561.23,595.52
26.15156,562.01,599.03
26.17091,561.82,597.32
26.19168,560.82,600.92
26.21200,558.23,601.82
26.23099,559.37,599.61
26.25169,558.22,596.94
26.27224,559.91,597.63
26.29141,561.78,601.69
26.31076,561.41,601.85
26.33169,562.53,600.03
26.35233,559.35,599.33
26.37179,562.05,599.25
26.39192,560.76,598.51
26.41237,558.71,598.11
26.43205,559.76,599.64
26.45322,559.10,598.65
26.47214,556.50,597.11
26.49240,557.52,598.02
26.51269,556.34,600.49
26.53307,555.99,599.16
26.55324,554.78,599.36
26.57287,556.20,599.49
26.59281,555.29,601.42
26.61204,558.43,600.42
26.63297,557.61,600.34
26.65331,557.28,601.92
26.67283,557.91,603.10
26.69338,557.54,599.56
26.71299,558.17,602.57
26.73295,556.74,601.35
26.75267,558.99,601.91
26.77271,556.70,599.76
26.79262,560.87,598.98
26.81321,560.58,602.20
26.83282,559.95,603.13
26.85254,557.91,603.64
26.87190,559.60,602.99
26.89347,559.16,599.89
26.91303,559.10,599.42
26.93374,555.50,601.68
26.95319,556.10,598.03
26.97190,555.26,599.63
26.99292,557.14,598.83
27.01291,559.71,599.07
27.03173,554.98,597.18
27.05263,557.11,599.43
27.07226,556.09,598.84
27.09258,558.19,601.47
27.11339,555.65,599.49
27.13210,555.51,596.44
27.15192,556.85,595.90
27.17340,555.39,596.20
27.19348,554.08,597.76
27.21224,554.16,618.61
27.23204,554.51,652.10
27.25187,555.51,691.09
27.27244,558.01,713.63
27.29255,559.06,729.02
27.31339,561.14,730.74
27.33310,559.60,728.49
27.35348,559.94,723.52
27.37220,560.23,714.07
27.39299,559.73,707.05
27.41243,559.30,697.44
27.43322,562.45,688.72
27.45190,560.15,679.33
27.47358,561.71,670.41
27.49237,564.80,665.80
27.51224,568.35,660.25
27.53253,568.01,654.57
27.55193,568.24,648.38
27.57327,567.26,641.94
27.59216,563.66,637.80
27.61203,564.15,634.16
27.63272,564.35,627.34
27.65333,562.69,626.65
27.67302,561.20,622.49
27.69246,560.43,618.63
27.71272,557.67,617.57
27.73317,558.79,613.76
27.75167,557.80,612.55
27.77238,556.44,609.97
27.79305,554.22,610.76
27.81359,556.54,609.33
27.83186,555.13,608.18
27.85265,555.83,609.37
27.87326,555.67,605.61
27.89188,554.99,607.32
27.91180,552.37,602.86
27.93221,553.65,603.82
27.95257,553.80,600.46
27.97331,552.22,600.75
27.99322,554.91,601.23
28.01303,553.77,599.17
28.03306,554.08,598.62
28.05182,554.81,597.33
28.07261,554.35,598.72
28.09184,551.70,598.01
28.11252,552.68,597.24
28.13249,554.93,599.59
28.15325,552.80,600.78
28.17285,553.35,598.06
28.19357,552.69,598.08
28.21193,551.97,600.44
28.23209,548.97,610.40
28.25356,550.42,621.05
28.27283,553.95,620.46
28.29218,551.97,610.68
28.31269,549.55,576.32
28.33281,547.68,532.25
28.35270,542.51,496.80
28.37268,540.21,475.91
28.39335,537.50,460.75
28.41263,540.59,456.77
28.43325,536.40,460.55
28.45386,538.88,467.62
28.47276,538.06,475.42
28.49339,538.55,483.23
28.51419,538.78,496.52
28.53363,540.55,504.95
28.55291,542.04,517.26
28.57263,540.04,526.51
28.59508,539.84,532.62
28.61523,540.95,542.01
28.63473,536.97,552.78
28.65485,526.43,562.81
28.67407,519.78,568.13
28.69377,517.14,570.55
28.71446,516.29,577.64
28.73512,516.27,580.53
28.75431,518.91,581.72
28.77405,520.30,583.54
28.79459,520.13,584.84
28.81366,522.67,585.07
28.83440,522.56,588.46
28.85408,525.81,587.45
28.87522,527.16,586.96
28.89512,527.71,589.49
28.91444,529.93,588.65
28.93503,533.41,590.16
28.95478,532.99,592.33
28.97382,535.39,591.94
28.99461,537.60,591.66
29.01546,539.10,595.21
29.03390,540.02,594.63
29.05465,539.83,595.00
29.07556,537.38,598.18
29.09424,538.36,595.96
29.11432,541.88,594.45
29.13416,541.79,595.78
29.15565,542.07,596.81
29.17562,542.16,595.42
29.19414,540.59,592.59
29.21539,542.84,595.16
29.23442,543.35,593.64
29.25512,543.67,595.57
29.27545,542.75,596.39
29.29506,542.71,596.96
29.31387,541.02,596.33
29.33435,541.73,599.03
29.35483,549.61,597.95
29.37508,557.07,594.23
29.39350,563.49,596.68
29.41531,564.93,593.27
29.43395,566.52,593.68
29.45517,566.71,592.46
29.47450,565.06,592.24
29.49477,565.39,591.15
29.51492,561.65,593.80
29.53553,561.56,593.77
29.55514,559.74,592.00
29.57474,560.91,591.50
29.59433,557.01,589.59
29.61505,555.05,591.94
29.63484,555.36,590.91
29.65443,550.95,590.59
29.67494,547.25,594.24
29.69562,547.66,593.30
29.71466,544.04,591.69
29.73561,544.94,594.56
29.75393,545.89,596.20
29.77493,544.90,596.56
29.79541,546.26,597.15
29.81411,546.25,594.64
29.83549,544.98,597.51
29.85550,543.86,594.42
29.87554,547.07,593.90
29.89402,545.39,594.59
29.91437,546.78,593.99
29.93507,545.24,596.69
29.95552,545.10,595.59
29.97404,547.29,595.46
29.99500,546.32,593.11
30.01428,544.26,591.59
30.03456,543.22,593.24
30.05531,544.59,594.63
30.07521,542.28,592.82
30.09387,542.09,592.99
30.11460,544.91,594.89
30.13410,541.78,592.45
30.15449,540.60,594.41
30.17387,540.69,595.25
30.19500,543.45,595.83
30.21443,540.22,593.93
30.23512,543.01,595.26
30.25389,541.53,593.31
30.27465,542.70,592.80
30.29360,541.44,593.61
30.31559,541.77,593.37
30.33520,542.25,591.64
30.35550,542.25,593.17
30.37417,539.72,595.71
30.39502,543.25,594.00
30.41403,541.85,592.93
30.43471,540.47,595.00
30.45398,541.44,596.25
30.47537,540.43,595.95
30.49419,542.25,596.30
30.51494,541.81,597.05
30.53519,544.38,595.54
30.55436,545.95,593.29
30.57516,545.65,591.96
30.59412,544.83,592.32
30.61494,544.19,595.77
30.63434,540.05,595.07
30.65447,540.67,596.31
30.67388,541.91,593.56
30.69497,542.98,595.12
30.71550,545.42,593.88
30.73533,544.66,594.90
30.75555,544.12,595.60
30.77502,542.77,594.36
30.79487,542.81,594.12
30.81519,541.43,595.37
30.83489,539.46,596.53
30.85548,540.98,594.38
30.87402,542.21,594.41
30.89407,542.74,594.53
30.91351,541.61,591.91
30.93358,538.90,593.72
30.95423,538.58,593.33
30.97384,539.02,591.76
30.99351,542.42,592.16
31.01528,538.86,593.20
31.03534,538.90,592.67
31.05536,539.74,594.14
31.07370,540.94,594.14
31.09379,543.10,595.52
31.11538,543.29,592.30
31.13519,540.39,593.06
31.15563,542.05,593.39
31.17504,540.97,594.68
31.19368,541.68,591.87
31.21562,540.21,589.60
31.23515,540.14,591.30
31.25413,539.80,592.33
31.27537,543.17,589.78
31.29549,543.36,592.12
31.31378,541.97,592.46
31.33434,539.94,589.09
31.35494,540.50,583.45
31.37475,544.13,593.28
31.39521,544.37,605.87
31.41559,542.92,630.39
31.43396,543.14,652.85
31.45397,542.61,676.37
31.47558,544.60,702.02
31.49413,544.11,716.67
31.51412,545.96,722.66
31.53458,543.49,725.25
31.55428,547.13,725.26
31.57446,547.72,716.92
31.59527,546.47,707.35
31.61427,550.68,694.15
31.63552,552.38,685.11
31.65539,553.49,673.40
31.67343,552.02,661.87
31.69537,555.15,654.38
31.71495,552.95,645.15
31.73523,555.27,633.95
31.75494,553.39,627.76
31.77593,553.64,622.11
31.79654,552.79,617.56
31.81667,552.18,616.89
31.83553,552.72,611.59
31.85776,553.05,609.22
31.87803,553.81,607.84
31.89937,553.64,609.82
31.91865,555.37,605.15
31.93943,553.90,602.26
31.95970,558.60,600.32
31.98009,556.36,602.05
31.99977,557.49,599.72
32.01863,557.71,601.56
32.03995,557.17,599.17
32.06057,561.13,599.32
32.07959,559.63,600.73
32.10026,562.39,600.02
32.11849,561.50,599.17
32.14029,562.44,598.10
32.15935,562.75,597.82
32.17942,562.09,599.43
32.19980,560.99,600.44
32.22038,562.54,598.79
32.23979,559.84,599.24
32.26107,561.59,599.12
32.28002,560.73,597.52
32.29965,559.51,598.43
32.31999,561.92,599.77
32.33988,559.06,597.35
32.36036,562.32,600.71
32.38120,562.19,600.57
32.40156,563.57,599.94
32.42144,564.38,601.85
32.44120,563.18,600.22
32.45946,559.90,586.44
32.48119,559.25,562.98
32.49979,553.80,533.60
32.52045,554.15,506.58
32.54055,550.36,485.41
32.55977,548.72,472.45
32.58144,547.47,468.73
32.60147,548.85,466.64
32.62091,551.94,474.74
32.64075,551.21,482.67
32.66090,554.57,487.63
32.68076,556.78,500.17
32.70255,554.75,507.99
32.72230,555.06,518.40
32.74075,558.46,523.66
32.76215,560.31,534.05
32.78118,560.34,543.68
32.80328,561.72,552.01
32.82419,560.19,556.88
32.84478,560.54,563.94
32.86478,559.59,566.07
32.88488,562.15,572.39
32.90646,561.65,577.84
32.92676,562.74,582.45
32.94550,561.72,583.54
32.96716,558.58,585.28
32.98601,558.19,588.76
33.00649,557.19,590.76
33.02847,554.97,591.01
33.04775,557.06,590.69
33.06655,558.03,594.00
33.08779,558.27,594.77
33.10841,558.26,591.67
33.12753,555.64,592.47
33.14682,557.22,595.56
33.16675,556.53,595.63
33.18643,557.85,594.94
33.20922,556.06,595.36
33.22881,553.74,596.66
33.24921,552.58,598.31
33.26794,554.69,595.48
33.28819,551.40,596.89
33.30821,551.77,594.94
33.32880,550.64,596.91
33.34858,553.51,594.70
33.36797,552.30,598.57
33.38899,554.62,595.98
33.40869,552.84,596.20
33.42874,550.52,598.31
33.44958,550.59,596.83
33.46934,551.64,595.60
33.48904,550.89,597.74
33.50894,550.76,597.77
33.52873,550.99,600.40
33.54826,551.98,599.72
33.56789,551.18,603.93
33.58797,550.49,601.21
33.60853,549.40,600.64
33.62898,546.26,598.46
33.64824,549.60,601.24
33.66882,548.52,597.03
33.68919,546.72,600.71
33.70887,548.26,596.65
33.73095,547.47,600.11
33.75024,547.51,599.14
33.77124,546.20,594.35
33.79046,544.54,596.12
33.81080,545.52,597.01
33.83123,541.48,596.69
33.85016,543.04,599.04
33.87096,540.11,599.06
33.89086,542.15,597.77
33.91325,540.51,598.70
33.93225,542.22,598.97
33.95399,542.93,595.43
33.97407,543.03,596.40
33.99350,541.38,596.59
34.01420,538.79,596.06
34.03296,539.54,594.28
34.05251,541.00,595.50
34.07407,542.01,598.54
34.09394,540.65,597.47
34.11296,539.77,595.24
34.13375,538.70,594.09
34.15371,539.96,592.74
34.17341,540.93,594.54
34.19408,541.81,593.26
34.21317,539.00,592.06
34.23309,541.54,589.13
34.25357,540.08,591.77
34.27343,541.09,592.18
34.29398,539.73,591.09
34.31322,540.71,591.93
34.33420,541.82,590.84
34.35440,542.29,588.77
34.37389,543.64,589.47
34.39275,541.91,587.14
34.41352,542.26,585.67
34.43361,542.82,587.07
34.45298,544.69,584.61
34.47380,544.90,584.19
34.49405,545.48,585.71
34.51280,546.03,585.91
34.53270,543.96,585.42
34.55376,543.74,587.61
34.57330,546.02,587.99
34.59303,546.37,585.51
34.61431,545.19,587.30
34.63442,546.20,587.24
34.65704,548.37,590.26
34.67718,551.83,588.67
34.69778,553.55,592.85
34.71654,554.96,591.75
34.73825,556.47,594.94
34.75641,556.41,591.42
34.77675,558.58,592.27
34.79822,557.53,593.84
34.81874,556.96,593.79
34.83801,558.15,596.57
34.85890,559.47,595.93
34.87720,562.83,595.49
34.89746,563.42,597.18
34.91788,563.59,596.34
34.93796,561.25,598.43
34.95796,563.16,596.36
34.97854,562.01,598.55
34.99775,562.18,597.08
35.01929,566.08,595.70
35.03948,564.10,595.22
35.05815,566.15,594.97
35.07838,562.92,598.91
35.09854,562.09,598.78
35.11837,561.90,595.27
35.13885,561.95,598.57
35.15932,563.04,596.36
35.17817,564.19,596.92
35.19775,560.26,597.00
35.21808,561.93,596.78
35.23903,561.74,597.37
35.25931,561.69,597.85
35.27833,562.02,599.42
35.29780,564.89,597.39
35.31868,562.95,596.76
35.33921,563.20,599.28
35.35821,564.87,599.60
35.37849,563.25,599.41
35.39880,565.62,597.76
35.41789,564.61,600.48
35.43918,565.30,597.54
35.45841,562.75,598.38
35.47823,566.17,597.77
35.49862,566.40,600.82
35.51878,566.14,600.13
35.53876,567.31,598.45
35.55922,566.36,598.60
35.57846,566.87,599.67
35.59804,567.69,599.27
35.61929,567.79,600.56
35.63942,564.88,602.13
35.65812,566.31,601.61
35.67819,566.60,601.81
35.69945,566.30,600.42
35.71746,564.40,599.00
35.73885,568.52,600.71
35.75824,567.40,601.22
35.77797,566.91,600.57
35.79826,570.21,600.42
35.81857,569.17,600.10
35.83834,567.61,611.98
35.85819,571.06,633.37
35.87852,569.47,658.89
35.89783,570.67,688.37
35.91770,571.71,711.15
35.93728,574.68,717.06
35.95794,571.81,723.92
35.97759,570.10,722.96
35.99749,573.75,716.16
36.01862,571.51,704.70
36.03747,573.57,694.61
36.05831,574.42,687.41
36.07896,573.41,679.95
36.09887,571.22,668.50
36.11907,571.79,659.17
36.13808,572.04,651.96
36.15908,571.48,645.80
36.17814,571.42,636.24
36.19764,571.88,630.84
36.21902,571.48,624.70
36.23865,569.73,624.47
36.25927,571.12,618.37
36.27775,568.42,616.42
36.29910,567.75,618.18
36.31877,567.55,614.95
36.33832,567.18,612.00
36.35734,569.06,613.91
36.37753,567.97,611.94
36.39800,569.16,608.91
36.41922,566.00,612.64
36.43843,567.08,610.93
36.45756,568.69,608.76
36.47827,567.81,604.54
36.49769,570.74,605.98
36.51868,573.15,609.56
36.53872,572.63,606.45
36.55766,570.99,609.65
36.57873,571.23,606.41
36.59762,573.40,609.53
36.61840,569.98,607.49
36.63764,567.20,602.98
36.65910,569.82,605.03
36.67828,567.38,603.05
36.69806,566.50,600.38
36.71907,566.36,606.06
36.73885,566.49,606.09
36.75785,566.25,604.81
36.77852,569.02,605.49
36.79796,569.44,608.64
36.81804,569.65,608.15
36.83924,567.78,599.45
36.85786,567.03,573.41
36.87944,562.67,540.80
36.89911,560.46,513.44
36.91907,561.21,493.80
36.93915,557.77,480.84
36.96019,559.20,480.05
36.97836,560.19,480.26
36.99905,557.68,485.29
37.01861,559.01,494.12
37.03859,559.84,499.96
37.06013,561.28,512.42
37.08000,563.10,520.69
37.09884,559.92,528.54
37.11995,561.00,539.42
37.13986,562.28,543.19
37.15901,562.74,551.46
37.17930,562.58,559.00
37.19974,564.63,565.48
37.21947,564.02,569.45
37.23827,563.09,577.94
37.25993,565.78,580.30
37.27952,566.56,584.06
37.29987,564.38,586.45
37.31965,566.39,588.79
37.34020,566.85,591.14
37.35887,567.20,595.60
37.37900,564.60,593.82
37.39838,563.74,594.96
37.41866,563.58,597.60
37.43947,566.16,598.58
37.46006,563.75,599.16
37.48024,562.04,601.90
37.49932,561.66,602.28
37.51913,562.12,602.15
37.54034,562.47,601.37
37.55860,560.98,603.39
37.58033,564.38,602.39
37.59977,564.06,603.22
37.61927,563.99,602.50
37.63863,563.60,600.08
37.65984,564.78,603.81
37.67994,562.86,602.08
37.69919,563.24,601.10
37.71830,565.55,601.16
37.73842,565.23,605.12
37.75899,565.17,599.43
37.77954,565.80,602.16
37.80148,562.57,601.58
37.81948,562.47,603.71
37.84100,564.02,604.36
37.86031,562.16,602.04
37.88088,565.24,603.67
37.90077,565.08,604.15
37.91932,562.31,603.52
37.94010,563.79,601.51
37.95957,562.04,600.27
37.98023,557.84,597.27
38.00083,557.86,599.05
38.02001,560.23,599.99
38.04120,559.18,600.02
38.05941,557.63,601.50
38.07977,559.40,601.15
38.10042,560.66,599.18
38.11981,559.74,600.24
38.14027,558.26,599.86
38.15952,557.23,599.46
38.18133,555.78,604.16
38.20185,557.48,601.26
38.22137,558.60,601.55
38.24185,559.30,603.81
38.26171,559.34,602.97
38.28195,557.43,603.46
38.30131,557.64,602.44
38.32107,555.75,602.56
38.34136,558.71,602.52
38.36225,556.88,603.02
38.38112,558.15,602.05
38.40066,560.23,601.18
38.42044,559.27,605.06
38.44140,559.10,604.24
38.46130,560.46,600.93
38.48045,560.31,603.02
38.50185,557.02,601.45
38.52110,557.11,602.09
38.54143,556.91,600.89
38.56138,561.37,599.78
38.58063,558.81,602.13
38.60179,558.00,600.61
38.62090,561.06,601.44
38.64066,558.06,602.59
38.66205,559.05,600.02
38.68097,560.08,599.43
38.70213,559.99,602.04
38.72186,556.12,598.48
38.74202,555.20,599.62
38.76211,559.44,601.55
38.78132,558.44,602.83
38.80060,557.04,601.24
38.82168,558.50,599.62
38.84083,560.94,600.92
38.86074,559.57,601.09
38.88124,556.08,602.62
38.90174,557.42,601.80
38.92113,558.89,603.88
38.94193,559.03,602.45
38.96062,557.08,601.60
38.98243,557.35,603.25
39.00061,555.01,603.35
39.02224,556.65,602.42
39.04228,554.16,602.36
39.06119,556.89,601.61
39.08215,555.24,601.44
39.10119,555.27,600.25
39.12088,557.31,602.48
39.14183,557.58,597.41
39.16152,554.39,599.45
39.18048,554.47,598.32
39.20117,553.83,601.10
39.22115,554.43,599.21
39.24126,558.45,598.87
39.26183,556.38,600.28
39.28218,555.59,597.77
39.30123,555.25,597.57
39.32124,553.09,601.07
39.34157,556.27,598.64
39.36195,554.48,598.50
39.38166,556.21,600.68
39.40084,553.76,599.87
39.42098,552.83,601.52
39.44207,554.01,601.54
39.46148,554.05,602.50
39.48056,557.34,601.67
39.50066,557.86,600.95
39.52232,555.84,599.76
39.54163,555.07,601.01
39.56070,555.42,601.13
39.58236,555.97,600.55
39.60070,552.08,602.62
39.62142,553.73,602.05
39.64117,554.66,603.70
39.66060,555.87,601.35
39.68186,555.05,600.76
39.70130,556.32,602.15
39.72156,553.66,602.11
39.74052,555.85,599.83
39.76075,554.42,600.61
39.78060,554.04,600.37
39.80193,552.64,602.59
39.82062,554.77,600.61
39.84108,554.19,599.64
39.86217,554.49,601.74
39.88074,553.16,607.01
39.90129,553.20,623.16
39.92206,554.46,644.44
39.94129,556.01,670.04
39.96111,557.26,690.92
39.98210,560.45,709.82
40.00061,562.37,721.87
40.02045,564.19,723.11
40.04073,565.30,717.28
40.06089,563.55,709.85
40.08169,563.10,700.92
40.10116,563.32,694.42
40.12153,563.23,687.83
40.14051,562.42,680.06
40.16247,564.20,672.46
40.18102,562.52,662.72
40.20167,564.13,654.17
40.22076,563.82,644.55
40.24164,564.54,636.03
40.26276,561.28,636.53
40.28325,559.07,629.30
40.30317,556.09,626.45
40.32305,553.09,624.43
40.34154,553.38,618.05
40.36203,551.73,618.48
40.38156,549.59,612.23
40.40332,551.90,610.82
40.42154,552.61,612.80
40.44149,553.07,608.93
40.46218,554.07,605.48
40.48223,551.49,605.39
40.50212,550.25,606.75
40.52275,549.60,604.45
40.54309,547.77,606.28
40.56169,547.45,604.43
40.58255,546.47,602.64
40.60258,547.08,604.16
40.62262,547.73,598.38
40.64221,550.60,602.60
40.66316,551.09,600.03
40.68197,549.07,602.31
40.70321,550.92,600.51
40.72305,550.00,598.90
40.74318,550.52,598.43
40.76221,551.26,598.07
40.78155,549.42,595.43
40.80153,548.21,596.40
40.82241,548.12,596.73
40.84266,546.45,597.51
40.86253,547.20,599.03
40.88164,547.96,599.29
40.90211,546.39,604.01
40.92169,543.26,604.41
40.94162,541.39,604.27
40.96242,543.24,588.05
40.98165,541.43,564.30
41.00325,540.04,538.25
41.02312,537.12,511.53
41.04163,536.90,496.26
41.06186,538.26,485.41
41.08151,538.39,482.73
41.10133,535.63,480.64
41.12155,537.43,482.22
41.14216,537.14,487.73
41.16226,539.20,495.13
41.18337,541.01,505.04
41.20328,541.53,511.11
41.22189,539.62,517.91
41.24171,540.81,527.39
41.26224,544.21,534.52
41.28265,542.98,541.60
41.30325,544.45,548.13
41.32226,543.00,554.64
41.34142,542.75,557.37
41.36254,543.24,562.93
41.38218,545.25,565.56
41.40304,541.50,569.73
41.42178,542.76,572.32
41.44214,543.02,576.96
41.46257,545.80,578.14
41.48220,543.52,582.27
41.50312,545.78,581.07
41.52211,547.05,585.55
41.54274,546.44,586.07
41.56238,545.77,590.15
41.58299,544.89,589.47
41.60327,542.46,591.93
41.62308,543.61,588.62
41.64298,543.78,590.40
41.66296,543.59,592.27
41.68237,543.34,591.86
41.70221,543.59,594.28
41.72229,547.48,596.89
41.74198,543.85,596.41
41.76148,544.24,594.71
41.78318,545.51,595.07
41.80226,542.44,596.96
41.82128,544.95,593.84
41.84213,543.28,595.72
41.86149,544.27,595.64
41.88282,542.67,597.91
41.90242,545.60,596.47
41.92188,541.91,595.78
41.94280,542.93,599.15
41.96299,540.41,597.66
41.98374,540.00,596.69
42.00228,539.89,595.03
42.02275,539.77,592.81
42.04251,539.07,592.44
42.06405,541.38,594.47
42.08372,542.61,595.39
42.10389,542.12,597.07
42.12432,543.05,595.70
42.14261,541.03,594.43
42.16419,542.59,596.60
42.18512,541.11,593.10
42.20382,543.55,591.55
42.22546,542.30,592.95
42.24549,542.66,591.34
42.26444,542.79,592.03
42.28628,540.88,589.63
42.30504,541.38,589.49
42.32476,540.78,589.01
42.34554,542.44,590.58
42.36603,539.28,589.56
42.38525,541.78,592.59
42.40610,541.98,594.03
42.42451,543.45,594.79
42.44436,543.87,591.21
42.46506,541.35,591.51
42.48566,540.63,594.77
42.50516,542.12,592.50
42.52621,543.03,595.88
42.54485,542.53,595.86
42.56504,542.45,593.98
42.58624,544.12,591.90
42.60599,540.89,594.08
42.62537,541.31,590.43
42.64473,543.14,592.18
42.66464,543.69,592.98
42.68607,546.58,590.30
42.70563,546.06,591.43
42.72587,544.37,590.98
42.74620,545.49,588.91
42.76448,545.06,588.67
42.78472,543.93,591.93
42.80475,542.59,592.71
42.82592,542.74,594.00
42.84522,542.76,597.87
42.86551,544.89,600.82
42.88575,545.30,605.34
42.90593,550.27,608.31
42.92584,553.96,619.14
42.94620,554.97,628.88
42.96604,559.90,636.47
42.98519,559.73,637.20
43.00565,558.55,632.67
43.02514,556.22,616.28
43.04495,553.64,591.00
43.06607,547.48,563.05
43.08485,544.40,541.44
43.10476,537.12,522.71
43.12495,536.59,510.03
43.14605,533.65,495.12
43.16471,531.06,487.86
43.18494,531.19,482.59
43.20635,530.64,478.64
43.22608,529.10,483.03
43.24428,529.69,487.14
43.26590,532.36,496.44
43.28548,533.30,504.49
43.30488,529.91,515.25
43.32611,534.61,526.11
43.34434,533.79,537.49
43.36627,536.61,546.10
43.38571,538.99,554.50
43.40424,540.69,562.17
43.42495,538.10,567.92
43.44489,541.50,572.79
43.46607,541.89,576.74
43.48588,543.99,585.96
43.50450,548.00,597.15
43.52441,550.79,599.08
43.54613,552.66,606.60
43.56496,552.68,606.21
43.58597,555.36,608.44
43.60608,556.10,612.41
43.62611,556.52,618.36
43.64516,558.15,637.52
43.66577,564.20,674.38
43.68547,566.29,714.56
43.70443,568.94,744.65
43.72456,571.90,757.00
43.74616,572.02,750.41
43.76497,570.10,737.66
43.78567,565.95,713.71
43.80492,560.24,689.49
43.82625,556.28,669.89
43.84485,555.45,649.25
43.86475,553.55,629.79
43.88523,552.61,622.20
43.90640,554.90,626.00
43.92647,559.69,642.13
43.94602,565.47,665.71
43.96674,569.63,690.52
43.98661,572.60,707.85
44.00635,576.19,722.72
44.02514,580.12,731.66
44.04680,584.15,735.11
44.06639,585.12,741.52
44.08626,581.11,738.95
44.10549,581.32,736.30
44.12664,579.50,730.05
44.14654,580.96,722.82
44.16707,576.14,719.60
44.18693,572.65,716.63
44.20575,570.48,710.02
44.22545,571.49,710.25
44.24634,567.01,703.70
44.26572,566.66,702.84
44.28543,564.49,698.48
44.30654,560.56,694.13
44.32572,559.80,691.15
