Program Time [s],data 0,data 1
5.23155,432.47,468.60
5.25020,433.13,466.53
5.27023,434.82,468.21
5.28986,434.94,467.15
5.30991,436.52,468.86
5.33052,435.35,471.16
5.35175,434.58,469.29
5.37183,435.84,470.02
5.39028,432.82,470.58
5.41180,433.61,470.25
5.43090,432.78,471.24
5.45113,431.39,471.08
5.47068,432.28,471.26
5.49186,430.56,470.79
5.51128,428.88,471.44
5.53142,429.92,472.15
5.55112,430.28,471.45
5.57234,426.92,468.34
5.59128,428.06,470.71
5.61156,428.35,469.35
5.63304,428.50,469.54
5.65357,429.45,468.35
5.67319,427.45,466.93
5.69220,426.51,466.54
5.71207,424.83,467.01
5.73313,426.72,463.45
5.75223,427.38,463.88
5.77278,423.89,465.86
5.79186,423.24,464.77
5.81373,424.19,465.13
5.83351,427.98,462.12
5.85353,427.90,463.88
5.87355,428.19,462.02
5.89253,428.90,463.30
5.91200,426.89,460.40
5.93223,425.65,460.07
5.95198,427.27,461.20
5.97223,423.35,460.10
5.99231,426.82,460.94
6.01240,425.85,457.46
6.03274,425.43,459.96
6.05360,424.05,458.95
6.07297,425.84,464.61
6.09337,424.76,479.26
6.11199,423.68,499.52
6.13272,426.37,523.03
6.15295,426.59,543.59
6.17234,428.02,550.40
6.19344,425.66,557.76
6.21349,425.78,556.76
6.23277,426.39,554.52
6.25195,428.87,543.61
6.27278,426.77,538.12
6.29335,427.66,530.74
6.31337,427.73,521.71
6.33307,429.21,519.80
6.35379,427.25,511.90
6.37205,426.46,506.31
6.39299,429.47,501.49
6.41196,426.87,495.58
6.43222,429.00,490.65
6.45212,429.30,488.05
6.47369,429.02,486.23
6.49366,429.01,486.75
6.51386,426.70,484.46
6.53242,428.93,480.78
6.55228,428.29,481.12
6.57351,430.39,480.63
6.59389,426.87,475.53
6.61199,427.10,477.83
6.63268,427.14,476.37
6.65211,426.55,474.74
6.67332,429.81,475.68
6.69282,428.40,473.76
6.71357,430.01,473.52
6.73359,427.25,475.58
6.75366,430.15,473.54
6.77302,428.94,478.02
6.79235,431.01,476.17
6.81348,429.55,471.90
6.83304,428.67,473.54
6.85370,427.03,471.91
6.87270,428.00,472.41
6.89367,426.48,469.53
6.91268,428.38,469.34
6.93375,427.45,470.58
6.95190,428.19,471.72
6.97283,427.06,471.46
6.99220,428.85,471.21
7.01228,426.22,468.77
7.03267,426.09,469.42
7.05267,426.31,471.33
7.07218,427.64,468.67
7.09361,429.53,469.64
7.11210,425.80,466.66
7.13189,425.71,453.76
7.15287,426.95,442.72
7.17243,424.91,424.49
7.19299,424.27,405.78
7.21380,428.39,392.00
7.23242,426.89,380.20
7.25251,427.03,377.43
7.27215,428.17,376.60
7.29305,424.51,379.36
7.31245,428.47,382.85
7.33236,427.30,388.08
7.35308,426.91,396.08
7.37219,427.24,402.62
7.39317,426.81,404.26
7.41234,425.10,413.71
7.43344,425.97,418.15
7.45348,428.13,422.40
7.47444,429.42,428.09
7.49393,431.15,432.66
7.51504,429.61,433.86
7.53550,431.65,441.13
7.55757,433.32,446.20
7.57729,435.65,449.41
7.59802,435.95,451.95
7.61952,438.28,456.01
7.63997,441.35,454.02
7.65901,440.99,456.13
7.67952,442.46,458.66
7.69994,443.47,461.53
7.72026,445.03,461.09
7.73919,442.34,460.79
7.76007,442.89,464.15
7.78013,445.24,461.88
7.79980,445.57,462.71
7.82007,442.72,462.55
7.84084,442.71,463.96
7.85958,444.34,459.96
7.87904,443.74,463.60
7.89980,442.25,465.25
7.91975,445.94,464.10
7.94001,446.28,466.75
7.96152,447.14,467.80
7.98119,447.17,469.13
8.00031,446.09,470.84
8.02160,448.26,471.31
8.04001,446.27,471.56
8.06045,448.23,471.66
8.08093,447.28,474.39
8.10181,446.92,472.96
8.12039,447.42,470.22
8.14077,446.85,472.12
8.16159,445.21,475.03
8.17992,445.57,475.00
8.20258,447.52,473.44
8.22181,444.43,473.29
8.24146,445.21,474.51
8.26157,446.64,471.95
8.28119,445.00,472.91
8.30086,444.13,473.30
8.32268,445.19,472.19
8.34106,445.97,472.33
8.36132,447.73,473.77
8.38136,446.66,474.24
8.40089,446.65,474.55
8.42127,448.15,471.30
8.44348,447.22,470.63
8.46297,447.57,473.35
8.48298,444.02,473.39
8.50263,446.20,471.43
8.52260,442.64,474.14
8.54437,443.48,471.85
8.56321,444.63,471.86
8.58451,445.36,469.87
8.60339,443.44,472.52
8.62285,444.79,473.66
8.64429,443.17,471.62
8.66697,443.30,472.03
8.68399,445.64,471.68
8.70361,444.13,471.81
8.72290,444.29,471.13
8.74398,441.35,468.47
8.76306,442.90,469.67
8.78416,443.48,470.70
8.80395,441.89,470.71
8.82453,443.08,469.03
8.84422,443.82,471.23
8.86307,441.01,470.81
8.88476,440.86,468.49
8.90381,440.91,468.99
8.92398,441.11,468.98
8.94446,443.04,467.81
8.96394,441.76,469.31
8.98449,441.43,468.65
9.00327,441.79,469.11
9.02392,439.06,468.35
9.04349,441.43,469.59
9.06415,443.12,466.04
9.08429,441.81,467.99
9.10473,441.76,468.90
9.12412,439.94,468.58
9.14358,440.08,464.92
9.16338,439.21,465.76
9.18296,439.20,467.49
9.20473,438.00,467.84
9.22449,439.51,463.74
9.24296,441.04,464.53
9.26287,439.39,464.53
9.28411,439.26,468.70
9.30292,438.37,469.55
9.32322,441.89,469.52
9.34452,441.45,467.84
9.36423,438.06,471.00
9.38511,438.59,467.52
9.40565,438.68,468.04
9.42532,437.32,467.62
9.44459,437.75,469.83
9.46481,439.43,471.09
9.48549,436.80,468.05
9.50496,436.93,470.79
9.52502,437.06,469.65
9.54490,438.02,467.29
9.56424,439.36,467.80
9.58383,436.40,469.84
9.60530,439.57,467.33
9.62453,436.78,468.34
9.64491,437.27,469.35
9.66479,438.47,470.64
9.68521,439.64,468.73
9.70562,436.75,468.10
9.72495,436.66,468.37
9.74485,437.09,469.62
9.76497,439.16,467.27
9.78449,438.29,469.34
9.80418,438.73,471.32
9.82539,436.94,470.48
9.84518,436.51,468.47
9.86392,438.48,471.52
9.88508,437.45,470.75
9.90554,435.13,470.46
9.92386,433.76,468.33
9.94452,434.80,470.98
9.96396,432.65,467.98
9.98565,434.39,468.45
10.00422,435.01,469.84
10.02378,434.63,465.81
10.04426,434.47,467.70
10.06468,433.34,468.99
10.08529,435.50,472.71
10.10427,433.10,489.27
10.12393,436.38,505.67
10.14411,433.59,532.84
10.16463,434.40,550.84
10.18530,435.71,571.59
10.20462,434.94,581.82
10.22412,434.69,586.58
10.24410,433.57,585.04
10.26551,437.09,576.34
10.28392,435.33,569.31
10.30401,438.09,559.56
10.32433,434.70,545.98
10.34383,435.09,536.31
10.36386,433.96,525.37
10.38450,433.90,516.61
10.40453,434.54,505.41
10.42598,437.22,500.95
10.44572,435.22,496.15
10.46623,435.06,492.53
10.48754,436.45,488.67
10.50690,437.12,484.06
10.52670,434.75,479.83
10.54598,434.70,477.58
10.56601,436.62,476.68
10.58621,434.10,474.57
10.60686,430.02,471.08
10.62734,431.49,473.68
10.64671,430.44,472.80
10.66669,427.76,469.44
10.68656,428.15,470.80
10.70690,428.01,470.17
10.72735,426.34,469.54
10.74796,428.30,470.42
10.76712,428.68,470.12
10.78715,430.94,469.96
10.80806,429.26,469.04
10.82852,429.02,470.70
10.84689,428.61,469.90
10.86866,427.17,468.37
10.88845,426.59,468.39
10.90768,425.34,468.97
10.92744,429.68,469.02
10.94828,428.64,466.34
10.96789,429.85,465.00
10.98815,428.17,467.76
11.00862,429.44,466.67
11.02699,428.90,465.19
11.04758,430.92,463.79
11.06799,430.57,461.60
11.08722,430.40,457.94
11.10881,432.23,440.26
11.12909,432.72,418.29
11.14886,428.82,394.40
11.16931,428.13,378.03
11.18914,425.55,368.85
11.20934,425.46,367.20
11.22818,424.76,368.98
11.24823,425.90,369.96
11.26915,422.59,375.07
11.28807,422.19,384.09
11.30914,425.58,388.76
11.32798,423.31,397.81
11.34907,423.25,401.89
11.36907,423.18,407.90
11.38785,426.89,414.02
11.40835,426.52,418.20
11.42874,427.37,421.45
11.44945,425.94,426.98
11.46782,426.11,430.75
11.48862,425.81,432.39
11.50858,426.70,437.35
11.52923,427.51,441.25
11.54794,428.63,444.87
11.56789,428.34,445.09
11.58894,427.16,448.57
11.60783,428.65,450.41
11.62952,428.80,453.29
11.64878,428.22,456.01
11.66900,426.81,455.51
11.68776,429.52,456.74
11.70861,429.87,458.08
11.72829,430.22,459.80
11.74918,427.12,461.05
11.76884,428.20,461.33
11.78847,429.38,463.95
11.80806,427.99,463.48
11.82817,428.30,463.44
11.84791,428.33,464.13
11.86843,426.30,461.19
11.88976,428.03,462.90
11.90927,428.03,464.19
11.92964,430.53,460.59
11.94801,429.06,459.72
11.96968,428.00,459.84
11.98947,430.11,461.68
12.00827,430.30,460.34
12.02794,428.79,463.11
12.04847,428.45,462.61
12.06814,430.77,460.63
12.08891,429.37,464.36
12.10944,428.02,465.70
12.12806,430.48,464.62
12.14799,428.11,464.65
12.16922,431.50,465.04
12.18877,429.26,467.75
12.20904,429.46,464.47
12.22824,427.50,463.03
12.24790,429.46,463.92
12.26951,430.32,462.49
12.28892,431.02,464.16
12.30912,431.31,463.26
12.32794,430.56,461.12
12.34816,429.13,462.22
12.36881,430.13,464.48
12.38883,430.15,461.96
12.40822,428.81,462.64
12.42824,430.74,463.82
12.44977,428.87,463.43
12.46966,428.17,466.39
12.48803,427.94,463.76
12.50807,429.61,463.92
12.52878,430.27,464.64
12.54820,430.93,464.07
12.56954,428.32,464.03
12.58874,428.44,463.19
12.60914,430.39,465.02
12.62795,428.78,463.61
12.64821,431.40,464.28
12.66963,429.52,463.57
12.68972,429.04,464.86
12.70841,429.49,462.89
12.72813,427.88,461.63
12.74956,430.78,463.97
12.76831,428.95,464.80
12.78936,429.27,464.88
12.80970,430.69,462.25
12.82906,431.84,463.23
12.84879,431.32,463.51
12.86830,429.89,465.94
12.88783,428.69,463.25
12.90800,430.53,464.40
12.92792,430.35,462.59
12.94812,431.11,465.87
12.96916,429.27,464.02
12.98848,429.27,464.59
13.00771,431.52,466.63
13.02970,430.58,465.46
13.04945,432.58,465.03
13.06917,433.50,463.06
13.08863,431.01,464.34
13.10940,433.47,463.55
13.12959,434.93,466.09
13.14929,431.41,467.01
13.16815,431.74,468.79
13.18879,432.84,467.13
13.20826,432.65,466.20
13.22908,432.34,464.66
13.24894,432.53,466.26
13.26853,430.13,464.40
13.28814,430.69,462.54
13.30964,429.86,463.99
13.32837,431.68,463.76
13.34838,430.87,461.65
13.36835,429.43,464.41
13.38846,431.64,462.31
13.40801,431.56,463.00
13.42918,431.33,463.27
13.44874,431.96,461.97
13.46932,431.08,462.99
13.48853,433.40,464.76
13.50824,430.26,461.82
13.52813,431.85,462.69
13.54836,433.20,464.09
13.56870,428.67,465.31
13.58904,431.34,463.66
13.60889,428.76,466.07
13.62849,430.51,463.86
13.64857,431.09,464.29
13.66924,432.36,462.75
13.68788,431.15,466.33
13.70856,430.41,466.05
13.72959,431.72,464.73
13.74775,432.02,463.40
13.76840,430.01,465.67
13.78787,430.38,463.53
13.80953,433.81,464.55
13.82878,431.72,464.16
13.84935,431.50,463.09
13.86790,433.19,459.85
13.88872,433.77,462.53
13.90907,434.74,461.65
13.92874,433.51,460.57
13.94856,436.58,461.71
13.96941,434.82,462.52
13.98832,437.87,461.62
14.00910,435.31,464.66
14.02969,435.46,464.40
14.04955,434.74,462.37
14.06848,433.55,462.99
14.08879,434.38,465.29
14.10811,434.96,466.30
14.12821,432.16,466.68
14.14925,433.86,467.18
14.16828,431.92,467.12
14.18899,431.47,468.52
14.20833,432.67,468.53
14.22839,435.16,477.59
14.24788,436.88,491.59
14.26820,435.82,509.29
14.28861,439.07,522.97
14.30821,437.14,534.09
14.32886,438.96,540.97
14.34855,438.41,539.55
14.36812,437.16,532.77
14.38858,437.02,522.06
14.40844,436.76,512.75
14.42962,434.18,504.51
14.44870,434.34,505.95
14.46788,436.57,510.08
14.48799,437.51,516.38
14.50876,436.99,526.58
14.52954,440.02,533.00
14.54777,440.37,537.92
14.56949,439.85,536.41
14.58872,441.45,528.83
14.60805,439.96,525.39
14.62916,438.47,519.48
14.64903,441.57,510.95
14.66856,437.71,507.27
14.68943,440.26,501.62
14.70905,438.37,495.96
14.72888,439.47,494.60
14.74870,436.04,490.64
14.76784,437.19,486.30
14.78872,437.21,487.52
14.80855,438.05,480.37
14.82856,436.54,478.88
14.84913,438.74,477.64
14.86873,438.89,476.04
14.88783,436.27,474.94
14.90766,437.12,475.09
14.92801,437.80,474.56
14.94822,438.22,473.07
14.96893,438.46,473.51
14.98904,439.67,470.53
15.00889,438.09,468.01
15.02776,439.18,466.79
15.04844,438.91,470.17
15.06782,439.81,469.57
15.08911,440.30,467.01
15.10962,438.01,467.79
15.12771,437.35,465.94
15.14853,436.80,468.70
15.16878,437.25,467.46
15.18877,440.10,470.79
15.20785,439.28,470.85
15.22828,435.11,458.59
15.24863,434.67,439.99
15.26833,430.80,418.71
15.28898,430.78,393.34
15.30866,429.43,373.17
15.32780,429.06,360.70
15.34786,429.86,353.57
15.36825,430.07,354.47
15.38908,432.16,359.47
15.40777,430.29,363.60
15.42791,433.20,368.71
15.44820,431.08,378.21
15.46800,434.61,385.99
15.48919,433.54,394.69
15.50840,434.20,401.34
15.52965,435.65,409.90
15.54884,437.92,416.22
15.56893,438.08,420.85
15.58833,435.94,428.97
15.60835,439.16,433.78
15.62927,439.63,438.29
15.64936,438.16,444.52
15.66945,437.44,446.89
15.68864,439.21,452.21
15.70869,441.72,452.69
15.72815,439.30,455.58
15.74938,439.14,457.30
15.76865,441.00,458.23
15.78892,439.16,462.13
15.80852,439.22,461.17
15.82940,439.56,461.15
15.84864,440.93,462.46
15.86848,440.27,463.27
15.88809,440.06,463.97
15.90867,438.71,463.93
15.92923,439.57,466.79
15.94858,438.58,464.94
15.96866,442.60,467.12
15.98819,443.00,465.95
16.00845,442.70,467.16
16.02853,439.16,466.15
16.04912,439.62,468.22
16.06839,440.12,467.81
16.08777,441.57,467.01
16.10937,441.46,465.26
16.12793,439.61,463.28
16.14878,439.30,466.00
16.16836,439.89,465.96
16.18896,441.29,466.03
16.20795,441.71,464.75
16.22956,438.45,463.71
16.24831,438.01,463.54
16.26818,439.61,466.05
16.28888,442.81,465.61
16.30847,443.96,461.69
16.32818,441.34,463.40
16.34816,440.79,467.73
16.36969,440.49,467.17
16.38948,440.02,466.13
16.40806,440.97,465.14
16.42907,440.52,465.03
16.44849,441.07,466.20
16.46946,441.59,465.33
16.48950,443.69,464.82
16.50850,440.52,467.16
16.52843,443.90,464.55
16.54881,444.07,464.64
16.56939,443.68,467.38
16.58775,439.89,465.04
16.60770,440.92,467.86
16.62872,440.71,466.46
16.64969,439.30,463.21
16.66904,438.67,465.45
16.68821,440.94,466.49
16.70906,439.49,467.01
16.72892,439.34,467.17
16.74806,441.39,468.63
16.76856,441.35,467.11
16.78902,443.52,469.83
16.80909,441.53,468.76
16.82826,445.28,466.45
16.84882,443.62,470.13
16.86924,443.77,469.53
16.88844,443.06,469.50
16.90940,445.34,468.60
16.92873,443.61,469.73
16.94875,442.93,468.06
16.96845,445.52,467.53
16.98880,443.46,469.15
17.00791,444.26,466.84
17.02770,444.69,467.38
17.04792,446.15,466.19
17.06764,445.91,469.93
17.08795,445.44,467.43
17.10823,446.06,466.95
17.12916,443.08,467.90
17.14855,444.89,468.10
17.16786,446.47,467.72
17.18950,445.66,466.48
17.20923,445.39,467.15
17.22824,443.22,467.28
17.24861,444.52,465.10
17.26925,444.26,462.15
17.28859,445.74,464.31
17.30952,444.58,464.03
17.32929,445.32,463.72
17.34836,444.29,463.09
17.36772,447.35,464.76
17.38919,446.39,465.30
17.40828,446.73,462.46
17.42883,445.65,466.22
17.44817,444.62,462.94
17.46892,446.28,466.05
17.48783,445.45,464.17
17.50916,443.89,464.87
17.52887,444.27,463.76
17.54857,444.91,464.38
17.56916,447.77,464.18
17.58849,446.98,464.61
17.60858,448.14,466.65
17.62958,447.05,466.72
17.64799,447.56,464.64
17.66870,445.76,466.20
17.68804,448.23,468.20
17.70927,445.83,465.03
17.72843,445.98,464.51
17.74829,446.12,463.99
17.76814,444.70,466.52
17.78856,444.67,464.03
17.80800,446.90,465.60
17.82778,446.00,468.60
17.84872,448.14,465.71
17.86897,447.80,464.41
17.88896,447.83,467.22
17.90942,447.45,466.69
17.92815,447.73,470.80
17.94801,444.09,468.62
17.96951,446.44,469.91
17.98877,445.62,470.35
18.00829,447.50,467.53
18.02857,449.46,468.74
18.04907,447.67,467.93
18.06923,448.55,467.91
18.08817,445.48,467.67
18.10921,449.76,467.40
18.12781,446.99,466.26
18.14794,448.32,466.74
18.16920,445.22,467.25
18.18820,442.98,476.31
18.20895,445.13,490.83
18.22860,443.85,508.15
18.24800,446.36,520.32
18.26927,445.20,535.36
18.28947,445.04,546.40
18.30848,444.73,549.86
18.32802,445.37,550.33
18.34959,449.01,551.32
18.36779,448.88,545.65
18.38835,446.54,540.98
18.40930,450.88,531.17
18.42876,448.87,524.80
18.44771,445.86,516.91
18.46882,446.97,507.27
18.53279,445.24,502.35
18.53118,446.00,498.63
18.53219,444.56,495.35
18.54876,443.92,491.59
18.56847,445.02,485.70
18.58791,442.61,487.74
18.60824,444.04,483.30
18.62843,443.10,481.70
18.64817,447.04,481.34
18.66913,447.89,476.27
18.68913,445.55,476.83
18.70916,447.68,473.67
18.72909,451.09,476.77
18.74954,449.46,474.03
18.76914,448.27,471.77
18.78826,446.30,472.11
18.80973,446.72,471.47
18.82795,444.10,475.27
18.84933,443.50,471.88
18.86824,446.41,473.10
18.88952,444.52,473.20
18.90871,443.01,472.11
18.92807,445.42,471.73
18.94885,446.06,471.36
18.96774,445.08,469.94
18.98873,443.20,471.82
19.00842,442.89,473.47
19.02811,446.85,472.35
19.04792,446.81,470.04
19.06851,448.00,471.70
19.08799,443.70,471.26
19.10784,442.87,472.27
19.12925,446.06,472.07
19.14894,447.10,469.72
19.16889,446.26,469.04
19.18826,445.51,467.32
19.20841,443.91,469.23
19.22791,445.21,467.57
19.24951,445.00,467.86
19.26940,443.24,468.04
19.28890,445.52,467.93
19.30873,443.00,468.32
19.32885,446.57,467.91
19.35027,442.75,466.26
19.36950,441.63,469.44
19.39026,443.67,468.43
19.40981,443.40,471.46
19.42891,444.23,470.21
19.45043,446.04,470.63
19.46912,445.37,469.88
19.49133,445.69,471.08
19.51094,444.98,474.32
19.53096,443.84,468.15
19.55010,443.52,449.55
19.57026,442.55,428.60
19.59135,439.37,407.64
19.61120,437.62,393.73
19.63069,437.79,387.99
19.65041,438.69,383.24
19.67067,439.57,386.34
19.69091,437.21,391.18
19.70977,439.83,397.47
19.73062,439.34,403.20
19.74982,440.33,408.69
19.77063,439.47,416.52
19.79079,438.69,419.43
19.81142,441.35,425.47
19.83137,442.66,433.74
19.85024,439.74,436.60
19.87116,439.78,440.93
19.89052,440.30,444.71
19.90997,440.59,450.52
19.93074,441.72,450.09
19.95140,440.67,455.07
19.97018,440.85,458.74
19.98985,441.82,458.32
20.01055,444.83,463.71
20.03123,442.84,461.24
20.05044,443.66,463.31
20.07080,442.84,463.78
20.09024,444.81,465.45
20.11128,441.53,464.75
20.13072,442.03,467.19
20.14973,443.67,467.04
20.16978,443.07,469.20
20.18981,443.29,468.93
20.21056,442.25,468.34
20.22990,444.25,465.69
20.25044,445.35,466.60
20.27074,441.05,470.55
20.29031,442.01,469.06
20.31067,443.25,466.77
20.33015,441.69,468.24
20.35061,442.32,467.77
20.37073,442.02,467.57
20.39081,443.93,467.30
20.40964,442.92,467.09
20.43057,441.40,469.54
20.45047,443.77,469.37
20.47086,444.04,470.33
20.49069,443.48,468.42
20.51128,444.42,470.41
20.53048,440.75,469.67
20.55133,440.88,468.25
20.57091,440.01,468.64
20.59094,441.72,467.74
20.60975,442.37,470.34
20.62966,437.93,468.99
20.65148,440.21,467.66
20.67017,437.37,466.45
20.69025,439.21,469.06
20.70977,436.90,468.04
20.73060,438.55,470.40
20.75157,437.34,469.02
20.77069,438.58,470.71
20.79117,439.65,467.69
20.80980,437.94,467.97
20.82994,440.11,469.23
20.85117,440.31,465.80
20.87095,439.21,466.10
20.89132,440.72,468.06
20.91106,442.88,466.81
20.93021,440.88,468.50
20.94982,442.26,468.58
20.97052,441.24,471.61
20.98969,440.09,469.40
21.01058,440.60,469.81
21.03121,439.47,468.95
21.05150,442.08,468.62
21.06965,440.11,467.86
21.09063,439.47,468.27
21.11104,442.72,466.74
21.12975,440.15,464.65
21.15127,440.93,466.55
21.17153,440.81,467.94
21.19151,437.26,468.99
21.20948,438.23,467.16
21.22972,436.35,464.14
21.25043,438.57,467.60
21.27046,437.06,469.46
21.29155,439.22,468.65
21.31030,440.54,468.44
21.33103,438.34,468.21
21.34999,438.72,468.19
21.37048,438.00,467.96
21.39062,438.29,467.75
21.41019,440.00,468.66
21.43045,437.64,468.11
21.44973,437.37,466.51
21.47073,439.72,465.99
21.49001,439.35,467.33
21.50993,439.24,466.23
21.52985,436.15,467.75
21.54974,437.47,467.44
21.57100,438.68,470.44
21.59052,435.93,470.25
21.60951,438.07,469.71
21.63008,437.03,470.80
21.64966,438.58,469.54
21.67044,436.88,468.97
21.68992,436.47,471.73
21.70999,438.78,471.69
21.73130,436.56,468.02
21.75072,437.63,469.79
21.76995,437.76,469.71
21.79021,440.75,471.29
21.81066,440.40,468.79
21.83006,439.37,469.94
21.84950,436.28,466.81
21.87128,438.07,465.74
21.88980,437.48,468.97
21.91076,438.93,465.27
21.93023,438.13,465.92
21.95038,437.37,468.74
21.96983,435.15,468.75
21.98984,436.45,469.39
22.01023,433.78,468.84
22.03011,438.37,468.20
22.05095,437.53,470.36
22.07109,433.88,467.75
22.09009,437.29,469.82
22.11050,436.74,470.09
22.12996,434.58,466.46
22.15038,433.59,469.43
22.17071,436.00,467.41
22.19012,432.62,469.66
22.21036,435.11,466.81
22.23082,436.86,467.13
22.25120,437.21,467.77
22.27020,438.19,467.78
22.29055,434.77,468.98
22.31080,434.25,467.99
22.33096,434.34,467.70
22.35088,434.84,466.81
22.36946,434.55,474.56
22.39075,436.46,488.74
22.40960,437.14,510.64
22.42972,434.93,526.83
22.44996,432.04,537.07
22.47119,433.09,545.52
22.48981,431.28,550.13
22.51031,430.30,548.90
22.52995,432.76,544.35
22.55030,433.06,538.39
22.57041,431.57,532.49
22.59121,433.29,523.22
22.61056,434.14,515.23
22.62948,434.98,508.23
22.65067,437.00,504.59
22.66979,436.22,499.50
22.69052,435.18,495.04
22.70980,437.97,494.84
22.72987,438.21,490.68
22.75099,435.74,485.30
22.77064,435.31,483.19
22.79071,436.09,482.50
22.81024,434.02,479.94
22.82996,434.61,478.91
22.85108,431.89,478.56
22.87062,430.69,479.34
22.89115,430.26,476.04
22.91003,432.28,475.16
22.92967,430.77,476.54
22.95109,432.80,476.65
22.96981,430.94,477.11
22.99005,434.85,476.92
23.00950,432.15,474.14
23.03102,435.56,472.13
23.04972,432.46,471.94
23.07042,433.06,473.22
23.09051,431.75,473.02
23.11027,433.02,471.48
23.13021,432.22,473.73
23.14969,431.28,476.16
23.17124,429.74,472.42
23.19010,431.92,473.55
23.21009,431.08,475.77
23.23022,427.87,476.29
23.25131,432.07,472.53
23.27001,432.13,471.71
23.29120,431.05,474.73
23.31026,431.00,471.37
23.32934,430.39,472.60
23.35133,430.74,470.60
23.36995,430.17,471.58
23.39063,434.47,471.87
23.41029,432.20,473.55
23.43128,433.86,471.89
23.45072,431.05,470.42
23.47076,433.11,471.68
23.48949,432.13,469.31
23.51125,430.90,470.40
23.53149,434.77,467.91
23.55064,430.54,468.45
23.57129,434.14,473.75
23.58951,430.45,476.00
23.61039,431.85,470.59
23.63077,431.12,455.61
23.64987,427.22,439.21
23.67110,427.91,415.64
23.68980,426.36,398.29
23.71001,426.63,387.52
23.73063,426.92,380.97
23.74990,424.96,376.29
23.77080,426.20,380.60
23.78980,424.52,384.38
23.81110,426.55,390.83
23.82982,425.85,394.83
23.84995,426.89,401.70
23.87100,429.29,408.06
23.89131,427.98,414.32
23.91059,429.14,419.84
23.93116,425.94,425.77
23.95093,428.08,430.66
23.96937,428.71,437.22
24.08052,430.51,441.29
24.07922,429.18,444.93
24.08075,430.22,450.65
24.08067,428.26,451.17
24.08064,430.32,453.98
24.10016,430.21,455.61
24.12083,432.72,460.73
24.14086,435.83,458.75
24.16088,437.56,460.59
24.18131,441.70,461.75
24.20018,443.04,461.56
24.21975,443.42,463.48
24.24004,442.45,464.96
24.25998,442.67,466.86
24.27962,445.31,467.98
24.29970,441.84,465.62
24.32050,443.12,468.40
24.33942,445.15,468.23
24.36096,443.89,468.73
24.38033,445.06,467.86
24.40119,442.86,467.70
24.42127,444.86,466.42
24.44143,445.28,465.31
24.45999,443.38,467.38
24.48036,445.19,466.65
24.50080,445.26,465.61
24.52026,445.27,465.33
24.54119,446.54,468.00
24.56067,446.63,465.47
24.58070,445.23,465.44
24.59988,445.76,465.04
24.62049,449.82,466.40
24.63955,448.01,466.62
24.66072,446.67,468.24
24.67999,448.36,470.74
24.69984,447.22,469.86
24.72049,446.04,468.95
24.73944,446.42,468.00
24.76106,449.54,469.79
24.77999,448.98,470.72
24.80019,446.68,467.70
24.81958,445.69,468.67
24.84040,445.22,471.88
24.85978,446.12,468.76
24.88088,445.70,472.00
24.89947,446.84,470.42
24.92091,445.41,470.41
24.93982,446.97,472.54
24.95953,447.77,470.41
24.98118,445.52,472.08
24.99926,447.21,471.52
25.01983,448.31,471.97
25.04102,446.68,470.35
25.05957,447.66,468.25
25.08100,445.88,471.34
25.10018,444.70,467.65
25.12094,444.76,470.28
25.14052,448.75,467.62
25.15998,447.81,471.47
25.17953,447.20,469.05
25.20115,448.41,468.35
25.22097,449.47,470.18
25.24056,449.46,467.74
25.26043,448.02,468.16
25.28057,446.63,469.64
25.30195,447.80,470.85
25.32220,449.80,468.42
25.34163,445.91,470.88
25.36192,447.61,468.67
25.38338,445.12,469.09
25.40363,446.39,468.23
25.42336,445.50,468.73
25.44339,444.90,469.65
25.46494,444.84,469.66
25.48505,441.81,471.29
25.50531,443.30,470.40
25.52452,443.33,469.44
25.54614,440.23,468.55
25.56524,442.74,468.18
25.58630,440.84,468.68
25.60473,440.53,471.45
25.62555,440.94,468.93
25.64504,440.44,471.73
25.66560,439.67,471.43
25.68486,438.84,471.92
25.70475,439.57,470.88
25.72607,438.60,469.98
25.74592,439.02,470.15
25.76606,437.37,469.93
25.78529,438.79,472.22
25.80501,437.20,472.52
25.82596,439.24,470.17
25.84537,437.49,469.27
25.86472,436.22,470.67
25.88568,435.23,472.81
25.90503,438.39,471.16
25.92559,439.18,469.35
25.94627,436.87,470.78
25.96711,436.98,468.03
25.98642,436.95,466.31
26.00714,437.35,469.36
26.02587,436.53,469.68
26.04596,434.33,468.35
26.06549,432.17,467.69
26.08610,431.23,468.52
26.10549,433.65,465.02
26.12756,430.98,466.08
26.14600,434.20,468.11
26.16623,434.23,468.50
26.18613,434.20,467.04
26.20715,431.34,466.93
26.22762,431.94,465.25
26.24686,433.36,467.65
26.26669,434.36,466.11
26.28689,431.12,466.58
26.30780,433.09,468.78
26.32653,430.18,469.65
26.34816,430.11,467.47
26.36779,429.94,467.16
26.38740,427.97,465.20
26.40791,426.42,463.41
26.42734,428.18,464.04
26.44665,428.33,465.95
26.46797,427.51,466.88
26.48804,424.13,467.41
26.50840,427.57,465.24
26.52789,426.79,466.46
26.54795,428.89,465.24
26.56826,428.47,465.92
26.58741,428.51,465.04
26.60777,426.70,465.68
26.62764,427.63,464.56
26.64716,428.59,467.37
26.66756,428.22,462.96
26.68754,429.81,462.55
26.70794,430.11,461.62
26.72714,426.80,465.05
26.74666,425.40,479.57
26.76767,427.82,500.64
26.78674,428.97,522.44
26.80711,426.93,533.61
26.82840,427.84,539.37
26.84680,427.30,542.06
26.86783,429.12,544.43
26.88817,427.86,539.02
26.90662,429.17,533.61
26.92712,431.87,529.10
26.94805,430.32,518.92
26.96741,432.76,512.95
26.98685,429.27,509.32
27.00720,428.70,503.07
27.02743,428.60,496.47
27.04709,428.73,492.90
27.06736,428.92,492.02
27.08663,429.07,488.64
27.10702,429.44,482.68
27.12780,429.02,480.54
27.14765,428.72,478.16
27.16718,426.80,475.54
27.18640,430.01,477.33
27.20691,429.57,476.08
27.22838,426.94,473.27
27.24762,426.80,476.66
27.26730,427.23,473.22
27.28740,429.03,473.53
27.30763,427.51,472.56
27.32843,427.54,472.22
27.34837,427.73,471.28
27.36817,429.78,473.49
27.38756,429.70,471.92
27.40722,428.52,467.20
27.42737,429.45,469.93
27.44738,430.77,466.69
27.46697,428.88,471.48
27.48774,432.08,469.94
27.50777,428.12,468.72
27.52839,429.70,466.38
27.54822,430.41,465.52
27.56713,430.61,468.05
27.58813,429.94,466.33
27.60781,428.55,464.66
27.62693,428.67,466.77
27.64651,430.07,463.85
27.66739,427.76,467.65
27.68703,429.81,463.42
27.70763,429.15,464.70
27.72847,427.55,466.56
27.74676,430.51,467.32
27.76801,428.07,465.76
27.78672,430.72,461.73
27.80783,425.92,449.53
27.82717,425.12,432.96
27.84661,423.73,410.22
27.86661,421.91,395.30
27.88745,423.22,383.98
27.90705,421.68,379.81
27.92683,420.33,380.41
27.94611,421.35,385.07
27.96689,421.23,389.27
27.98743,422.06,391.32
28.00815,422.90,399.22
28.02650,422.60,402.74
28.04739,424.93,408.29
28.06814,426.20,413.55
28.08796,426.87,419.34
28.10635,427.99,423.77
28.12763,428.20,429.92
28.14694,428.92,437.42
28.16830,430.61,439.53
28.18780,431.21,442.79
28.20822,429.71,445.64
28.22726,431.49,450.73
28.24724,432.11,450.53
28.26803,429.40,452.52
28.28775,429.73,454.78
28.30794,430.43,455.59
28.32700,430.35,457.79
28.34824,428.96,460.89
28.36707,431.10,460.76
28.38805,431.29,460.84
28.40768,429.07,462.09
28.42707,432.71,461.35
28.44686,429.84,460.71
28.46694,429.95,463.44
28.48743,431.16,462.65
28.50820,429.58,462.98
28.52712,429.63,465.51
28.54756,428.61,463.59
28.56831,425.72,467.65
28.58768,428.02,465.46
28.60696,426.71,465.49
28.62724,425.87,465.19
28.64818,428.72,468.81
28.66819,428.44,467.90
28.68794,428.60,466.07
28.70907,428.28,465.50
28.72929,429.55,468.15
28.74970,429.42,464.90
28.77028,429.85,466.97
28.78978,432.17,464.95
28.81085,431.06,466.20
28.82991,431.32,464.87
28.85058,432.07,465.64
28.87104,431.25,468.26
28.88954,430.04,467.18
28.91083,430.90,466.08
28.93102,430.38,467.02
28.94962,431.86,467.66
28.96990,433.01,468.07
28.98970,431.59,465.73
29.00987,429.77,463.76
29.03001,430.88,466.32
29.04991,432.43,465.59
29.07017,434.52,465.50
29.09124,431.55,468.59
29.11138,434.73,465.12
29.13058,432.38,466.05
29.15014,433.20,466.80
29.17083,434.29,466.13
29.19117,435.46,463.97
29.20939,434.83,466.73
29.23051,432.93,465.64
29.25013,432.75,464.72
29.26926,434.62,463.92
29.28943,432.48,467.88
29.30995,434.07,467.74
29.32929,432.43,463.98
29.35082,437.20,468.12
29.37178,435.10,468.99
29.39253,436.94,467.72
29.41378,438.09,470.27
29.43377,439.14,468.05
29.45339,441.44,469.88
29.47388,441.73,469.19
29.49238,442.51,469.75
29.51352,441.03,467.14
29.53381,443.82,467.84
29.55380,441.59,467.44
29.57409,442.30,467.21
29.59336,445.46,469.48
29.61408,444.63,466.98
29.63458,443.37,467.59
29.65391,443.87,467.51
29.67427,445.07,469.42
29.69419,447.10,470.21
29.71509,447.94,467.06
29.73503,446.61,468.66
29.75462,447.54,469.69
29.77523,449.72,471.35
29.79687,448.32,470.67
29.81808,448.90,469.22
29.83760,447.04,471.36
29.85814,445.07,471.19
29.87979,443.75,470.94
29.89992,441.79,470.00
29.91984,442.38,469.21
29.94099,443.01,469.27
29.95965,440.12,470.82
29.97993,439.85,468.30
30.00116,441.08,470.52
30.01977,438.18,468.35
30.03994,438.34,468.81
30.05956,440.36,468.87
30.08082,439.05,467.90
30.10110,437.84,469.12
30.12070,436.88,472.83
30.14064,436.99,473.05
30.16093,437.00,469.71
30.17975,437.14,469.46
30.20091,440.19,468.29
30.22103,438.23,469.86
30.23965,438.11,468.94
30.26094,439.40,469.30
30.28069,438.04,469.99
30.30061,435.22,470.34
30.32016,434.32,468.69
30.34284,434.52,467.30
30.36157,431.89,470.95
30.38299,431.48,471.39
30.40311,432.60,468.97
30.42292,430.80,468.59
30.44474,430.96,470.81
30.46587,429.61,470.47
30.48605,430.40,468.90
30.50687,430.75,465.18
30.52540,431.44,466.15
30.54639,428.04,464.64
30.56589,429.37,462.99
30.58696,429.79,461.49
30.60618,429.83,463.19
30.62726,427.55,459.16
30.64592,427.85,460.00
30.66713,428.76,459.69
30.68606,428.03,462.00
30.70603,427.18,460.26
30.72648,427.91,459.20
30.74616,427.64,456.34
30.76545,427.52,460.50
30.78693,427.08,477.72
30.80687,429.28,505.65
30.82691,429.21,536.55
30.84617,433.21,565.41
30.86614,435.38,586.79
30.88513,439.02,593.51
30.90636,441.22,593.71
30.92706,439.31,586.04
30.94552,439.46,572.20
30.96657,438.87,558.92
30.98587,435.84,542.92
31.00673,435.31,531.16
31.02605,435.28,516.70
31.04583,429.93,503.22
31.06672,430.44,494.68
31.08683,429.62,489.63
31.10636,429.58,482.29
31.12699,428.11,479.65
31.14649,427.03,476.96
31.16540,427.21,471.87
31.18682,429.29,471.41
31.20590,427.66,468.02
31.22658,429.67,467.21
31.24644,427.23,469.83
31.26711,430.06,467.85
31.28593,428.11,468.14
31.30585,427.59,468.02
31.32575,427.89,468.96
31.34672,428.54,470.85
31.36629,430.03,470.93
31.38728,430.99,467.17
31.40597,427.91,466.15
31.42671,428.48,469.00
31.44671,428.68,468.63
31.46571,428.84,469.52
31.48585,430.97,467.86
31.50722,428.41,469.92
31.52664,428.54,469.28
31.54537,429.79,469.28
31.56563,429.07,467.00
31.58607,431.98,461.49
31.60624,429.79,453.94
31.62546,430.70,444.54
31.64701,428.80,424.44
31.66655,426.08,405.12
31.68659,427.54,386.81
31.70586,424.08,374.52
31.72629,424.65,370.26
31.74637,426.20,369.01
31.76665,425.61,371.42
31.78571,426.95,375.82
31.80711,425.96,380.19
31.82573,426.42,388.52
31.84691,428.21,394.03
31.86644,428.37,400.40
31.88707,428.67,408.77
31.90522,429.15,415.77
31.92683,426.62,419.14
31.94729,428.32,425.22
31.96597,431.33,429.06
31.98528,430.00,432.41
32.00661,432.19,435.96
32.02653,432.37,440.82
32.04709,430.95,445.12
32.06672,428.10,446.87
32.08637,432.25,450.46
32.10604,432.31,452.92
32.12682,431.07,453.52
32.14725,431.74,454.15
32.16721,432.12,455.37
32.18566,432.72,457.17
32.20678,431.71,459.64
32.22688,431.59,458.33
32.24602,433.68,461.52
32.26543,432.62,458.35
32.28669,432.88,458.43
32.30587,434.26,457.84
32.32595,432.12,460.11
32.34687,433.38,460.29
32.36572,432.01,460.94
32.38724,435.48,459.74
32.40731,434.68,461.04
32.42739,433.40,463.57
32.44800,436.12,464.58
32.46704,433.63,465.73
32.48821,431.96,467.31
32.50761,434.12,465.33
32.52814,433.49,467.22
32.54669,436.42,467.30
32.56730,436.25,465.27
32.58702,435.44,466.92
32.60657,437.88,467.61
32.62809,437.40,466.01
32.64742,438.19,467.34
32.66706,439.93,465.87
32.68801,436.63,468.11
32.70652,438.39,465.07
32.72697,436.96,465.79
32.74628,438.68,464.98
32.76677,436.61,466.09
32.78628,436.00,465.56
32.80727,438.33,465.08
32.82636,435.23,463.05
32.84776,437.68,465.91
32.86672,439.77,465.52
32.88641,437.08,464.55
32.90726,436.71,466.10
32.92660,437.72,466.81
32.94732,439.72,467.48
32.96729,440.73,464.98
32.98698,440.58,467.64
33.00736,442.97,466.13
33.02742,440.63,466.54
33.04762,440.02,467.58
33.06803,439.41,467.04
33.08674,439.18,465.46
33.10771,439.33,464.09
33.12627,440.31,465.32
33.14794,438.76,463.82
33.16742,440.27,464.34
33.18825,440.57,466.97
33.20693,439.35,466.08
33.22692,437.16,465.48
33.24656,436.06,466.91
33.26786,438.42,467.13
33.28647,439.42,466.23
33.30738,439.50,466.40
33.32635,439.80,464.66
33.34797,439.84,466.50
33.36661,437.24,465.91
33.38739,438.11,466.38
33.40631,436.99,465.45
33.42661,439.83,468.46
33.44797,437.37,467.28
33.46630,437.16,468.83
33.48652,438.07,468.18
33.50682,440.75,465.27
33.52809,440.47,466.65
33.54814,441.15,467.00
33.56656,439.45,467.11
33.58655,441.81,469.11
33.60756,439.52,468.96
33.62715,441.16,468.14
33.64797,439.42,468.95
33.66729,441.81,466.86
33.68768,439.48,467.36
33.70685,441.40,466.36
33.72648,442.49,465.65
33.74803,440.42,467.61
33.76650,442.46,467.05
33.78670,441.15,467.62
33.80627,438.44,468.38
33.82682,439.38,465.53
33.84637,440.21,466.96
33.86808,442.28,469.68
33.88758,442.11,467.30
33.90735,441.39,466.58
33.92779,439.08,465.35
33.94648,437.28,468.42
33.96687,436.74,464.19
33.98631,439.23,464.31
34.00743,438.47,463.40
34.02663,437.73,463.99
34.04650,438.18,465.19
34.06787,437.97,464.89
34.08812,438.46,465.48
34.10698,440.10,466.44
34.12752,438.72,466.06
34.14774,437.87,465.07
34.16808,438.47,465.50
34.18790,440.00,466.20
34.20850,442.28,464.75
34.22821,441.18,462.69
34.24865,441.19,463.97
34.26915,442.42,465.88
34.28836,444.27,465.04
34.30828,443.95,468.12
34.32820,443.13,467.44
34.34759,444.07,465.93
34.36736,443.37,466.18
34.38884,445.32,467.16
34.40770,446.76,466.34
34.42802,444.36,469.29
34.44815,445.97,468.70
34.46737,448.46,467.66
34.48902,446.47,468.16
34.50722,445.28,467.06
34.52734,444.60,468.54
34.54821,445.60,465.13
34.56792,445.10,467.02
34.58802,443.83,464.67
34.60793,446.68,466.49
34.62764,448.88,463.41
34.64803,447.29,463.42
34.66778,447.54,465.39
34.68766,444.27,462.67
34.70815,444.03,462.83
34.72831,446.42,462.56
34.74711,445.24,462.02
34.76864,449.06,463.59
34.78969,447.71,466.13
34.80967,447.79,466.05
34.82979,447.95,464.12
34.85032,445.75,465.61
34.87042,447.93,467.64
34.88980,447.46,464.96
34.90990,444.99,475.14
34.93018,446.72,495.05
34.94983,448.99,518.02
34.97046,448.92,534.16
34.99201,447.38,552.70
35.01045,448.98,562.73
35.03065,447.01,564.54
35.05137,447.96,563.50
35.07002,448.02,558.09
35.09177,450.18,548.44
35.11058,449.89,540.03
35.13128,449.49,531.19
35.15098,446.83,523.04
35.17070,446.06,516.48
35.19184,446.45,507.82
35.21095,444.49,503.21
35.23039,444.59,501.31
35.25097,443.68,495.85
35.27122,444.83,490.04
35.29131,445.26,488.54
35.31091,443.79,487.15
35.33164,446.22,485.55
35.35078,443.16,483.75
35.37082,441.91,482.76
35.39029,445.16,479.83
35.41181,444.44,475.43
35.43171,442.84,476.99
35.45025,440.18,476.31
35.47165,441.02,474.71
35.49131,441.48,472.74
35.51084,443.75,474.57
35.53031,441.80,472.75
35.55014,445.19,472.96
35.57178,442.17,471.83
35.59130,441.17,473.30
35.61036,441.81,474.63
35.63199,441.86,473.98
35.65158,443.29,475.81
35.67123,445.11,474.98
35.69094,441.67,473.22
35.71118,441.16,474.42
35.73083,444.52,471.08
35.75079,443.28,474.12
35.77044,444.12,469.89
35.79128,445.48,470.11
35.81113,442.33,471.95
35.83059,441.85,471.56
35.85094,440.01,470.09
35.87098,442.80,468.71
35.89181,441.69,470.91
35.91122,441.78,469.73
35.93157,439.80,467.27
35.95049,439.35,469.36
35.97215,441.07,469.17
35.99050,442.14,468.65
36.01095,442.93,473.62
36.03119,443.33,474.98
36.05137,444.69,469.94
36.07187,442.06,455.32
36.09125,442.97,435.05
36.11064,441.29,414.53
36.13163,441.88,395.14
36.15096,443.86,383.36
36.17141,442.45,381.95
36.19118,443.87,378.40
36.21209,442.28,380.50
36.23053,439.12,386.40
36.25204,437.60,391.88
36.27110,441.08,395.64
36.29104,440.71,403.58
36.31173,437.18,408.54
36.33140,439.52,415.27
36.35145,438.07,424.93
36.37136,440.56,431.93
36.39104,439.03,438.12
36.41060,438.77,443.25
36.43079,439.53,447.06
36.45111,437.80,449.52
36.47129,440.55,452.57
36.49191,438.88,454.46
36.51191,440.47,455.27
36.53186,438.72,457.57
36.55187,440.59,459.86
36.57194,441.59,462.99
36.59146,437.66,462.23
36.61145,438.72,464.53
36.63023,441.15,465.22
36.65060,438.11,466.23
36.67058,439.21,466.32
36.69217,438.02,467.17
36.71197,438.22,470.19
36.73110,441.17,468.01
36.75145,439.76,468.53
36.77126,440.61,469.15
36.79160,440.20,473.48
36.81044,439.42,471.72
36.83195,438.69,472.36
36.85167,438.11,470.76
36.87098,440.55,470.36
36.89027,438.54,469.46
36.91191,439.92,471.41
36.93183,440.33,469.09
36.95173,437.97,469.23
36.97070,436.75,467.72
36.99124,436.97,468.18
37.01018,439.49,466.60
37.03049,438.76,469.99
37.05093,437.52,466.69
37.07200,439.93,467.18
37.09163,438.56,466.43
37.11098,438.24,465.35
37.13219,437.10,465.74
37.15032,439.60,468.00
37.17022,435.13,469.91
37.19167,437.75,468.40
37.21059,435.82,468.45
37.23202,435.10,470.31
37.25032,437.05,470.38
37.27070,435.72,470.27
37.29196,438.21,471.72
37.31138,438.28,471.56
37.33061,435.77,470.33
37.35056,437.46,471.04
37.37027,438.91,469.45
37.39044,438.96,470.98
37.41195,437.99,470.69
37.43039,438.00,468.37
37.45051,437.58,467.26
37.47097,435.36,468.14
37.49264,438.75,470.50
37.51207,435.61,467.62
37.53205,436.79,468.16
37.55168,433.05,471.20
37.57225,432.72,469.37
37.59130,433.46,470.39
37.61261,433.60,472.43
37.63158,433.73,469.71
37.65194,433.59,470.05
37.67231,433.86,470.79
37.69276,431.70,469.89
37.71281,433.14,469.39
37.73247,436.08,470.61
37.75286,435.18,467.63
37.77248,434.14,470.48
37.79286,433.27,469.43
37.81218,434.79,469.14
37.83220,430.97,467.70
37.85164,433.50,468.44
37.87149,431.51,470.04
37.89265,432.15,468.47
37.91287,431.68,468.90
37.93249,432.12,469.86
37.95314,429.60,469.40
37.97312,429.69,466.49
37.99126,429.69,469.60
38.01149,433.10,468.29
38.03208,433.20,465.62
38.05242,432.77,467.48
38.07162,431.37,466.06
38.09141,432.22,467.17
38.11326,428.91,467.99
38.13234,430.82,467.10
38.15295,432.23,467.30
38.17292,432.80,466.98
38.19291,429.73,467.66
38.21230,430.50,467.22
38.23176,433.06,468.41
38.25284,432.34,467.87
38.27102,429.44,470.77
38.29220,427.95,468.67
38.31178,426.41,469.11
38.33222,426.90,467.89
38.35186,425.09,467.65
38.37316,428.70,467.75
38.39261,427.08,469.38
38.41205,428.01,469.24
38.43259,426.49,467.91
38.45158,426.27,468.09
38.47287,429.62,467.26
38.49222,428.79,468.39
38.51277,429.35,469.46
38.53265,427.12,470.64
38.55150,426.98,470.57
38.57121,428.05,470.45
38.59110,427.52,467.06
38.61293,429.58,470.37
38.63140,428.59,466.74
38.65190,431.40,466.11
38.67186,429.69,470.62
38.69205,428.48,468.62
38.71178,431.03,469.08
38.73157,431.58,468.17
38.75221,431.86,465.30
38.77170,428.77,465.87
38.79223,430.20,465.36
38.81205,428.62,463.57
38.83255,427.16,462.76
38.85187,429.33,465.47
38.87175,427.07,466.23
38.89209,427.31,466.37
38.91177,428.87,465.81
38.93134,430.49,467.97
38.95221,427.99,464.87
38.97111,430.58,466.74
38.99283,430.90,465.16
39.01275,428.80,464.51
39.03284,429.17,467.14
39.05288,426.21,466.81
39.07285,426.49,465.24
39.09480,424.00,466.27
39.11507,422.96,464.79
39.13382,423.83,465.16
39.15396,423.30,464.95
39.17391,425.59,465.54
39.19331,426.35,465.38
39.21304,428.51,465.67
39.23508,429.07,461.93
39.25347,428.94,461.07
39.27337,428.98,462.06
39.29324,427.97,461.69
39.31340,425.95,461.65
39.33353,426.73,460.97
39.35495,425.77,462.61
39.37459,427.11,463.08
39.39312,426.78,461.62
39.41480,425.49,460.32
39.43455,426.40,461.09
39.45406,429.19,461.08
39.47470,429.59,471.00
39.49389,430.70,489.76
39.51368,431.52,511.64
39.53308,432.45,532.72
39.55346,431.88,547.91
39.57381,432.02,553.66
39.59343,431.79,556.89
39.61344,431.99,551.90
39.63496,430.29,547.37
39.65445,431.80,538.92
39.67328,433.36,527.31
39.69490,433.02,519.94
39.71348,430.33,508.80
39.73456,430.59,505.13
39.75413,429.05,498.76
39.77418,431.01,494.06
39.79376,429.10,487.97
39.81355,428.12,486.25
39.83418,426.28,485.26
39.85477,426.24,480.69
39.87446,425.14,477.42
39.89488,424.25,474.21
39.91314,426.16,473.06
39.93413,426.52,472.18
39.95319,424.81,470.22
39.97378,423.17,470.15
39.99350,425.13,467.71
40.01381,425.21,467.67
40.03470,426.40,466.41
40.05436,427.24,468.96
40.07311,427.29,468.67
40.09436,430.47,470.10
40.11492,431.36,467.39
40.13486,431.55,466.42
40.15360,431.33,467.85
40.17443,431.49,466.10
40.19382,428.56,465.87
40.21424,430.10,466.92
40.23398,430.20,469.52
40.25348,429.38,466.61
40.27407,431.68,466.02
40.29343,428.20,464.91
40.31503,427.68,466.34
40.33366,430.65,468.50
40.35472,430.71,464.93
40.37470,428.12,465.14
40.39503,429.30,464.77
40.41310,429.17,464.37
40.43424,428.77,463.17
40.45428,431.61,463.62
40.47419,431.24,460.66
40.49412,428.32,463.73
40.51284,427.97,461.86
40.53323,427.46,463.35
40.55451,429.20,467.01
40.57410,430.22,465.29
40.59328,429.29,467.63
40.61375,430.36,466.99
40.63496,430.75,467.73
40.65328,431.24,466.63
40.67336,430.91,464.52
40.69465,428.96,467.32
40.71329,430.17,465.58
40.73364,431.62,462.62
40.75340,429.68,449.98
40.77330,433.07,434.68
40.79371,430.13,414.57
40.81504,430.71,397.84
40.83494,430.41,386.95
40.85336,428.64,378.57
40.87369,428.63,375.01
40.89331,428.45,378.63
40.91371,425.63,382.27
40.93413,426.35,387.19
40.95357,427.74,393.18
40.97353,427.26,397.58
40.99440,431.57,405.04
41.01414,432.38,410.42
41.03358,431.81,413.84
41.05287,434.13,421.21
41.07431,431.87,425.79
41.09346,432.69,429.89
41.11448,432.83,431.02
41.13485,432.36,435.48
41.15527,434.97,440.76
41.17507,434.19,447.02
41.19568,433.34,450.00
41.21698,437.51,451.55
41.23672,435.54,456.19
41.25747,439.06,457.33
41.27784,440.51,456.31
41.29595,440.46,460.15
41.31747,441.50,459.54
41.33621,441.51,459.76
41.35753,441.51,462.92
41.37731,442.11,463.81
41.39744,441.01,464.11
41.41747,444.69,464.98
41.43765,441.82,465.67
41.45654,442.13,463.78
41.47689,443.00,462.63
41.49735,441.86,464.07
41.51635,442.22,465.46
41.53835,441.97,464.09
41.55934,441.27,465.14
41.57848,442.20,466.80
41.59828,440.47,468.12
41.61825,442.31,466.08
41.63970,441.74,470.49
41.65872,441.31,468.06
41.67935,442.23,467.14
41.69843,443.51,467.69
41.71827,444.64,467.92
41.73952,444.80,468.46
41.75949,443.95,466.72
41.77880,444.77,465.68
41.79930,443.38,465.04
41.81899,441.16,466.16
41.83781,442.32,469.17
41.85833,440.91,466.84
41.87815,444.07,468.41
41.89812,444.96,470.20
41.91899,445.71,469.24
41.93879,444.85,467.51
41.95996,443.94,469.48
41.97998,446.61,468.66
41.99920,443.18,470.78
42.01969,443.85,470.08
42.03981,446.83,467.16
42.06004,446.72,469.30
42.07987,444.59,468.11
42.10017,446.87,467.32
42.12035,445.92,468.27
42.13930,444.21,470.18
42.16085,444.98,467.04
42.17974,445.99,467.81
42.20001,446.56,467.29
42.22052,445.15,468.63
42.23919,446.50,472.55
42.25924,445.91,469.81
42.27993,444.15,471.27
42.29956,446.65,470.82
42.32000,444.64,469.01
42.34052,442.27,468.56
42.36168,444.82,470.65
42.38087,445.64,467.43
42.40164,445.24,468.22
42.42055,444.11,470.72
42.44157,442.35,470.12
42.46162,445.32,468.86
42.48058,443.15,467.69
42.50188,442.72,466.83
42.52128,442.73,468.50
42.54146,444.19,469.68
42.56030,445.70,471.31
42.58099,446.20,479.91
42.60044,446.33,485.55
42.61993,450.57,499.80
42.64037,455.20,514.11
42.66077,456.14,527.07
42.68159,458.30,543.77
42.70035,461.99,556.23
42.72195,462.57,566.94
42.74062,461.33,568.21
42.76131,465.16,566.79
42.78166,462.98,556.32
42.80049,461.78,543.94
42.82114,461.95,522.29
42.84201,462.48,504.80
42.86149,458.63,482.34
42.88200,454.97,463.61
42.90288,452.63,443.40
42.92152,445.32,426.63
42.94229,440.47,407.39
42.96171,438.17,393.30
42.98202,433.52,383.86
43.00130,430.50,382.79
43.02142,431.51,386.14
43.04218,432.55,407.48
43.06194,437.06,438.02
43.08398,441.92,470.94
43.10216,443.46,504.36
43.12216,448.69,528.91
43.14361,453.52,549.19
43.16260,453.61,557.78
43.18205,458.41,568.89
43.20384,460.89,575.28
43.22213,460.57,577.23
43.24366,463.20,576.48
43.26399,463.27,576.58
