Program Time [s],data 0,data 1
5.96559,556.59,598.79
5.98682,554.79,598.52
6.00602,555.91,597.66
6.02618,558.28,597.90
6.04554,559.81,598.57
6.06555,558.92,599.90
6.08575,560.63,601.84
6.10604,559.59,604.56
6.12644,559.98,608.46
6.14620,559.03,609.57
6.16628,556.43,605.96
6.18713,558.94,610.22
6.20530,554.61,607.18
6.22666,560.07,603.26
6.24694,558.02,606.77
6.26570,559.34,606.22
6.28576,562.22,604.52
6.30587,561.13,604.34
6.32668,563.50,603.06
6.34668,561.72,604.96
6.36756,561.25,600.62
6.38693,559.98,597.45
6.40780,559.34,594.96
6.42801,558.89,594.03
6.44755,557.57,594.45
6.46783,557.19,595.13
6.48659,553.27,592.03
6.50802,554.45,595.15
6.52737,555.20,593.68
6.54678,554.05,594.27
6.56665,553.62,594.80
6.58682,552.91,594.08
6.60720,556.09,593.55
6.62712,553.56,593.33
6.64695,554.53,592.67
6.66638,553.26,598.92
6.68690,553.86,617.80
6.70665,556.83,639.00
6.72781,558.78,670.57
6.74747,560.02,688.93
6.76766,560.82,700.94
6.78648,558.97,707.89
6.80659,560.47,700.25
6.82653,556.07,701.19
6.84660,557.97,699.10
6.86623,557.92,688.54
6.88671,555.93,680.14
6.90654,557.04,675.71
6.92759,558.32,669.21
6.94709,556.01,662.89
6.96783,556.12,654.41
6.98761,555.97,649.17
7.00626,554.30,642.89
7.02643,554.59,637.44
7.04779,554.15,634.25
7.06679,554.30,630.39
7.08748,555.18,623.14
7.10807,551.61,622.12
7.12853,551.54,620.44
7.14907,553.13,617.72
7.16972,550.87,614.34
7.18958,550.12,608.55
7.20923,552.02,608.53
7.22976,550.77,600.39
7.25061,552.06,597.12
7.26992,550.05,598.94
7.29057,550.75,595.40
7.31047,551.37,596.09
7.33076,548.86,592.76
7.35069,550.66,598.15
7.37121,550.98,598.90
7.39055,549.46,597.35
7.41051,550.82,596.50
7.43186,550.54,599.21
7.45168,549.84,598.67
7.47155,548.43,594.18
7.49254,548.66,596.89
7.51240,552.03,594.43
7.53257,553.09,594.92
7.55232,550.55,594.98
7.57202,552.80,590.98
7.59199,552.16,593.15
7.61170,551.10,592.43
7.63251,550.80,595.86
7.65208,551.21,589.83
7.67199,550.39,574.05
7.69223,550.57,549.57
7.71214,551.61,516.85
7.73261,548.66,488.95
7.75388,545.23,473.41
7.77303,545.15,467.85
7.79297,545.13,469.36
7.81326,543.31,471.87
7.83429,547.32,477.99
7.85302,543.30,485.33
7.87312,547.16,491.73
7.89330,548.19,500.31
7.91229,549.10,510.60
7.93281,548.82,520.16
7.95502,552.30,527.82
7.97340,551.60,534.17
7.99482,554.63,544.45
8.01381,560.40,552.33
8.03470,557.67,557.75
8.05354,558.64,564.49
8.07341,559.90,568.55
8.09452,556.85,570.34
8.11295,558.62,573.64
8.13442,557.60,577.98
8.15289,557.28,578.24
8.17482,560.52,582.50
8.19489,557.50,584.15
8.21330,558.47,582.87
8.23487,561.20,582.48
8.25459,558.54,585.83
8.27494,558.74,585.28
8.29504,560.77,586.45
8.31419,557.59,591.90
8.33441,559.17,592.65
8.35490,560.41,592.78
8.37310,559.66,589.32
8.39404,559.32,593.87
8.41415,563.15,592.39
8.43423,560.28,595.30
8.45406,561.30,594.01
8.47307,561.95,592.84
8.49319,564.50,591.39
8.51504,562.31,592.96
8.53400,559.02,592.32
8.55391,558.33,591.00
8.57434,559.34,591.58
8.59422,560.37,592.39
8.61323,561.89,593.63
8.63323,561.71,591.15
8.65323,562.95,589.71
8.67432,564.53,592.62
8.69469,563.84,591.59
8.71370,561.49,592.05
8.73499,563.55,594.13
8.75364,560.69,592.96
8.77354,560.88,594.84
8.79350,562.17,592.79
8.81372,561.10,597.73
8.83336,564.00,594.51
8.85326,561.31,595.93
8.87332,563.49,594.18
8.89477,564.58,595.39
8.91333,562.65,594.90
8.93507,563.49,592.30
8.95402,560.57,592.82
8.97442,560.94,594.00
8.99407,559.69,595.53
9.01425,561.30,593.60
9.03483,561.34,596.32
9.05476,564.37,594.74
9.07504,562.73,593.51
9.09404,564.39,595.46
9.11421,563.21,594.44
9.13361,563.54,593.00
9.15470,563.41,594.35
9.17423,563.04,593.36
9.19347,561.92,593.10
9.21319,561.35,593.88
9.23454,559.63,592.71
9.25321,562.79,593.17
9.27353,557.47,594.02
9.29452,556.93,595.61
9.31492,559.05,596.16
9.33613,562.12,597.32
9.35641,561.05,598.80
9.37503,566.84,597.63
9.39613,567.82,598.19
9.41554,567.29,599.88
9.43619,568.87,601.82
9.45683,571.22,600.60
9.47664,570.36,603.91
9.49630,570.39,601.15
9.51627,570.67,604.24
9.53633,570.56,602.67
9.55527,567.75,603.70
9.57630,569.98,602.99
9.59510,571.07,603.64
9.61568,570.43,604.13
9.63618,570.66,600.46
9.65675,568.27,602.53
9.67515,568.70,599.71
9.69588,569.39,601.13
9.71556,572.42,600.25
9.73702,571.98,600.44
9.75668,571.96,601.41
9.77527,570.22,597.66
9.79632,572.08,598.13
9.81663,570.33,595.26
9.83630,568.03,595.17
9.85645,570.32,597.64
9.87541,567.37,598.72
9.89600,566.47,597.66
9.91653,568.73,598.03
9.93543,567.30,597.14
9.95560,568.45,597.56
9.97534,569.79,595.15
9.99634,569.99,594.85
10.01611,569.53,596.88
10.03589,567.62,595.51
10.05689,567.02,597.42
10.07678,567.80,595.25
10.09654,569.74,594.08
10.11671,571.04,596.44
10.13615,572.07,602.75
10.15618,573.95,633.55
10.17576,581.27,668.35
10.19510,584.34,698.50
10.21672,588.07,728.63
10.23685,589.85,742.22
10.25503,587.17,748.09
10.27649,585.79,741.69
10.29649,585.57,729.89
10.31609,585.33,721.40
10.33530,585.28,710.80
10.35557,581.09,695.68
10.37662,581.20,678.27
10.39616,579.80,668.24
10.41709,579.08,656.51
10.43612,578.69,651.43
10.45534,578.10,641.75
10.47542,574.67,637.64
10.49633,576.92,634.94
10.51582,581.80,634.63
10.53599,577.63,627.97
10.55665,578.19,630.09
10.57662,580.35,628.32
10.59638,576.01,626.30
10.61764,575.69,619.89
10.63807,576.51,614.59
10.65637,572.87,615.39
10.67790,572.54,617.89
10.69787,575.04,615.95
10.71759,575.52,609.20
10.73805,576.71,608.80
10.75610,573.71,607.00
10.77785,573.45,606.95
10.79669,575.07,603.95
10.81637,572.78,606.57
10.83636,572.93,608.27
10.85664,574.72,604.39
10.87798,576.63,605.85
10.89651,574.43,604.56
10.91733,574.65,605.12
10.93669,574.89,603.90
10.95803,573.24,602.26
10.97685,571.74,603.90
10.99749,573.54,606.39
11.01680,574.25,604.42
11.03714,573.58,602.97
11.05620,573.43,598.45
11.07601,575.00,599.02
11.09721,573.13,599.82
11.11679,573.75,599.65
11.13591,571.73,602.08
11.15790,574.87,605.95
11.17722,574.80,620.55
11.19752,578.14,644.79
11.21733,585.04,673.36
11.23800,585.77,686.65
11.25754,587.23,686.85
11.27621,588.58,660.70
11.29675,583.62,619.93
11.31783,576.29,568.96
11.33664,574.57,524.48
11.35763,569.12,489.29
11.37602,569.23,465.60
11.39784,564.50,452.47
11.41591,564.05,447.37
11.43663,562.86,444.85
11.45805,562.92,448.07
11.47747,562.41,459.37
11.49707,563.04,469.97
11.51675,563.08,474.99
11.53743,564.20,489.55
11.55776,566.93,500.19
11.57793,564.31,510.97
11.59672,565.45,517.32
11.61696,568.25,527.37
11.63793,569.20,539.76
11.65742,569.49,544.13
11.67800,570.43,551.63
11.69673,571.36,556.16
11.71777,572.92,563.44
11.73713,572.92,570.50
11.75740,572.69,576.40
11.77694,574.65,580.35
11.79791,575.77,582.67
11.81750,579.75,585.64
11.83777,577.26,587.71
11.85754,574.95,589.11
11.87699,575.26,590.41
11.89677,573.83,592.48
11.91729,574.56,593.82
11.93598,576.26,592.97
11.95682,574.71,592.91
11.97704,573.53,596.26
11.99683,575.41,594.86
12.01747,576.86,597.77
12.03818,574.33,596.78
12.05654,573.40,598.09
12.07781,574.26,597.36
12.09751,573.69,600.37
12.11795,574.84,603.29
12.13808,575.45,600.97
12.15880,573.17,599.88
12.17713,574.69,602.22
12.19722,572.21,598.15
12.21910,572.22,599.86
12.23889,573.27,602.68
12.25896,571.76,603.25
12.27782,571.48,602.37
12.29772,571.71,603.31
12.31765,572.49,602.53
12.33784,573.06,602.23
12.35830,571.83,600.98
12.37827,574.68,600.81
12.39823,573.59,600.32
12.41848,572.08,604.45
12.43867,573.74,603.21
12.45771,572.11,600.49
12.47725,573.65,599.77
12.49770,574.98,598.88
12.51801,575.26,601.59
12.53770,578.16,600.63
12.55783,577.49,599.34
12.57756,574.41,599.69
12.59752,575.26,598.92
12.61732,574.67,598.51
12.63832,573.82,600.79
12.65741,573.54,600.14
12.67780,576.86,600.33
12.69879,573.65,603.96
12.71712,575.01,600.47
12.73867,575.73,600.70
12.75843,574.67,602.79
12.77813,575.99,602.94
12.79857,573.81,601.00
12.81816,572.86,601.88
12.83848,573.13,598.96
12.85814,574.32,599.87
12.87836,572.10,602.68
12.89752,574.40,600.83
12.91688,574.67,601.24
12.93863,574.00,598.20
12.95839,575.81,598.89
12.97764,572.75,601.58
12.99694,577.88,601.37
13.01789,574.73,600.15
13.03788,575.79,599.20
13.05820,574.70,598.19
13.07723,574.95,603.32
13.09707,571.87,603.50
13.11735,575.26,602.55
13.13741,574.33,605.76
13.15803,574.42,603.16
13.17747,573.58,601.61
13.19769,576.08,602.78
13.21727,574.62,603.28
13.23746,573.11,604.46
13.25813,572.51,604.29
13.27801,574.86,599.94
13.29899,575.35,601.27
13.31700,571.96,604.15
13.33818,574.21,603.52
13.35756,572.66,601.86
13.37822,573.37,604.27
13.39768,574.93,600.20
13.41747,576.82,601.31
13.43722,573.27,599.09
13.45894,574.84,603.64
13.47822,573.55,599.16
13.49782,571.58,600.75
13.51867,573.35,602.72
13.53905,574.42,602.75
13.55841,576.85,604.76
13.57710,574.69,600.49
13.59886,574.77,601.28
13.61864,576.97,601.50
13.63894,575.45,600.11
13.65866,578.90,600.68
13.67848,578.93,602.36
13.69731,577.90,604.36
13.71857,574.75,603.56
13.73774,573.47,602.64
13.75782,575.00,602.00
13.77886,576.14,600.50
13.79863,576.14,602.59
13.81814,575.99,604.62
13.83853,575.33,602.42
13.85812,573.04,604.70
13.87852,573.33,601.25
13.89719,576.75,603.42
13.91793,575.82,601.49
13.93829,579.43,600.56
13.95779,577.21,601.24
13.97713,580.35,603.01
13.99846,578.45,603.00
14.01806,580.03,602.59
14.03788,579.04,601.77
14.05731,579.62,600.56
14.07735,575.25,598.35
14.09751,574.95,595.30
14.11712,574.61,598.61
14.13844,575.43,605.59
14.15714,575.13,624.32
14.17836,577.30,649.29
14.19802,580.39,681.54
14.21788,580.23,708.90
14.23843,583.97,727.67
14.25756,586.33,734.84
14.27696,583.15,732.25
14.29874,584.37,729.42
14.31798,586.08,713.26
14.33715,587.28,702.55
14.35793,586.26,690.57
14.37700,583.08,677.56
14.39699,583.12,663.51
14.41763,584.12,652.68
14.43830,580.19,640.77
14.45885,582.08,635.46
14.47877,579.65,630.63
14.49834,581.00,621.75
14.51858,576.87,620.13
14.53723,575.32,620.44
14.55883,575.76,614.73
14.57701,573.13,612.04
14.59851,576.79,610.67
14.61714,573.55,611.72
14.63737,574.23,609.73
14.65872,573.57,608.94
14.67821,574.59,609.26
14.69737,573.61,608.22
14.71861,573.51,605.94
14.73810,572.41,609.80
14.75843,571.39,606.64
14.77810,572.27,609.45
14.79707,570.00,606.05
14.81816,571.57,606.41
14.83775,572.12,604.82
14.85861,570.04,601.87
14.87779,571.17,602.19
14.89881,572.72,603.72
14.91883,571.75,599.82
14.93853,572.44,601.75
14.95871,572.89,604.24
14.97787,571.02,602.71
14.99736,574.59,606.23
15.01821,571.12,603.06
15.03822,573.13,604.00
15.05875,570.10,605.08
15.07823,571.01,602.81
15.09696,570.90,605.20
15.11833,573.69,602.57
15.13741,573.78,603.33
15.15722,572.58,603.42
15.17832,574.85,602.52
15.19707,571.61,582.66
15.21850,567.74,554.79
15.23773,565.78,525.30
15.25710,561.63,505.59
15.27821,560.99,494.43
15.29717,559.48,489.86
15.31740,557.11,490.01
15.33750,559.48,493.64
15.35782,560.83,500.98
15.37863,562.11,506.49
15.39893,561.27,516.74
15.41747,562.11,526.32
15.43726,562.32,533.30
15.45794,566.47,540.23
15.47785,569.22,548.27
15.49828,568.93,554.01
15.51804,567.47,560.14
15.53760,568.05,565.16
15.55795,568.91,568.84
15.57799,573.03,573.58
15.59836,574.34,580.38
15.61771,571.94,585.36
15.63707,572.87,585.08
15.65833,572.32,587.87
15.67734,572.08,594.66
15.69704,572.60,598.81
15.71765,573.45,598.34
15.73705,574.53,597.83
15.75715,572.65,600.51
15.77771,573.55,601.44
15.79913,574.33,603.87
15.81919,573.16,603.19
15.83857,571.49,603.00
15.85944,573.11,602.92
15.87950,569.26,604.19
15.89808,571.86,605.26
15.91957,567.67,599.21
15.93900,568.34,600.23
15.95919,568.22,600.41
15.97809,565.60,598.42
15.99931,567.49,600.71
16.01966,569.03,602.93
16.03976,567.33,601.44
16.05855,569.19,601.20
16.07844,569.41,600.70
16.09979,569.30,601.70
16.11987,568.70,601.65
16.13942,567.98,598.62
16.15846,566.99,599.83
16.17838,567.60,600.46
16.19953,567.77,599.25
16.21808,567.84,600.57
16.23970,571.85,599.06
16.25888,570.64,599.63
16.27936,571.04,600.84
16.29926,569.98,601.39
16.31831,569.34,600.35
16.33929,566.54,601.39
16.35963,566.88,599.11
16.37981,570.03,600.45
16.39857,567.77,600.70
16.41874,569.02,601.18
16.43879,568.36,600.77
16.45967,567.99,597.80
16.47896,568.20,598.42
16.49831,565.21,597.33
16.51861,567.66,600.05
16.53956,567.00,598.24
16.55915,564.13,598.67
16.57848,563.32,601.63
16.59778,564.21,603.51
16.61918,563.74,603.26
16.63911,567.14,604.00
16.65921,569.89,605.38
16.67974,569.73,604.05
16.69934,567.74,601.42
16.72094,566.36,604.10
16.74079,566.19,604.04
16.75981,566.49,600.13
16.78067,567.34,598.06
16.79959,566.20,597.89
16.81970,564.77,596.52
16.84068,566.16,599.60
16.86014,562.15,597.32
16.87965,562.07,597.78
16.90048,562.61,597.08
16.92055,562.10,596.80
16.94040,561.85,598.54
16.95925,563.93,599.06
16.97989,562.92,596.66
16.99890,564.41,596.71
17.02004,562.87,597.80
17.03899,565.24,594.90
17.05972,564.42,598.43
17.07919,563.31,597.16
17.09967,562.78,597.90
17.11936,564.02,597.41
17.13937,562.80,600.97
17.16005,565.45,600.57
17.18058,564.84,601.69
17.20011,564.74,603.03
17.22028,563.61,601.11
17.23991,562.61,601.40
17.26060,560.92,599.31
17.27889,563.17,600.28
17.29967,561.38,600.80
17.32068,560.20,601.30
17.33942,560.38,597.53
17.36050,561.19,601.29
17.37975,560.28,600.68
17.40018,560.50,598.74
17.42062,559.18,598.68
17.44051,561.61,601.03
17.46096,559.53,601.04
17.48017,560.13,599.63
17.50066,558.28,599.23
17.51883,558.41,597.66
17.53955,559.60,598.66
17.56052,558.58,600.12
17.58036,561.41,601.46
17.59976,561.41,601.91
17.62094,560.55,603.58
17.64055,562.11,599.71
17.66001,561.71,602.47
17.68057,557.14,598.89
17.70094,557.98,597.78
17.71916,560.22,596.57
17.73943,560.73,596.82
17.75996,560.06,601.46
17.77977,558.94,601.04
17.79947,557.30,599.01
17.81958,556.55,601.45
17.84064,558.79,601.72
17.86006,558.72,599.58
17.88027,556.65,602.69
17.90029,558.68,602.78
17.92027,558.11,601.95
17.94062,554.78,601.56
17.96072,556.46,601.10
17.97964,555.99,600.95
18.00064,559.50,601.30
18.02078,559.63,599.42
18.03945,559.31,598.20
18.05913,558.97,597.02
18.07930,556.77,597.44
18.09932,557.28,599.70
18.11979,559.40,599.12
18.14075,558.16,599.73
18.16031,559.63,601.45
18.18081,560.68,599.72
18.19936,560.32,599.22
18.22024,558.87,599.70
18.23971,556.99,601.03
18.25944,559.66,597.95
18.28036,557.57,597.18
18.29932,558.98,599.69
18.31964,555.21,600.85
18.34090,555.98,598.54
18.35994,556.41,597.16
18.38068,558.20,599.03
18.39957,555.92,597.61
18.41954,554.11,596.87
18.43995,555.75,595.49
18.45910,555.40,598.68
18.48004,553.00,597.50
18.50072,553.54,597.37
18.51963,554.29,596.84
18.53965,558.39,595.87
18.56038,555.32,595.61
18.57924,556.68,596.51
18.59973,556.71,595.22
18.62040,556.29,595.66
18.64058,556.82,596.28
18.66011,559.93,595.23
18.67966,558.62,594.81
18.70065,557.75,597.24
18.71913,556.21,597.54
18.73891,558.45,594.45
18.76088,558.14,595.96
18.78012,558.60,593.54
18.80030,557.06,594.43
18.81936,556.92,593.63
18.83939,558.04,593.19
18.85953,557.30,591.76
18.87984,559.60,586.97
18.90028,558.38,586.26
18.91920,557.70,584.03
18.93950,555.59,580.76
18.96037,558.40,583.85
18.97927,556.37,580.99
18.99966,557.81,581.61
19.01982,559.30,590.24
19.04133,560.10,613.59
19.06260,562.62,641.81
19.08255,565.36,674.44
19.10229,567.65,686.16
19.12146,568.49,693.54
19.14227,568.63,697.97
19.16115,567.88,697.48
19.18283,563.25,688.00
19.20166,562.63,681.09
19.22152,561.26,670.68
19.24157,557.91,662.32
19.26268,554.92,651.56
19.28098,553.57,646.82
19.30164,554.96,639.12
19.32284,553.68,628.36
19.34235,552.88,626.11
19.36256,553.34,620.69
19.38350,551.37,616.37
19.40349,552.40,612.50
19.42259,550.52,609.41
19.44203,549.46,608.40
19.46323,550.27,605.41
19.48330,550.45,607.31
19.50354,547.99,601.56
19.52193,547.40,605.10
19.54324,550.94,600.05
19.56165,549.20,599.76
19.58319,546.96,600.74
19.60217,546.90,601.69
19.62245,546.69,601.32
19.64367,546.64,598.00
19.66387,546.54,600.98
19.68380,546.54,599.56
19.70243,548.37,597.85
19.72314,547.57,602.71
19.74372,550.62,600.61
19.76239,550.33,598.91
19.78312,551.37,597.76
19.80290,549.81,594.68
19.82201,547.43,594.21
19.84269,550.42,595.08
19.86182,548.07,592.27
19.88390,548.50,596.58
19.90362,548.35,595.92
19.92292,550.60,590.54
19.94390,550.37,593.91
19.96308,548.91,595.79
19.98309,549.29,596.53
20.00234,551.18,599.55
20.02285,550.16,598.46
20.04226,551.11,601.76
20.06298,550.41,598.09
20.08230,551.66,594.32
20.10196,549.38,571.06
20.12365,543.47,548.71
20.14325,540.05,528.05
20.16330,537.13,511.13
20.18376,534.98,499.33
20.20268,536.71,499.95
20.22365,535.41,497.71
20.24334,534.99,502.55
20.26312,539.35,504.33
20.28192,538.53,510.20
20.30273,538.63,517.87
20.32371,536.56,523.38
20.34276,539.34,532.76
20.36251,539.01,537.85
20.38215,539.26,543.06
20.40229,544.39,547.25
20.42183,543.26,551.62
20.44351,543.90,561.33
20.46361,546.90,564.61
20.48199,545.51,568.93
20.50286,549.10,569.32
20.52253,549.96,575.39
20.54200,547.27,577.07
20.56258,546.71,579.27
20.58188,549.33,580.77
20.60294,547.95,583.56
20.62190,547.79,581.38
20.64232,548.86,582.74
20.66194,548.93,583.64
20.68377,548.89,587.54
20.70345,548.52,584.00
20.72281,548.61,585.99
20.74373,550.40,590.60
20.76380,551.16,587.46
20.78248,548.60,588.93
20.80387,549.82,591.33
20.82304,550.95,589.36
20.84295,552.15,589.71
20.86355,549.22,590.19
20.88278,550.60,589.57
20.90271,550.82,592.93
20.92329,548.36,591.79
20.94274,551.46,590.99
20.96233,550.02,590.97
20.98216,552.36,590.45
21.00359,551.31,588.99
21.02305,549.41,593.73
21.04255,550.98,591.39
21.06202,549.17,594.57
21.08222,549.70,593.00
21.10235,549.97,589.84
21.12280,552.56,593.50
21.14337,550.21,593.66
21.16333,547.65,592.36
21.18290,548.23,593.92
21.20481,552.42,592.49
21.22314,552.16,594.07
21.24282,549.01,592.63
21.26467,552.79,594.36
21.28514,554.10,593.98
21.30371,554.59,596.34
21.32425,555.61,594.19
21.34491,552.77,592.99
21.36553,554.22,591.71
21.38669,557.40,595.87
21.40634,556.87,594.22
21.42485,558.57,593.30
21.44489,561.48,593.31
21.46566,562.97,593.51
21.48672,561.44,594.89
21.50654,562.61,595.68
21.52557,563.39,596.85
21.54599,562.18,595.19
21.56712,561.62,595.99
21.58733,562.73,592.78
21.60590,565.06,595.80
21.62868,562.88,597.09
21.64850,566.97,597.72
21.66702,567.00,595.57
21.68704,566.36,597.29
21.70852,565.45,598.80
21.72733,568.99,596.81
21.74763,569.88,598.75
21.76807,568.89,597.68
21.78839,570.05,598.23
21.80757,570.24,599.15
21.82838,569.23,597.36
21.84861,567.53,600.13
21.86803,568.28,600.67
21.88843,569.14,600.68
21.90880,568.86,597.15
21.92764,569.63,599.50
21.94722,569.29,599.54
21.96845,572.16,597.71
21.98725,573.15,596.86
22.00862,572.01,600.94
22.02750,569.32,600.67
22.04895,571.57,598.65
22.06713,568.74,599.76
22.08782,571.52,596.76
22.10753,569.53,601.11
22.12707,571.89,599.89
22.14924,573.39,603.38
22.16872,575.59,601.89
22.18919,575.45,600.37
22.20956,576.34,600.18
22.22948,577.00,603.82
22.24843,574.38,603.45
22.26954,574.67,600.94
22.28955,571.94,604.00
22.30911,570.50,600.51
22.32828,570.40,600.91
22.34781,571.41,602.46
22.36868,567.53,601.91
22.38964,569.15,603.96
22.40872,569.21,600.67
22.42798,570.61,601.92
22.44877,567.87,598.60
22.46907,567.61,600.88
22.48794,570.19,597.70
22.50837,569.44,600.99
22.52938,570.97,600.93
22.54924,570.25,602.25
22.56921,571.94,603.08
22.58780,569.61,601.77
22.60973,569.43,601.48
22.62863,569.68,599.75
22.64977,572.57,600.20
22.66926,573.13,601.94
22.68986,573.96,601.08
22.70885,571.32,601.28
22.72769,571.42,598.78
22.74836,570.16,600.79
22.76940,570.91,601.33
22.78917,572.59,602.41
22.80858,573.19,600.54
22.82890,572.11,598.31
22.84823,570.88,598.17
22.86815,572.85,599.97
22.88876,572.07,597.44
22.90832,571.87,596.63
22.92854,571.87,597.79
22.94949,570.26,598.76
22.96774,570.81,597.23
22.98955,570.19,598.71
23.00854,568.82,596.89
23.02941,570.40,596.95
23.04876,571.19,599.19
23.06783,572.03,599.76
23.08809,572.96,597.56
23.10947,573.30,599.15
23.12829,570.68,599.68
23.14918,571.62,598.42
23.16823,572.99,597.75
23.18958,574.67,601.77
23.20865,574.32,612.79
23.22783,575.83,630.78
23.24790,576.67,649.37
23.26872,577.60,662.79
23.28978,579.09,670.99
23.30794,578.67,680.22
23.32831,581.54,690.37
23.34922,581.21,684.90
23.36788,583.21,686.60
23.38946,583.71,678.86
23.40923,586.64,678.75
23.42891,584.65,679.31
23.44895,585.55,676.99
23.46788,588.49,675.56
23.48799,586.28,670.77
23.50836,587.40,666.39
23.52752,587.20,663.01
23.54821,589.19,656.97
23.56877,588.45,655.43
23.58856,587.76,649.34
23.60807,586.65,649.97
23.63006,585.42,645.35
23.64926,583.64,644.78
23.66928,585.29,637.86
23.68946,584.67,635.81
23.70925,580.73,632.60
23.72901,581.03,633.22
23.74923,578.53,629.08
23.76951,578.28,628.09
23.78915,576.48,621.09
23.81016,579.23,619.72
23.83059,579.49,617.04
23.84864,575.89,611.48
23.87036,578.59,611.90
23.88960,574.67,613.52
23.91156,574.56,614.33
23.93133,574.02,615.81
23.95105,573.48,612.43
23.97062,574.42,615.92
23.99128,572.19,614.77
24.01116,573.93,609.75
24.02961,572.88,612.50
24.05079,575.40,608.70
24.06996,573.11,608.94
24.09138,573.49,610.51
24.11154,574.40,611.25
24.13139,576.19,609.59
24.15240,575.92,604.94
24.17277,576.57,603.47
24.19084,577.79,604.54
24.21209,574.90,593.82
24.23248,572.04,578.37
24.25218,568.85,560.25
24.27140,565.43,541.58
24.29085,562.15,525.30
24.31169,560.42,508.82
24.33213,555.31,495.90
24.35263,553.86,485.03
24.37228,552.35,479.21
24.39135,554.56,477.16
24.41246,551.84,476.46
24.43148,556.08,483.83
24.45075,554.42,489.24
24.47220,558.01,494.33
24.49138,555.53,504.91
24.51104,558.26,512.02
24.53222,558.39,517.84
24.55159,562.05,525.67
24.57235,561.30,532.83
24.59152,564.69,537.43
24.61199,563.24,544.58
24.63167,565.44,549.71
24.65178,565.22,554.64
24.67098,566.07,557.90
24.69234,567.67,566.40
24.71170,569.06,570.49
24.73091,567.25,574.58
24.75103,568.65,578.84
24.77091,569.31,587.04
24.79257,569.88,587.04
24.81178,571.48,595.25
24.83229,576.98,599.39
24.85089,580.11,602.60
24.87265,579.69,604.76
24.89219,583.46,604.25
24.91181,585.79,603.52
24.93094,585.50,602.78
24.95243,582.71,604.83
24.97197,581.38,604.16
24.99249,579.63,605.56
25.01065,580.14,600.89
25.03218,575.93,601.61
25.05250,578.57,602.02
25.07114,577.98,598.58
25.09196,576.49,598.77
25.11183,575.26,595.66
25.13263,575.91,598.40
25.15190,576.02,596.38
25.17106,574.26,597.81
25.19256,575.00,597.48
25.21172,575.99,599.74
25.23234,576.36,597.63
25.25263,574.35,599.76
25.27200,575.45,602.05
25.29198,571.69,602.74
25.31265,572.31,598.69
25.33169,572.19,601.41
25.35250,570.87,601.77
25.37123,568.57,600.05
25.39243,569.47,598.72
25.41187,568.75,597.36
25.43074,568.96,596.13
25.45074,568.34,597.29
25.47264,567.77,595.59
25.49113,571.86,596.06
25.51142,571.19,595.02
25.53198,572.84,595.78
25.55156,572.69,599.27
25.57219,571.98,596.33
25.59178,568.34,598.99
25.61197,570.35,595.10
25.63212,572.61,599.30
25.65158,573.70,595.60
25.67234,574.37,594.66
25.69201,570.80,597.71
25.71215,573.39,597.72
25.73108,571.49,600.53
25.75141,570.62,601.08
25.77066,572.32,600.34
25.79251,571.72,602.47
25.81180,570.31,603.99
25.83159,569.18,601.45
25.85235,569.05,601.08
25.87211,570.72,599.91
25.89154,571.04,599.28
25.91081,572.42,600.83
25.93168,572.72,599.72
25.95082,572.51,602.01
25.97162,572.57,599.98
25.99146,571.69,600.06
26.01084,571.19,599.29
26.03072,568.69,598.03
26.05120,569.98,596.66
26.07169,572.58,596.36
26.09206,573.29,594.54
26.11075,572.89,594.71
26.13161,572.51,595.41
26.15205,567.62,597.26
26.17085,568.67,598.27
26.19061,567.79,600.73
26.21194,566.80,599.15
26.23105,566.45,600.91
26.25266,567.22,596.98
26.27222,567.52,597.39
26.29131,570.01,601.49
26.31206,568.58,600.21
26.33265,568.50,598.58
26.35189,568.96,598.30
26.37156,571.17,599.68
26.39114,568.01,598.55
26.41148,565.71,599.01
26.43246,565.87,599.14
26.45240,569.55,598.19
26.47235,566.26,600.53
26.49314,567.09,598.52
26.51243,564.70,599.72
26.53231,564.01,601.58
26.55195,564.52,601.00
26.57289,564.87,601.63
26.59373,566.58,598.77
26.61239,564.92,601.63
26.63225,568.31,599.90
26.65315,569.27,602.40
26.67362,568.15,602.60
26.69214,567.51,600.96
26.71151,568.79,600.50
26.73174,565.62,601.96
26.75193,564.93,600.79
26.77340,565.04,600.60
26.79338,569.70,601.27
26.81347,569.53,602.54
26.83272,567.57,601.59
26.85334,567.27,600.72
26.87323,566.83,600.11
26.89306,568.31,601.38
26.91249,567.49,601.12
26.93344,564.96,601.29
26.95252,565.42,599.05
26.97236,563.75,597.84
26.99237,565.85,600.60
27.01205,565.91,598.36
27.03221,564.84,599.45
27.05253,564.39,600.24
27.07200,563.03,599.92
27.09235,563.88,602.38
27.11366,565.65,599.30
27.13322,562.10,596.57
27.15263,564.09,598.26
27.17287,561.94,592.88
27.19255,562.15,595.29
27.21207,563.92,621.59
27.23242,562.66,657.01
27.25321,565.23,692.10
27.27239,568.18,717.60
27.29176,569.17,729.82
27.31194,569.40,735.88
27.33359,569.68,735.32
27.35331,569.67,726.98
27.37211,570.81,720.71
27.39345,569.21,710.89
27.41159,569.98,699.32
27.43303,568.23,694.14
27.45198,571.83,683.20
27.47327,572.58,672.82
27.49206,572.63,668.67
27.51214,577.80,660.44
27.53186,576.11,656.15
27.55160,576.99,647.87
27.57309,573.50,645.75
27.59185,573.14,636.64
27.61345,573.13,633.53
27.63293,574.68,628.61
27.65310,570.89,626.44
27.67369,567.50,622.74
27.69349,570.69,617.02
27.71357,568.19,618.09
27.73282,563.99,612.72
27.75214,566.61,613.13
27.77205,563.35,612.38
27.79212,563.21,611.37
27.81225,566.31,610.80
27.83265,563.15,610.28
27.85257,564.28,610.69
27.87366,564.47,607.42
27.89209,562.45,607.48
27.91235,561.24,604.93
27.93164,563.88,605.75
27.95323,560.81,603.56
27.97235,562.17,599.66
27.99313,562.15,598.87
28.01285,561.02,602.68
28.03296,562.62,597.88
28.05352,563.01,597.55
28.07364,562.66,597.87
28.09290,562.25,598.88
28.11175,562.59,599.25
28.13213,562.50,597.82
28.15200,561.61,598.74
28.17244,561.90,598.63
28.19342,558.33,599.58
28.21279,557.86,601.55
28.23223,557.85,609.57
28.25257,560.23,620.77
28.27315,560.14,622.32
28.29322,560.19,609.08
28.31184,557.43,573.52
28.33311,555.25,531.12
28.35209,548.43,496.10
28.37344,545.59,470.10
28.39347,545.89,457.18
28.41429,545.97,454.22
28.43382,546.38,453.98
28.45399,544.99,460.54
28.47412,546.10,470.16
28.49449,546.86,480.91
28.51392,545.79,491.26
28.53418,546.15,501.42
28.55448,549.76,512.17
28.57296,550.09,521.41
28.59495,550.48,532.44
28.61509,550.21,538.49
28.63468,544.35,549.09
28.65555,533.34,561.52
28.67496,528.47,566.52
28.69430,526.20,573.32
28.71454,526.86,576.28
28.73521,524.80,579.21
28.75435,528.52,584.23
28.77432,526.70,582.20
28.79396,525.42,582.98
28.81443,528.50,585.53
28.83432,531.67,586.74
28.85410,534.48,589.70
28.87361,532.84,585.57
28.89528,537.75,588.41
28.91566,540.49,589.07
28.93540,539.53,589.23
28.95399,543.76,589.34
28.97445,544.28,592.54
28.99420,545.96,592.08
29.01490,545.74,595.84
29.03371,545.42,594.96
29.05382,545.81,595.10
29.07510,548.73,594.86
29.09418,546.36,596.88
29.11450,547.55,595.76
29.13423,549.18,594.24
29.15566,549.08,594.25
29.17382,552.03,596.17
29.19382,548.88,592.56
29.21385,549.10,597.57
29.23513,551.07,595.05
29.25348,551.52,597.14
29.27454,549.52,594.68
29.29472,549.16,597.49
29.31542,551.28,597.71
29.33395,548.82,599.90
29.35473,557.81,596.80
29.37473,564.63,597.74
29.39422,572.45,595.89
29.41384,577.26,594.92
29.43563,577.61,591.54
29.45393,575.78,593.29
29.47432,576.95,591.64
29.49540,573.11,592.32
29.51413,572.63,591.85
29.53443,570.06,593.64
29.55479,568.23,593.32
29.57510,567.47,591.49
29.59525,566.87,589.49
29.61416,564.96,589.94
29.63425,562.31,590.52
29.65439,561.94,592.83
29.67523,558.65,592.23
29.69466,555.21,591.20
29.71466,553.22,592.83
29.73481,553.41,593.54
29.75385,551.76,596.18
29.77371,555.15,595.87
29.79405,554.24,598.78
29.81515,552.26,596.74
29.83557,552.39,594.40
29.85437,551.50,595.84
29.87467,553.86,596.06
29.89367,552.98,591.76
29.91417,552.34,596.01
29.93442,554.61,595.52
29.95395,552.68,595.23
29.97452,555.82,594.48
29.99491,555.94,592.50
30.01386,552.95,591.73
30.03457,551.59,594.91
30.05416,553.16,591.98
30.07491,550.71,593.23
30.09389,553.42,595.88
30.11560,552.99,593.46
30.13449,552.48,593.58
30.15427,551.21,595.62
30.17510,551.14,596.47
30.19510,550.53,597.49
30.21406,548.16,595.90
30.23526,551.50,594.03
30.25464,547.39,594.82
30.27512,548.70,594.35
30.29430,547.53,593.91
30.31556,549.12,592.46
30.33532,550.10,592.03
30.35454,547.92,592.16
30.37440,550.25,594.93
30.39515,551.38,594.36
30.41399,549.98,592.32
30.43338,549.97,595.11
30.45444,551.04,595.05
30.47509,549.06,595.70
30.49359,551.15,597.87
30.51514,551.60,598.06
30.53531,551.55,595.98
30.55451,551.66,594.46
30.57518,551.89,593.44
30.59444,551.86,594.03
30.61523,553.10,595.81
30.63511,551.12,592.35
30.65398,548.77,594.56
30.67449,551.18,594.60
30.69423,552.12,592.42
30.71453,552.63,594.03
30.73487,552.79,594.10
30.75454,552.95,594.96
30.77386,550.20,596.37
30.79405,550.38,593.10
30.81440,552.12,595.83
30.83370,549.50,595.57
30.85540,550.69,594.72
30.87453,547.57,594.02
30.89389,548.35,595.49
30.91516,547.71,594.21
30.93510,547.91,593.36
30.95459,546.06,594.67
30.97493,547.85,593.55
30.99378,547.99,592.81
31.01528,548.12,593.64
31.03425,548.76,592.75
31.05421,547.60,595.59
31.07498,547.87,592.06
31.09496,548.36,595.12
31.11479,549.18,593.28
31.13414,549.10,595.09
31.15456,549.10,594.82
31.17499,547.58,592.36
31.19519,549.23,590.76
31.21453,547.20,592.49
31.23501,546.38,589.43
31.25484,549.52,592.03
31.27371,548.56,591.55
31.29449,550.30,590.51
31.31539,549.78,592.40
31.33466,548.58,587.33
31.35430,551.19,584.62
31.37389,549.48,593.81
31.39427,552.83,607.53
31.41375,552.71,630.22
31.43459,550.63,652.48
31.45496,551.35,680.83
31.47457,549.96,703.81
31.49424,551.34,718.90
31.51498,551.71,725.22
31.53447,551.79,732.99
31.55430,551.75,725.58
31.57468,553.59,720.61
31.59535,554.41,712.69
31.61486,555.97,698.39
31.63381,557.32,690.00
31.65432,561.09,678.61
31.67452,562.99,663.56
31.69340,561.83,653.70
31.71460,562.94,646.01
31.73519,561.98,635.03
31.75469,561.34,626.76
31.77534,561.93,621.15
31.79705,563.05,618.29
31.81707,561.35,616.98
31.83653,558.11,613.00
31.85763,561.19,610.59
31.87816,562.11,611.84
31.89906,563.98,608.26
31.92044,562.29,604.73
31.93916,562.56,601.68
31.95877,565.74,600.64
31.97930,568.04,600.02
31.99939,567.27,601.06
32.01989,565.46,601.81
32.03909,568.41,601.81
32.06006,569.18,597.99
32.07876,568.45,600.92
32.10059,568.54,598.82
32.12013,567.48,599.02
32.13862,570.54,598.33
32.16022,569.98,598.36
32.17868,568.72,597.46
32.20092,571.84,600.85
32.22148,569.43,598.84
32.24028,570.13,597.26
32.25946,569.36,597.57
32.28023,571.73,598.57
32.30123,570.29,599.61
32.32092,568.86,598.15
32.33976,569.55,599.83
32.36011,570.64,598.06
32.38006,570.98,599.48
32.39978,571.96,601.14
32.42091,572.90,602.32
32.44119,572.58,597.11
32.46005,569.16,587.93
32.48122,565.49,562.43
32.49972,564.10,532.90
32.52020,561.29,501.90
32.54074,559.66,479.61
32.56028,556.58,465.96
32.58228,556.63,465.27
32.60117,556.04,465.08
32.62066,558.78,471.62
32.64226,559.43,478.84
32.66211,560.53,486.73
32.68166,564.06,495.18
32.70227,566.16,503.62
32.72095,564.35,516.29
32.74077,566.85,524.86
32.76063,567.22,529.82
32.78071,568.75,538.80
32.80245,571.17,547.18
32.82335,572.68,553.88
32.84437,572.32,560.62
32.86563,569.29,568.15
32.88584,569.83,571.37
32.90733,569.39,575.57
32.92701,571.55,579.69
32.94548,567.21,584.40
32.96650,565.86,586.77
32.98661,566.47,589.44
33.00806,564.92,589.88
33.02805,563.25,591.70
33.04683,564.68,591.45
33.06803,564.96,591.23
33.08670,567.59,594.70
33.10678,564.84,592.94
33.12777,564.91,592.29
33.14667,564.96,594.14
33.16726,566.68,596.38
33.18813,564.06,595.16
33.20858,563.75,595.05
33.22926,562.65,596.64
33.24870,562.57,595.58
33.26771,560.34,597.29
33.28875,563.02,596.86
33.30751,561.23,594.72
33.32766,562.79,595.61
33.34825,559.61,595.60
33.36761,560.65,597.94
33.38807,560.27,595.34
33.40834,560.37,595.63
33.42902,559.83,596.08
33.44889,560.23,596.76
33.46899,560.58,597.61
33.48734,561.92,596.01
33.50854,558.74,598.00
33.52846,560.81,598.49
33.54872,558.68,601.33
33.56943,560.31,601.21
33.58881,557.09,603.35
33.60878,554.46,600.22
33.62856,555.51,600.62
33.64880,554.95,598.89
33.66770,556.44,599.95
33.68788,558.35,599.69
33.71005,558.29,595.95
33.72994,554.14,598.04
33.75093,556.73,597.86
33.76971,554.76,595.79
33.78944,552.54,593.75
33.81003,553.88,594.60
33.83048,552.82,595.27
33.85098,552.53,597.49
33.87070,551.31,598.40
33.89121,550.03,599.05
33.91342,548.81,597.90
33.93298,548.01,597.01
33.95315,550.66,597.04
33.97293,548.17,597.07
33.99348,548.48,596.66
34.01368,548.63,594.22
34.03390,549.50,594.59
34.05414,548.07,593.86
34.07325,548.80,595.42
34.09309,549.59,595.67
34.11265,546.83,593.93
34.13438,546.46,596.31
34.15276,549.06,595.64
34.17440,548.24,591.82
34.19289,547.86,594.21
34.21351,547.51,589.61
34.23286,549.37,590.63
34.25363,549.61,589.15
34.27412,548.90,589.57
34.29273,547.63,590.42
34.31333,550.31,590.32
34.33337,549.43,590.72
34.35384,550.34,591.48
34.37410,550.52,589.35
34.39333,551.90,588.37
34.41235,551.64,587.09
34.43414,551.88,586.02
34.45416,550.42,587.08
34.47318,551.31,586.97
34.49276,551.71,586.19
34.51308,551.44,586.34
34.53314,553.08,588.69
34.55298,553.25,588.51
34.57406,552.92,588.34
34.59392,552.58,585.29
34.61445,555.03,586.86
34.63592,555.23,588.66
34.65564,555.82,589.66
34.67715,562.62,591.86
34.69726,562.46,591.86
34.71632,564.34,592.69
34.73650,564.60,594.54
34.75651,566.24,593.58
34.77806,568.93,591.83
34.79641,564.51,593.19
34.81765,565.72,592.73
34.83914,566.47,593.90
34.85881,571.72,594.09
34.87870,570.49,593.61
34.89740,573.65,596.62
34.91751,571.61,597.99
34.93878,571.78,598.41
34.95914,570.89,594.97
34.97926,571.46,597.89
34.99911,573.08,598.82
35.01763,572.57,596.53
35.03846,574.65,596.51
35.05930,574.46,595.29
35.07850,572.18,597.05
35.09840,568.83,597.33
35.11843,570.99,595.45
35.13832,570.68,598.61
35.15874,571.01,596.43
35.17856,571.65,595.81
35.19900,569.88,596.43
35.21842,570.00,595.94
35.23852,573.45,597.38
35.25918,573.66,598.64
35.27819,574.63,598.58
35.29814,573.64,596.36
35.31868,575.60,596.69
35.33896,574.13,600.97
35.35793,573.16,598.43
35.37838,574.44,602.18
35.39811,574.23,599.20
35.41767,571.54,599.62
35.43912,573.12,598.12
35.45928,573.91,596.36
35.47949,573.72,597.54
35.49817,575.46,600.39
35.51832,575.89,599.90
35.53804,574.93,602.17
35.55863,577.03,597.99
35.57907,573.67,598.09
35.59771,575.44,598.90
35.61835,575.24,597.76
35.63947,573.85,601.93
35.65907,574.59,598.03
35.67816,576.71,602.87
35.69839,576.10,598.15
35.71837,573.93,598.49
35.73881,576.83,601.24
35.75932,576.47,599.31
35.77935,575.69,599.48
35.79925,579.08,597.94
35.81936,576.12,598.35
35.83796,577.18,609.66
35.85931,577.59,635.24
35.87762,580.02,664.20
35.89906,580.84,692.06
35.91884,582.01,713.15
35.93741,582.88,722.91
35.95744,582.25,724.98
35.97865,579.31,728.12
35.99821,581.44,719.13
36.01820,583.41,707.50
36.03748,583.28,695.57
36.05823,582.12,690.57
36.07937,580.06,683.64
36.09813,581.25,671.24
36.11821,583.56,660.23
36.13818,581.34,654.55
36.15888,579.60,644.51
36.17733,579.19,636.14
36.19758,580.98,633.78
36.21731,583.58,626.71
36.23835,579.56,625.34
36.25762,580.04,622.03
36.27776,577.61,619.78
36.29805,576.72,620.53
36.31726,577.98,616.43
36.33822,577.56,615.22
36.35784,577.57,612.94
36.37846,576.87,611.23
36.39791,574.87,610.35
36.41793,577.14,612.06
36.43799,576.49,608.70
36.45923,578.10,608.17
36.47858,577.25,606.67
36.49788,581.76,607.23
36.51759,582.64,608.81
36.53867,580.58,607.79
36.55889,577.60,609.68
36.57843,578.06,608.37
36.59861,580.89,610.02
36.61873,579.04,605.58
36.63842,576.06,606.25
36.65840,576.05,603.56
36.67819,575.63,601.37
36.69776,575.21,601.97
36.71813,573.19,605.98
36.73823,573.23,603.45
36.75831,573.61,603.45
36.77775,578.47,604.88
36.79918,576.00,605.45
36.81853,578.34,611.31
36.83783,575.58,600.01
36.85801,572.88,574.68
36.87875,572.83,538.65
36.89892,570.84,511.52
36.91938,568.90,489.22
36.93951,568.93,477.79
36.95952,569.10,477.22
36.98008,566.19,475.45
36.99894,566.32,480.77
37.01946,567.10,490.84
37.03911,567.28,497.38
37.05887,568.89,507.67
37.07898,572.47,515.76
37.09988,571.37,526.28
37.12035,569.48,537.59
37.14028,570.93,542.24
37.15974,571.92,552.35
37.17853,573.97,556.94
37.20012,572.12,566.06
37.21901,573.02,568.44
37.23988,571.96,576.51
37.25966,574.34,577.73
37.27877,572.10,583.08
37.29969,573.15,586.70
37.31962,574.29,590.61
37.33968,575.24,591.41
37.35877,576.13,596.63
37.37893,576.52,594.87
37.39963,574.99,596.76
37.41851,574.77,599.92
37.43869,573.76,598.60
37.45896,570.53,599.26
37.47945,571.06,600.52
37.49869,569.53,603.40
37.51834,568.72,600.77
37.53892,572.15,601.33
37.55962,570.32,602.40
37.57877,573.39,600.13
37.59975,570.02,603.05
37.61957,573.27,603.09
37.64022,572.45,602.31
37.65956,572.02,603.05
37.68035,572.31,604.18
37.69918,575.09,600.22
37.71843,573.02,600.66
37.73843,571.92,602.45
37.75939,574.78,602.02
37.77842,572.63,602.41
37.80113,574.25,600.99
37.82110,575.08,603.93
37.84097,575.04,604.64
37.86021,570.95,601.56
37.88075,574.30,601.43
37.90105,573.15,601.80
37.92086,573.63,601.50
37.94039,571.23,601.54
37.95966,571.48,601.57
37.98109,568.36,599.55
38.00034,566.49,598.78
38.02024,568.58,598.47
38.04121,570.14,600.99
38.05921,566.95,601.35
38.08145,568.55,597.54
38.10108,568.43,601.44
38.12119,567.34,601.55
38.14024,566.81,602.39
38.16028,566.30,602.46
38.18128,564.40,602.13
38.20053,565.27,603.59
38.22080,567.22,604.60
38.24156,568.51,603.80
38.26095,566.79,602.06
38.28224,567.38,602.24
38.30142,565.23,602.21
38.32136,564.41,602.24
38.34077,565.95,601.90
38.36059,567.16,602.08
38.38101,564.95,604.97
38.40177,567.35,602.71
38.42095,566.96,604.50
38.44090,567.71,603.26
38.46093,566.03,602.70
38.48152,566.34,601.98
38.50173,566.88,602.22
38.52195,568.54,602.49
38.54169,566.36,600.43
38.56184,567.29,600.61
38.58207,568.08,602.76
38.60113,567.17,601.79
38.62124,570.04,600.77
38.64191,570.02,600.49
38.66182,569.67,602.48
38.68181,566.48,601.47
38.70173,566.53,600.66
38.72182,565.86,600.29
38.74164,565.21,600.89
38.76165,568.30,601.71
38.78170,565.59,602.21
38.80107,566.45,600.76
38.82144,565.93,601.13
38.84178,566.06,603.13
38.86109,565.95,600.79
38.88108,565.73,599.93
38.90257,566.02,602.29
38.92060,564.21,601.15
38.94100,566.37,604.00
38.96172,564.17,601.10
38.98082,566.87,602.86
39.00050,566.06,602.26
39.02194,563.53,599.79
39.04235,563.15,601.14
39.06082,565.35,601.25
39.08225,564.41,600.35
39.10108,564.52,601.94
39.12086,563.66,602.00
39.14223,563.24,598.09
39.16174,564.43,598.02
39.18095,564.82,598.80
39.20059,561.94,599.02
39.22055,564.42,600.74
39.24065,564.09,599.29
39.26149,567.48,598.70
39.28247,564.10,597.89
39.30145,563.65,600.54
39.32111,565.13,599.07
39.34212,562.68,598.79
39.36148,561.23,600.26
39.38098,562.02,602.66
39.40110,561.84,599.64
39.42136,564.46,600.09
39.44108,565.40,599.56
39.46062,561.88,601.88
39.48078,562.71,602.63
39.50183,564.55,599.59
39.52053,565.01,601.61
39.54224,564.26,599.96
39.56150,563.03,603.73
39.58101,564.14,600.99
39.60134,561.93,603.29
39.62059,562.39,605.19
39.64099,564.47,601.37
39.66199,564.58,599.30
39.68092,565.00,600.78
39.70138,562.34,601.35
39.72185,564.21,601.96
39.74090,562.00,600.14
39.76104,561.46,603.12
39.78044,564.97,600.99
39.80099,563.46,602.85
39.82197,559.70,598.51
39.84070,560.75,600.51
39.86048,561.03,598.65
39.88078,561.13,606.09
39.90119,562.47,623.96
39.92192,564.20,645.11
39.94239,563.90,670.82
39.96201,565.51,696.38
39.98175,570.01,713.65
40.00061,571.56,727.54
40.02087,573.94,727.37
40.04056,570.98,722.32
40.06164,574.68,714.45
40.08179,575.02,704.43
40.10165,573.67,695.82
40.12105,575.11,690.20
40.14187,573.86,682.11
40.16133,571.60,674.42
40.18051,573.64,662.75
40.20183,573.53,657.25
40.22204,570.87,648.03
40.24286,569.99,637.65
40.26152,567.70,637.84
40.28214,567.01,631.31
40.30273,565.80,629.13
40.32309,564.72,625.47
40.34303,560.40,620.37
40.36273,558.36,616.63
40.38190,561.31,615.22
40.40269,559.31,611.64
40.42272,558.93,611.47
40.44292,559.47,609.54
40.46273,560.67,605.16
40.48271,561.45,604.84
40.50153,559.61,608.22
40.52209,557.97,606.71
40.54316,556.33,605.95
40.56328,556.32,606.27
40.58318,556.08,605.78
40.60153,557.31,602.24
40.62189,559.20,598.32
40.64159,556.57,602.74
40.66290,559.06,602.45
40.68259,559.09,602.79
40.70278,557.26,601.78
40.72236,561.59,598.75
40.74144,560.73,600.95
40.76188,557.55,598.24
40.78175,559.62,595.50
40.80270,557.00,596.50
40.82321,556.09,596.89
40.84253,554.82,599.92
40.86157,555.57,600.48
40.88315,553.49,599.62
40.90186,555.33,603.46
40.92235,554.71,608.57
40.94288,551.57,602.99
40.96191,548.67,589.30
40.98163,549.45,564.42
41.00148,546.49,535.07
41.02258,545.64,508.12
41.04178,545.09,493.83
41.06210,544.19,484.41
41.08277,545.74,479.46
41.10235,544.71,477.56
41.12329,544.06,480.67
41.14315,545.66,486.54
41.16338,547.54,494.00
41.18268,547.81,501.82
41.20143,549.20,509.99
41.22244,549.24,518.69
41.24125,550.29,527.27
41.26328,550.56,534.79
41.28214,549.28,538.61
41.30306,550.98,545.48
41.32157,551.91,550.86
41.34334,552.10,556.24
41.36322,550.56,558.89
41.38215,553.62,564.85
41.40299,552.04,567.24
41.42163,553.37,569.73
41.44257,550.16,576.43
41.46323,554.41,575.97
41.48262,551.71,581.01
41.50176,555.48,583.58
41.52219,555.03,583.17
41.54159,555.47,583.94
41.56150,556.14,586.39
41.58239,551.83,586.59
41.60290,551.73,589.73
41.62164,552.10,588.94
41.64322,549.85,593.23
41.66200,550.12,591.68
41.68167,551.94,591.77
41.70154,553.33,592.64
41.72287,556.02,596.27
41.74321,552.93,594.40
41.76250,554.52,596.64
41.78247,550.77,596.68
41.80207,551.94,595.26
41.82225,550.96,594.62
41.84215,549.79,595.23
41.86158,551.01,592.70
41.88120,553.52,596.33
41.90142,553.18,598.63
41.92219,550.49,595.55
41.94268,552.61,598.31
41.96279,548.41,597.18
41.98413,549.27,596.08
42.00230,548.27,594.20
42.02260,547.35,591.27
42.04354,547.28,592.45
42.06350,548.72,592.97
42.08314,549.57,594.71
42.10430,551.18,595.55
42.12255,549.26,597.27
42.14419,550.57,597.76
42.16423,551.55,595.10
42.18370,552.48,593.81
42.20361,548.95,591.24
42.22571,552.52,591.26
42.24533,549.58,594.56
42.26610,548.41,590.93
42.28474,550.65,592.23
42.30575,547.21,589.98
42.32605,547.87,591.37
42.34574,547.24,588.42
42.36586,548.08,590.41
42.38467,548.28,592.98
42.40544,549.29,591.53
42.42586,551.01,594.70
42.44551,548.55,591.24
42.46420,551.23,593.10
42.48599,550.45,591.88
42.50624,550.01,592.39
42.52490,550.60,597.01
42.54524,549.53,595.98
42.56613,552.03,592.65
42.58610,550.02,591.54
42.60452,552.49,593.22
42.62471,550.57,592.84
42.64632,554.18,592.70
42.66444,554.66,590.84
42.68578,553.68,589.79
42.70442,554.95,591.22
42.72594,554.09,592.29
42.74431,552.95,590.96
42.76620,554.34,588.33
42.78618,551.03,591.99
42.80556,550.73,594.57
42.82537,550.90,595.88
42.84614,553.71,598.30
42.86537,554.17,600.98
42.88611,554.38,605.13
42.90579,555.87,610.34
42.92596,561.85,618.95
42.94451,566.60,630.36
42.96551,571.20,635.55
42.98551,570.11,639.90
43.00607,567.86,632.58
43.02462,564.54,614.86
43.04549,562.38,589.96
43.06529,555.77,563.43
43.08480,552.07,539.79
43.10541,548.22,520.63
43.12532,543.37,504.63
43.14472,544.30,491.46
43.16604,540.90,483.20
43.18619,539.03,475.73
43.20517,539.34,477.48
43.22563,538.05,479.11
43.24586,537.96,484.49
43.26613,537.85,492.87
43.28487,537.63,502.43
43.30618,538.07,513.47
43.32583,541.43,523.09
43.34460,545.25,533.78
43.36517,542.93,544.59
43.38619,545.62,553.62
43.40605,547.49,560.16
43.42537,549.05,563.65
43.44629,550.39,570.67
43.46486,548.11,575.04
43.48625,550.98,586.14
43.50528,557.77,593.20
43.52490,557.65,600.01
43.54563,560.77,605.87
43.56574,561.02,606.87
43.58578,563.25,609.99
43.60559,567.21,614.58
43.62581,563.17,619.13
43.64403,568.09,640.66
43.66594,572.96,675.74
43.68425,573.88,717.96
43.70443,577.93,752.24
43.72478,579.97,760.82
43.74491,579.24,756.10
43.76500,577.90,741.32
43.78443,572.56,718.79
43.80614,569.50,693.13
43.82580,565.95,669.13
43.84459,562.70,649.24
43.86519,561.27,634.79
43.88566,560.49,625.09
43.90663,562.83,625.51
43.92599,567.58,645.56
43.94655,573.22,666.57
43.96660,581.34,691.77
43.98621,583.30,711.27
44.00663,585.88,726.73
44.02562,588.44,734.22
44.04667,592.99,741.32
44.06557,592.89,745.97
44.08718,590.98,745.20
44.10540,589.68,739.40
44.12540,591.23,735.69
44.14630,586.65,728.38
44.16627,585.40,725.80
44.18671,583.74,719.07
44.20707,582.04,715.26
44.22602,580.97,711.04
44.24661,576.20,710.67
44.26567,576.16,707.17
44.28583,570.49,703.64
44.30700,569.59,696.74
44.32532,570.28,693.73
