Program Time [s],data 0,data 1
5.30088,480.12,538.51
5.32229,486.34,541.21
5.34074,486.73,537.16
5.36127,489.24,537.35
5.38227,485.79,538.68
5.40160,487.29,538.18
5.42121,486.04,540.29
5.44086,488.15,537.51
5.46203,487.09,542.15
5.48223,487.56,542.59
5.50149,484.24,540.32
5.52047,486.15,542.59
5.54075,481.49,542.59
5.56143,482.20,544.64
5.58096,482.82,546.01
5.60143,479.22,544.90
5.62220,478.36,544.03
5.64046,478.88,542.52
5.66213,477.16,543.29
5.68245,477.26,546.65
5.70057,480.52,545.95
5.72105,479.57,546.66
5.74110,480.56,544.88
5.76171,480.79,545.81
5.78171,482.32,547.37
5.80151,482.47,546.66
5.82117,483.79,548.65
5.84143,485.54,548.27
5.86211,485.51,550.72
5.88053,486.26,550.20
5.90140,486.57,549.24
5.92189,487.45,549.87
5.94023,487.87,549.63
5.96160,485.02,548.04
5.98126,487.03,548.19
6.00237,488.67,547.83
6.02038,491.21,548.13
6.04105,490.77,549.67
6.06204,491.52,548.93
6.08215,492.63,548.64
6.10081,491.34,549.14
6.12194,486.89,551.14
6.14202,486.03,552.19
6.16209,486.12,551.16
6.18133,489.33,551.70
6.20221,485.89,553.13
6.22238,485.43,553.78
6.24127,486.27,551.75
6.26141,486.04,555.38
6.28138,486.21,551.83
6.30231,487.42,552.26
6.32111,489.44,550.69
6.34173,491.63,554.47
6.36121,491.23,552.41
6.38046,488.97,550.65
6.40080,487.96,553.87
6.42175,489.65,553.06
6.44160,489.90,553.02
6.46074,490.08,553.63
6.48102,488.37,550.58
6.50180,488.57,551.71
6.52115,490.53,552.47
6.54084,489.79,554.59
6.56126,488.63,552.29
6.58199,488.63,552.64
6.60111,490.39,551.38
6.62156,490.76,559.17
6.64070,492.38,592.20
6.66039,495.60,626.97
6.68113,501.75,666.14
6.70153,505.11,694.13
6.72100,501.31,701.58
6.74078,498.40,702.83
6.76084,499.25,693.22
6.78065,495.88,681.40
6.80097,493.74,666.25
6.82032,492.74,653.64
6.84214,492.75,635.36
6.86147,492.55,625.84
6.88062,489.21,618.74
6.90050,487.34,608.29
6.92131,487.25,599.39
6.94104,488.88,591.19
6.96034,486.72,586.34
6.98231,490.21,581.15
7.00095,491.91,577.74
7.02091,490.95,572.18
7.04028,492.27,568.35
7.06170,495.28,568.31
7.08134,496.05,561.30
7.10231,496.33,561.79
7.12146,493.90,561.92
7.14131,496.41,566.38
7.16196,495.41,562.39
7.18290,498.85,560.91
7.20231,494.76,559.72
7.22222,495.08,557.49
7.24252,494.02,558.95
7.26137,496.74,553.84
7.28170,497.70,553.30
7.30249,495.80,552.18
7.32146,496.03,556.62
7.34180,498.02,568.57
7.36253,500.44,586.18
7.38288,504.33,587.79
7.40314,505.08,562.46
7.42263,504.99,523.83
7.44318,498.62,481.79
7.46375,496.34,452.88
7.48399,493.79,434.09
7.50320,492.38,425.92
7.52373,492.23,421.63
7.54231,491.17,422.33
7.56399,491.95,429.39
7.58383,493.76,430.87
7.60342,496.27,443.56
7.62452,495.30,451.88
7.64464,494.02,459.55
7.66332,495.50,466.46
7.68412,496.54,475.97
7.70369,498.99,486.61
7.72392,501.48,491.55
7.74470,502.76,496.81
7.76532,499.81,504.60
7.78372,502.07,511.14
7.80377,501.06,513.13
7.82363,500.82,521.29
7.84333,504.52,525.16
7.86512,504.13,528.65
7.88354,506.06,533.52
7.90426,501.90,536.43
7.92347,503.42,537.31
7.94419,505.25,541.89
7.96438,504.36,541.00
7.98581,503.40,542.81
8.00732,502.44,543.69
8.02654,503.76,549.65
8.04561,502.79,551.17
8.06554,502.82,549.47
8.08699,504.09,551.42
8.10536,505.09,553.97
8.12625,504.39,554.75
8.14587,504.38,553.09
8.16577,502.55,553.51
8.18577,500.76,554.38
8.20657,500.87,554.65
8.22676,500.52,554.46
8.24666,497.73,555.34
8.26554,496.53,555.07
8.28569,498.08,552.94
8.30553,500.06,554.54
8.32658,499.94,557.42
8.34708,501.23,554.56
8.36598,503.00,555.32
8.38634,502.37,554.30
8.40660,502.99,553.94
8.42705,503.33,554.91
8.44585,502.17,552.38
8.46638,503.17,550.12
8.48628,502.59,553.33
8.50774,500.67,552.09
8.52708,500.46,550.37
8.54862,497.10,551.40
8.56813,494.17,552.92
8.58868,494.40,553.51
8.60787,498.13,552.32
8.62748,497.98,553.61
8.64873,496.90,552.84
8.66779,499.11,553.79
8.68777,499.52,552.50
8.70778,496.11,551.56
8.72844,498.84,550.63
8.74904,497.03,553.88
8.76866,499.12,554.21
8.78857,496.49,552.20
8.80760,496.91,551.75
8.82799,496.23,553.91
8.84846,497.47,551.39
8.86864,494.26,549.52
8.88820,494.65,552.63
8.90848,496.73,551.27
8.92919,493.81,553.28
8.94876,495.29,550.91
8.96828,495.29,552.06
8.98775,497.06,552.32
9.00766,494.75,551.03
9.02787,493.79,552.80
9.04887,496.19,555.50
9.06902,495.85,553.88
9.08814,497.53,554.59
9.10770,497.24,552.09
9.12805,495.02,553.38
9.15016,495.68,551.58
9.16830,495.36,551.40
9.18836,493.85,554.30
9.20930,494.34,554.20
9.22824,490.04,550.87
9.24996,491.70,552.28
9.27018,491.30,553.56
9.28918,491.03,552.61
9.30990,491.67,551.88
9.32979,488.31,550.29
9.34932,490.10,553.11
9.36985,490.41,548.83
9.38907,489.46,551.00
9.40947,490.62,549.93
9.42906,490.05,552.50
9.44973,488.18,549.83
9.46815,491.15,551.63
9.48970,489.14,549.70
9.50848,492.31,549.39
9.52843,491.17,548.37
9.54924,490.60,549.16
9.56998,489.40,549.44
9.58826,489.21,547.25
9.60986,489.70,549.89
9.62896,490.71,548.12
9.64805,489.61,549.82
9.67006,487.93,547.65
9.68825,489.85,549.31
9.70953,488.74,546.31
9.73010,485.89,546.83
9.75013,487.45,549.85
9.76841,486.03,549.63
9.78816,486.45,549.24
9.80996,485.58,549.48
9.83002,487.48,560.12
9.84852,488.30,586.55
9.86943,489.96,612.12
9.88878,490.87,641.75
9.90888,494.36,658.66
9.92821,496.29,665.22
9.94972,497.35,664.30
9.96886,493.37,655.11
9.98862,495.28,649.17
10.00923,496.05,640.42
10.02845,492.66,626.77
10.05036,492.11,614.21
10.07189,490.78,604.56
10.09225,487.35,602.03
10.11216,485.57,596.01
10.13061,483.26,590.59
10.15156,484.29,583.99
10.17202,483.45,578.74
10.19145,483.96,575.02
10.21197,484.06,570.39
10.23065,481.58,569.58
10.25101,480.79,566.18
10.27195,483.63,566.97
10.29132,481.18,566.10
10.31195,481.28,563.98
10.33103,483.30,568.34
10.35106,483.95,574.68
10.37112,485.75,573.19
10.39122,485.29,574.27
10.41104,483.68,571.94
10.43186,482.53,570.62
10.45091,482.35,571.10
10.47161,481.25,566.96
10.49148,480.99,563.69
10.51119,483.22,562.32
10.53149,483.97,561.61
10.55084,483.80,560.00
10.57128,482.37,558.62
10.59214,484.85,556.92
10.61035,481.60,566.11
10.63095,481.00,572.78
10.65073,482.44,571.59
10.67031,477.33,544.49
10.69023,472.49,507.08
10.71027,470.49,466.61
10.73184,466.75,437.89
10.75203,466.47,421.67
10.77063,468.56,418.19
10.79216,467.93,418.34
10.81088,468.23,419.22
10.83118,471.75,426.98
10.85180,473.48,436.10
10.87094,474.28,445.95
10.89113,473.25,455.33
10.91202,475.72,464.58
10.93085,480.63,474.10
10.95152,478.19,479.87
10.97142,478.36,486.43
10.99110,480.20,497.72
11.01054,481.86,502.52
11.03031,481.32,510.29
11.05219,481.16,513.51
11.07143,481.46,518.98
11.09068,484.04,522.77
11.11097,483.33,527.82
11.13158,483.38,532.97
11.15146,484.03,536.21
11.17173,484.84,535.09
11.19196,485.57,538.82
11.21118,482.58,540.75
11.23218,481.83,539.14
11.25084,482.06,541.06
11.27049,482.73,543.20
11.29125,482.21,543.93
11.31206,483.06,546.12
11.33125,481.72,544.84
11.35222,482.38,547.06
11.37203,483.01,546.70
11.39228,482.75,548.01
11.41322,481.47,547.58
11.43144,480.73,546.79
11.45217,479.70,544.63
11.47279,480.05,543.38
11.49199,481.02,542.42
11.51258,481.47,546.72
11.53275,482.02,545.89
11.55147,481.82,545.56
11.57197,481.37,543.36
11.59134,483.43,545.19
11.61163,483.80,551.29
11.63209,483.66,550.46
11.65299,479.83,548.63
11.67302,479.86,549.77
11.69252,483.83,552.03
11.71161,482.57,550.85
11.73184,480.64,551.36
11.75290,479.66,547.50
11.77253,481.85,550.94
11.79137,482.55,548.60
11.81337,482.34,546.38
11.83154,482.26,547.25
11.85285,481.44,547.55
11.87312,482.23,547.22
11.89304,481.54,546.34
11.91184,480.76,544.08
11.93199,479.86,548.83
11.95254,479.88,546.56
11.97265,481.68,546.22
11.99225,483.07,546.38
12.01286,481.82,547.10
12.03252,481.17,545.94
12.05123,482.15,543.96
12.07301,483.05,543.84
12.09286,481.57,543.48
12.11289,481.62,545.36
12.13284,481.73,544.08
12.15164,481.27,543.40
12.17134,483.48,546.12
12.19132,482.42,549.11
12.21266,483.68,548.99
12.23279,483.34,550.12
12.25290,482.04,549.56
12.27255,483.64,551.90
12.29270,485.50,549.86
12.31236,484.37,549.36
12.33170,482.02,549.55
12.35266,482.69,547.76
12.37169,481.73,549.64
12.39145,481.69,545.76
12.41320,481.12,549.24
12.43320,481.26,548.41
12.45286,481.28,548.65
12.47198,482.34,545.43
12.49246,482.56,546.49
12.51113,482.21,547.07
12.53110,485.41,546.60
12.55239,483.48,546.71
12.57150,483.27,547.63
12.59199,485.85,545.51
12.61287,484.05,545.27
12.63263,483.31,541.62
12.65247,482.08,544.13
12.67120,483.63,544.51
12.69177,481.31,542.73
12.71149,482.36,541.59
12.73318,480.94,544.40
12.75185,483.90,543.21
12.77325,482.62,546.13
12.79157,485.15,543.98
12.81242,483.51,545.68
12.83286,485.47,543.71
12.85135,483.93,543.84
12.87280,484.79,547.19
12.89312,485.15,547.43
12.91136,482.75,546.13
12.93228,485.15,551.09
12.95230,486.60,550.65
12.97276,485.79,548.46
12.99123,482.44,548.43
13.01253,481.95,550.88
13.03440,482.90,548.12
13.05158,483.40,548.11
13.07214,482.64,547.77
13.09317,484.07,547.32
13.11122,484.12,547.52
13.13318,483.63,549.65
13.15152,481.58,547.89
13.17225,481.50,547.53
13.19240,483.44,549.46
13.21287,482.79,548.28
13.23281,484.94,544.58
13.25137,482.76,547.36
13.27241,481.95,544.49
13.29278,485.31,543.49
13.31218,485.45,546.38
13.33270,486.00,546.50
13.35171,485.69,544.90
13.37306,486.57,548.06
13.39200,484.91,546.06
13.41317,486.38,547.08
13.43314,487.14,547.08
13.45317,488.91,546.71
13.47216,485.79,549.59
13.49156,484.92,549.68
13.51185,488.90,550.98
13.53103,488.58,549.56
13.55281,490.18,550.91
13.57164,489.72,547.14
13.59208,489.36,547.58
13.61266,490.76,549.47
13.63290,489.47,547.32
13.65242,490.23,547.73
13.67267,487.80,543.75
13.69178,486.76,549.72
13.71285,489.46,569.38
13.73288,489.96,593.12
13.75241,488.71,629.34
13.77242,491.66,654.01
13.79288,491.81,666.58
13.81155,495.17,681.30
13.83231,493.88,678.65
13.85254,492.29,677.01
13.87145,492.53,673.66
13.89196,492.11,666.80
13.91116,492.36,656.96
13.93235,492.18,651.08
13.95171,495.31,636.61
13.97234,494.84,631.56
13.99167,491.37,627.27
14.01143,493.32,619.41
14.03138,491.83,611.83
14.05265,494.37,603.40
14.07212,490.70,600.69
14.09238,492.51,598.06
14.11211,491.02,593.88
14.13189,493.86,589.78
14.15169,490.78,588.09
14.17123,491.53,587.53
14.19128,490.26,579.01
14.21324,491.58,575.56
14.23126,491.40,575.25
14.25146,489.53,573.37
14.27136,491.75,571.50
14.29193,490.99,568.74
14.31198,492.52,567.85
14.33111,491.86,558.84
14.35207,488.86,559.84
14.37225,489.80,559.25
14.39282,489.43,559.83
14.41291,491.31,557.14
14.43289,492.91,556.65
14.45156,491.84,553.50
14.47123,492.94,559.11
14.49202,494.75,567.57
14.51149,493.90,572.71
14.53202,495.68,563.33
14.55213,493.35,531.81
14.57167,490.72,486.85
14.59247,485.68,451.86
14.61136,486.06,429.66
14.63196,483.83,416.75
14.65142,482.65,413.81
14.67297,478.22,414.60
14.69185,479.58,419.94
14.71311,479.55,425.08
14.73250,482.86,433.46
14.75252,483.35,444.43
14.77254,484.82,452.61
14.79128,486.01,456.49
14.81200,489.87,463.09
14.83296,489.49,469.88
14.85187,490.04,479.79
14.87259,490.19,484.45
14.89289,489.85,491.43
14.91242,490.06,501.48
14.93200,492.25,505.01
14.95148,492.11,511.81
14.97309,489.13,514.42
14.99211,491.27,520.17
15.01298,493.75,524.98
15.03288,491.31,525.64
15.05209,493.16,531.83
15.07280,494.62,532.00
15.09246,492.11,534.35
15.11255,491.19,538.52
15.13297,494.87,541.71
15.15175,496.65,540.55
15.17285,496.16,543.18
15.19137,494.97,542.35
15.21130,494.53,546.08
15.23201,495.59,545.50
15.25179,496.66,545.05
15.27206,495.24,545.11
15.29227,495.91,545.34
15.31212,493.26,545.21
15.33252,493.61,547.25
15.35132,496.08,546.17
15.37304,495.57,546.48
15.39149,497.51,548.76
15.41150,497.69,546.56
15.43241,495.86,546.10
15.45146,497.50,544.62
15.47159,494.43,542.59
15.49217,493.97,544.68
15.51247,499.46,544.82
15.53159,497.21,546.64
15.55155,499.32,545.39
15.57246,496.69,544.33
15.59174,499.18,543.74
15.61187,498.64,547.76
15.63284,497.32,547.46
15.65180,494.20,546.90
15.67242,494.34,546.64
15.69185,498.21,547.75
15.71270,495.94,549.77
15.73314,498.13,549.90
15.75117,500.30,549.80
15.77230,499.80,551.83
15.79298,500.97,551.03
15.81308,500.86,553.72
15.83152,500.71,551.13
15.85166,498.95,551.07
15.87119,497.84,550.17
15.89231,501.52,551.39
15.91214,502.21,549.68
15.93169,499.72,553.11
15.95205,498.91,549.83
15.97299,500.87,553.71
15.99157,500.55,550.42
16.01136,499.32,553.80
16.03168,496.73,551.08
16.05237,498.50,549.04
16.07231,497.30,549.63
16.09261,498.57,549.89
16.11188,494.80,546.95
16.13241,499.25,548.65
16.15142,495.46,550.77
16.17268,499.37,547.77
16.19181,499.64,549.45
16.21170,499.67,550.67
16.23257,498.12,551.06
16.25169,500.78,551.51
16.27220,500.90,550.07
16.29308,497.05,549.11
16.31263,496.73,552.73
16.33263,499.25,554.69
16.35347,501.12,554.62
16.37389,501.65,553.56
16.39240,500.17,552.28
16.41259,499.10,551.63
16.43335,499.91,552.61
16.45300,499.76,551.37
16.47273,502.86,553.65
16.49396,501.66,552.59
16.51343,500.52,549.87
16.53273,499.89,551.37
16.55342,504.17,551.55
16.57285,502.89,548.82
16.59366,500.81,549.22
16.61293,502.40,549.75
16.63243,504.03,549.80
16.65277,501.70,550.34
16.67259,501.66,550.09
16.69316,502.22,549.98
16.71259,501.23,547.38
16.73268,500.45,547.42
16.75376,502.58,549.00
16.77274,504.23,548.86
16.79255,503.81,547.59
16.81363,502.41,548.21
16.83266,502.92,548.05
16.85232,502.51,545.21
16.87410,502.15,544.78
16.89208,500.41,546.31
16.91217,501.94,545.40
16.93337,500.24,546.90
16.95329,503.86,547.69
16.97382,501.76,547.72
16.99396,501.81,543.74
17.01311,501.31,546.92
17.03350,499.63,545.05
17.05247,502.39,544.06
17.07209,502.22,546.60
17.09295,500.28,546.86
17.11384,501.63,547.18
17.13348,500.40,546.05
17.15217,502.65,549.65
17.17211,504.47,549.77
17.19321,504.86,548.04
17.21354,505.82,549.82
17.23212,503.74,551.17
17.25405,504.53,551.71
17.27243,504.94,551.46
17.29242,505.70,550.34
17.31298,504.96,554.12
17.33344,504.80,549.80
17.35234,501.91,552.58
17.37322,503.21,550.79
17.39349,504.12,553.13
17.41279,502.85,554.04
17.43281,503.03,554.71
17.45276,500.60,552.90
17.47399,502.02,551.16
17.49264,500.63,553.89
17.51372,500.57,552.88
17.53233,502.21,555.93
17.55395,505.68,554.55
17.57275,503.24,558.01
17.59267,504.35,558.49
17.61342,502.66,559.49
17.63327,504.71,564.66
17.65235,504.86,576.53
17.67283,504.73,604.25
17.69283,506.18,638.18
17.71237,508.60,660.35
17.73227,510.47,670.86
17.75266,508.01,672.91
17.77398,508.44,674.20
17.79372,504.52,664.23
17.81384,502.59,657.10
17.83325,504.77,645.01
17.85383,507.79,641.74
17.87266,507.97,639.83
17.89252,509.56,631.90
17.91333,508.95,622.19
17.93400,510.00,612.65
17.95243,508.25,609.20
17.97396,507.56,602.65
17.99216,506.49,597.52
18.01518,506.13,593.15
18.03475,506.80,587.10
18.05387,503.92,583.38
18.07424,503.26,579.92
18.09455,502.99,581.71
18.11375,505.76,578.91
18.13418,503.83,578.83
18.15413,506.35,577.08
18.17455,502.77,576.18
18.19311,500.93,572.78
18.21496,500.12,568.12
18.23346,502.38,568.14
18.25509,501.66,566.63
18.27430,499.54,566.54
18.29444,502.15,564.52
18.31399,499.19,563.52
18.33360,501.19,561.36
18.35421,500.14,564.69
18.37351,502.06,565.61
18.39311,498.72,566.62
18.41454,502.46,564.59
18.43507,502.77,562.18
18.45358,501.17,565.52
18.47311,504.22,568.00
18.49399,500.88,566.05
18.51373,497.08,545.72
18.53324,495.18,514.69
18.55346,490.88,475.72
18.57365,488.14,450.38
18.59441,487.56,433.81
18.61420,487.55,427.73
18.63405,485.43,427.54
18.65467,484.67,430.41
18.67479,486.20,435.73
18.69340,487.80,442.85
18.71502,492.23,455.78
18.73425,492.04,464.38
18.75462,491.13,473.86
18.77370,494.94,480.80
18.79283,498.05,492.04
18.81421,496.75,497.98
18.83385,497.79,506.95
18.85385,497.98,509.65
18.87336,498.68,517.75
18.89437,500.31,523.96
18.91520,497.21,524.74
18.93537,499.52,531.85
18.95555,497.18,531.89
18.97540,496.92,537.09
18.99517,496.94,536.06
19.01497,499.79,537.76
19.03530,496.74,540.27
19.05602,499.82,541.22
19.07427,496.34,542.16
19.09548,498.67,545.06
19.11571,497.82,546.95
19.13447,498.97,546.66
19.15519,498.25,551.57
19.17508,498.71,557.26
19.19498,498.96,560.11
19.21496,498.79,561.82
19.23601,495.43,561.34
19.25581,494.35,562.18
19.27515,496.31,563.15
19.29522,497.90,559.67
19.31581,496.62,558.93
19.33522,494.55,560.67
19.35613,494.57,559.24
19.37446,497.41,558.55
19.39554,495.58,558.49
19.41407,497.65,558.19
19.43568,495.28,557.73
19.45425,497.12,556.45
19.47552,493.82,552.74
19.49399,495.88,552.09
19.51458,494.93,551.43
19.53544,494.50,549.25
19.55438,493.61,550.33
19.57509,496.23,548.22
19.59456,492.99,548.77
19.61448,493.06,550.03
19.63593,493.97,550.22
19.65565,493.84,550.55
19.67576,494.80,550.06
19.69604,492.67,548.21
19.71581,492.71,547.33
19.73542,492.20,548.47
19.75425,491.00,548.19
19.77559,491.37,552.37
19.79557,489.35,553.69
19.81411,492.22,551.89
19.83464,493.01,547.38
19.85572,491.56,544.14
19.87553,489.30,542.96
19.89463,492.39,541.24
19.91581,492.97,538.41
19.93420,493.75,537.88
19.95575,489.88,540.36
19.97490,490.49,541.98
19.99433,491.79,540.00
20.01470,493.47,542.73
20.03510,490.68,542.99
20.05522,490.28,542.92
20.07701,491.20,542.69
20.09590,489.29,543.50
20.11607,487.84,545.66
20.13548,487.77,547.93
20.15686,486.73,550.77
20.17587,488.68,548.95
20.19566,487.55,552.61
20.21536,487.44,552.74
20.23611,489.85,552.97
20.25533,487.44,550.68
20.27584,489.14,550.40
20.29669,488.55,553.64
20.31593,487.82,553.49
20.33625,487.95,552.64
20.35546,486.87,556.09
20.37704,487.44,552.31
20.39625,487.29,554.27
20.41573,488.14,553.19
20.43610,488.06,553.19
20.45616,487.27,551.83
20.47669,488.17,550.93
20.49636,485.66,548.30
20.51598,486.33,550.62
20.53613,486.44,553.36
20.55526,485.88,552.81
20.57545,485.50,549.85
20.59696,489.68,552.66
20.61501,486.26,552.11
20.63535,489.09,550.67
20.65521,486.56,551.36
20.67670,485.67,553.58
20.69577,484.26,554.53
20.71669,483.99,553.76
20.73635,485.48,554.63
20.75610,486.32,550.34
20.77671,484.74,551.98
20.79574,482.49,555.27
20.81506,483.45,554.57
20.83691,486.04,553.48
20.85673,486.48,551.23
20.87523,483.54,552.36
20.89492,486.46,549.29
20.91552,485.87,551.85
20.93508,484.67,551.12
20.95652,483.74,548.51
20.97661,484.70,549.26
20.99684,486.86,550.46
21.01659,485.24,548.85
21.03605,482.42,551.62
21.05593,483.92,550.65
21.07633,484.89,549.30
21.09548,485.48,551.46
21.11570,483.41,551.74
21.13617,484.05,553.17
21.15550,484.97,552.38
21.17700,482.69,553.60
21.19634,483.27,553.85
21.21597,484.28,548.66
21.23565,484.45,552.42
21.25560,483.90,549.74
21.27665,486.02,550.09
21.29517,482.24,551.40
21.31598,483.46,550.59
21.33555,484.52,550.13
21.35514,485.60,549.26
21.37545,483.09,549.89
21.39639,486.36,549.96
21.41670,485.32,548.73
21.43670,484.07,551.95
21.45617,485.13,550.38
21.47605,483.38,551.24
21.49551,483.41,551.61
21.51531,482.39,550.31
21.53600,482.16,552.03
21.55524,483.67,553.46
21.57612,484.44,550.11
21.59495,486.06,553.90
21.61642,485.43,550.52
21.63565,482.24,553.69
21.65696,484.40,552.51
21.67627,486.97,550.67
21.69534,485.73,556.70
21.71593,485.40,576.79
21.73513,484.50,600.26
21.75687,482.78,618.29
21.77614,480.99,639.47
21.79695,479.84,648.17
21.81582,479.66,653.40
21.83606,476.77,653.73
21.85678,478.05,649.70
21.87542,476.00,645.26
21.89507,477.29,639.04
21.91699,481.12,632.71
21.93615,482.31,626.24
21.95533,482.93,612.91
21.97671,483.69,607.77
21.99536,485.67,605.07
22.01515,484.86,593.98
22.03516,489.01,591.74
22.05665,489.67,588.82
22.07534,486.61,585.81
22.09616,490.54,580.78
22.11690,491.18,582.37
22.13564,491.07,576.65
22.15685,491.01,574.58
22.17602,491.07,573.33
22.19582,490.27,572.66
22.21529,490.44,575.33
22.23539,489.23,572.29
22.25561,485.22,570.83
22.27511,485.69,571.56
22.29494,485.32,569.64
22.31548,484.61,567.70
22.33620,485.05,566.90
22.35608,484.81,567.45
22.37518,486.12,567.30
22.39501,485.77,563.54
22.41504,483.87,563.48
22.43602,483.55,566.72
22.45664,485.27,575.39
22.47673,488.03,585.35
22.49530,484.91,584.82
22.51570,481.52,559.10
22.53521,480.78,514.11
22.55689,476.00,473.65
22.57551,477.79,446.28
22.59629,473.69,429.62
22.61632,472.21,420.86
22.63581,472.47,418.26
22.65651,473.66,419.04
22.67508,474.17,428.34
22.69666,473.99,434.21
22.71551,477.29,443.12
22.73546,475.26,451.50
22.75569,478.12,463.09
22.77638,479.42,471.79
22.79510,480.57,481.86
22.81639,482.10,487.34
22.83575,482.69,494.27
22.85542,484.21,502.29
22.87608,482.19,509.49
22.89555,482.13,512.21
22.91501,482.03,516.36
22.93543,482.80,523.07
22.95501,483.14,523.64
22.97554,483.77,530.05
22.99649,481.62,530.32
23.01513,482.69,535.43
23.03483,481.56,537.28
23.05531,483.25,540.82
23.07595,485.39,544.48
23.09579,483.30,547.74
23.11575,480.71,547.07
23.13577,483.17,549.97
23.15680,484.01,548.24
23.17549,480.75,548.30
23.19610,479.93,549.51
23.21554,481.05,546.92
23.23548,479.93,546.33
23.25559,481.52,547.50
23.27675,482.59,547.76
23.29579,481.04,547.17
23.31549,479.65,545.72
23.33626,480.87,549.03
23.35643,482.47,548.49
23.37624,478.89,547.35
23.39554,478.04,548.93
23.41684,477.20,544.46
23.43510,478.45,546.03
23.45648,478.18,549.31
23.47617,477.47,548.31
23.49781,480.70,546.89
23.51750,479.26,547.37
23.53712,480.94,547.74
23.55736,481.49,549.31
23.57786,483.68,547.64
23.59688,483.35,547.29
23.61769,482.57,549.58
23.63856,481.55,545.76
23.65825,480.92,548.64
23.67721,480.29,545.50
23.69813,483.37,545.40
23.71803,481.43,544.78
23.73736,483.41,547.37
23.75878,481.35,545.12
23.77833,483.57,546.68
23.79784,482.87,547.69
23.81870,484.72,547.66
23.83741,483.24,544.73
23.85875,484.71,543.59
23.87705,483.85,541.96
23.89709,484.80,543.21
23.91779,483.65,546.11
23.93805,486.31,542.88
23.95741,486.43,546.21
23.97706,484.97,543.89
23.99851,481.92,546.63
24.01865,482.35,543.95
24.03750,482.52,546.18
24.05731,479.19,545.47
24.07766,482.83,545.46
24.09704,480.36,544.55
24.11738,482.26,546.26
24.13714,482.19,545.92
24.15769,482.32,545.36
24.17699,485.80,545.57
24.19754,484.38,548.15
24.21823,483.45,548.95
24.23877,483.18,552.16
24.25739,483.37,549.68
24.27750,483.20,549.44
24.29828,482.49,551.75
24.31822,484.40,550.44
24.33722,482.78,548.69
24.35835,485.34,549.11
24.37702,482.89,547.73
24.39771,482.51,549.44
24.41879,484.30,547.75
24.43840,485.56,548.43
24.45778,485.97,548.96
24.47885,484.62,551.31
24.49803,485.03,550.45
24.51856,484.94,550.40
24.53716,481.89,546.47
24.55827,481.66,549.44
24.57870,483.39,547.87
24.59843,482.67,547.12
24.61823,484.47,549.96
24.63801,486.72,547.16
24.65972,484.58,548.42
24.67790,485.31,545.71
24.69986,485.92,545.38
24.71876,486.50,546.15
24.73876,486.86,544.26
24.75846,488.19,542.78
24.77795,485.92,545.73
24.80054,488.04,547.09
24.81947,490.80,549.35
24.83946,488.98,546.64
24.85975,490.52,550.37
24.88028,492.30,548.55
24.89882,491.00,550.41
24.91937,488.51,549.20
24.93940,492.24,548.76
24.96079,491.38,546.85
24.98069,492.26,548.42
25.00118,493.56,544.77
25.02167,493.56,547.37
25.04026,494.38,547.16
25.06112,494.40,550.59
25.08120,495.98,554.26
25.10227,497.95,555.08
25.12268,498.02,552.90
25.14280,496.11,553.25
25.16085,498.82,554.18
25.18163,499.69,551.83
25.20194,499.80,550.67
25.22259,498.82,550.09
25.24212,501.61,548.87
25.26096,502.39,547.21
25.28151,501.01,546.82
25.30092,497.86,547.16
25.32098,501.15,548.82
25.34255,497.11,548.62
25.36175,499.67,545.24
25.38135,501.15,546.10
25.40193,499.41,547.18
25.42123,499.41,547.07
25.44241,499.98,543.95
25.46249,499.99,545.24
25.48195,501.53,543.70
25.50312,500.66,545.21
25.52285,500.41,557.18
25.54353,504.92,582.35
25.56281,508.26,616.90
25.58475,510.47,645.40
25.60404,509.65,666.00
25.62482,511.51,668.46
25.64436,513.63,673.94
25.66432,510.50,672.73
25.68459,509.10,660.49
25.70487,507.98,655.47
25.72472,507.79,645.77
25.74373,504.42,639.77
25.76286,503.72,630.82
25.78416,503.35,624.12
25.80332,502.36,618.83
25.82363,507.42,610.79
25.84353,504.72,599.45
25.86419,507.66,599.62
25.88336,503.85,595.45
25.90387,503.04,588.74
25.92453,504.52,590.51
25.94359,502.77,584.62
25.96475,502.00,583.05
25.98439,501.35,579.21
26.00414,503.20,577.90
26.02418,501.01,570.23
26.04399,501.25,570.29
26.06437,499.91,570.49
26.08451,501.06,568.22
26.10396,502.50,567.92
26.12517,502.63,573.26
26.14517,501.65,585.62
26.16473,502.73,595.42
26.18447,502.40,590.80
26.20594,505.36,571.83
26.22549,502.96,544.24
26.24449,497.35,509.10
26.26420,492.35,477.43
26.28504,491.05,453.69
26.30480,491.33,439.04
26.32435,492.46,435.12
26.34593,491.69,435.65
26.36548,493.30,435.99
26.38400,497.17,438.13
26.40602,494.77,442.54
26.42640,493.24,446.09
26.44556,493.58,454.35
26.46677,496.02,460.49
26.48657,497.31,467.11
26.50622,495.26,473.33
26.52533,499.10,483.10
26.54655,498.47,486.80
26.56560,499.28,494.32
26.58570,498.28,498.37
26.60619,498.56,506.76
26.62513,501.15,513.20
26.64555,502.58,516.28
26.66631,499.36,525.30
26.68681,501.74,543.46
26.70703,502.15,575.79
26.72652,505.88,630.79
26.74617,512.45,687.34
26.76645,515.54,732.24
26.78685,521.37,748.00
26.80692,522.62,739.46
26.82673,518.71,712.04
26.84771,513.36,675.76
26.86590,507.19,633.75
26.88656,503.21,596.79
26.90669,497.29,564.59
26.92720,492.47,534.34
26.94752,488.53,514.43
26.96683,487.49,493.93
26.98756,487.58,483.35
27.00696,483.33,476.06
27.02581,482.70,474.34
27.04729,486.91,470.29
27.06781,488.33,471.29
27.08645,488.67,474.17
27.10734,487.47,477.75
27.12599,486.93,485.90
27.14757,489.72,489.23
27.16607,491.16,498.72
27.18680,491.21,501.23
27.20703,491.22,506.46
27.22587,492.59,514.05
27.24588,493.38,517.64
27.26762,491.42,523.46
27.28664,491.56,526.74
27.30607,493.56,527.22
27.32693,491.93,530.73
27.34618,493.38,537.21
27.36613,493.76,539.62
27.38622,493.67,536.62
27.40697,492.93,539.47
27.42624,494.80,538.88
27.44706,493.79,536.66
27.46653,495.85,538.69
27.48607,496.76,541.84
27.50764,495.46,550.20
27.52718,497.98,561.95
27.54752,498.58,578.93
27.56748,500.23,594.41
27.58626,497.76,608.90
27.60659,497.94,622.41
27.62647,498.87,623.76
27.64611,499.10,622.80
27.66656,499.08,619.33
27.68767,499.69,612.05
27.70746,496.32,605.26
27.72725,499.50,600.65
27.74675,496.24,597.43
27.76753,495.27,589.94
27.78609,495.07,583.67
27.80619,495.91,583.78
27.82732,493.62,578.44
27.84671,496.14,577.27
27.86740,497.52,573.76
27.88612,495.37,549.27
27.90638,494.62,525.55
27.92582,491.74,506.95
27.94680,491.46,494.43
27.96664,490.57,492.24
27.98638,488.85,490.79
28.00740,488.88,491.90
28.02683,489.12,493.75
28.04616,488.25,499.28
28.06772,491.07,501.57
28.08610,488.08,506.11
28.10685,488.14,511.33
28.12615,491.18,516.68
28.14625,491.73,517.39
28.16738,491.57,522.18
28.18671,492.46,524.09
28.20711,492.11,526.53
28.22608,492.41,533.03
28.24608,494.76,536.37
28.26733,493.90,539.48
28.28626,494.48,539.61
28.30716,491.57,539.18
28.32679,493.71,542.61
28.34598,493.27,540.37
28.36650,491.55,544.97
28.38677,493.01,545.07
28.40770,491.55,546.04
28.42852,494.44,548.37
28.44835,492.24,551.20
28.46813,493.55,551.14
28.48809,493.11,549.40
28.50848,490.63,548.93
28.52674,493.52,549.41
28.54709,490.52,550.49
28.56785,490.15,551.23
28.58728,492.28,550.17
28.60891,493.47,548.34
28.62722,489.29,548.86
28.64810,489.85,549.47
28.66722,491.92,549.86
28.68696,487.75,549.94
28.70747,490.79,552.71
28.72675,489.72,553.45
28.74797,487.91,551.28
28.76706,485.34,551.67
28.78845,486.95,552.39
28.80734,489.75,549.49
28.82798,490.44,553.08
28.84889,494.39,565.18
28.86689,492.66,593.78
28.88706,495.87,623.56
28.90728,499.09,659.02
28.92782,498.68,686.27
28.94852,501.44,697.59
28.96722,499.94,701.68
28.98683,496.99,692.70
29.00765,499.08,682.97
29.02854,496.24,668.37
29.04875,490.75,652.88
29.06940,489.96,635.22
29.08859,488.50,621.67
29.10931,489.42,611.32
29.12913,488.75,600.77
29.14803,487.44,595.65
29.16839,485.61,588.11
29.18919,484.98,581.01
29.20917,487.78,575.70
29.22777,484.06,575.31
29.24872,485.83,569.31
29.26908,482.48,568.13
29.28942,484.58,565.40
29.30876,484.32,566.00
29.32828,487.51,566.21
29.34946,485.43,563.44
29.36986,485.49,562.00
29.38910,485.45,559.28
29.40852,484.40,557.02
29.42971,485.20,556.92
29.44920,484.05,559.77
29.46934,482.49,556.09
29.48883,482.57,555.82
29.50810,483.05,553.23
29.52908,484.78,553.17
29.54798,481.87,552.59
29.56823,482.86,551.46
29.58898,483.74,551.24
29.60919,484.76,553.38
29.62959,485.80,551.48
29.64845,487.37,549.80
29.67039,483.56,550.52
29.68968,485.31,546.53
29.70957,483.24,551.25
29.73074,483.01,552.34
29.75028,482.10,564.78
29.76896,488.35,583.64
29.79001,487.59,601.15
29.80927,491.64,608.22
29.82998,492.97,598.75
29.84887,488.87,569.46
29.86876,488.40,529.04
29.88957,482.62,484.89
29.90986,477.29,451.82
29.93179,477.87,433.63
29.94985,475.26,420.46
29.97093,475.81,413.91
29.99053,472.59,411.00
30.01159,473.11,417.10
30.03174,473.51,423.27
30.05255,474.98,433.46
30.07261,476.98,445.40
30.09121,476.90,451.92
30.11092,473.37,464.12
30.13207,474.19,473.58
30.15097,474.46,479.51
30.17224,475.90,482.42
30.19245,475.16,488.15
30.21266,475.25,497.14
30.23071,475.48,500.50
30.25254,475.13,505.80
30.27256,475.60,507.69
30.29152,478.27,514.64
30.31211,478.77,515.21
30.33155,478.18,520.89
30.35082,477.85,525.60
30.37221,474.23,527.01
30.39124,474.29,528.75
30.41163,477.51,529.62
30.43160,478.95,533.98
30.45148,481.03,536.66
30.47154,481.00,536.52
30.49127,480.96,538.96
30.51271,479.08,538.98
30.53264,481.85,537.27
30.55143,480.45,539.11
30.57264,481.30,541.26
30.59225,479.77,539.42
30.61188,479.14,539.48
30.63126,479.49,542.29
30.65184,482.62,539.12
30.67165,481.27,541.90
30.69232,482.39,539.91
30.71253,480.84,542.86
30.73218,477.63,545.68
30.75320,478.29,543.50
30.77223,478.84,547.27
30.79375,482.33,546.60
30.81314,482.63,543.86
30.83320,480.47,544.79
30.85174,482.39,547.19
30.87189,483.73,542.83
30.89428,485.04,545.10
30.91448,485.98,543.56
30.93331,485.45,546.46
30.95358,484.49,543.25
30.97378,485.43,546.24
30.99297,487.54,545.48
31.01422,486.41,544.19
31.03418,488.37,544.89
31.05404,486.47,547.23
31.07368,485.62,546.10
31.09398,487.64,545.78
31.11328,486.76,545.03
31.13426,485.46,547.67
31.15440,486.30,548.94
31.17386,486.42,548.42
31.19278,484.80,547.31
31.21402,487.43,546.97
31.23334,485.07,548.10
31.25479,488.24,547.95
31.27579,490.19,549.05
31.29430,489.85,548.34
31.31557,488.92,546.61
31.33404,491.33,548.86
31.35396,487.66,548.71
31.37437,490.34,551.93
31.39392,489.92,549.59
31.41432,490.29,550.56
31.43511,491.87,551.39
31.45382,491.15,549.50
31.47382,492.77,549.26
31.49523,494.34,548.71
31.51522,491.80,550.30
31.53534,491.88,552.34
31.55383,494.16,551.03
31.57523,494.81,551.71
31.59457,490.12,551.08
31.61503,491.23,553.88
31.63392,490.47,553.36
31.65456,489.84,554.36
31.67471,492.16,553.07
31.69435,491.22,555.35
31.71442,491.18,553.67
31.73424,489.51,553.06
31.75483,489.54,553.42
31.77546,492.19,552.31
31.79648,491.61,552.12
31.81510,493.06,550.00
31.83546,492.84,552.43
31.85602,493.56,552.76
31.87534,493.33,552.69
31.89531,493.50,548.15
31.91546,494.94,551.70
31.93521,493.62,552.97
31.95492,493.11,550.42
31.97638,494.55,549.26
31.99524,494.77,552.20
32.01578,496.49,553.67
32.03644,497.57,551.19
32.05468,498.25,554.10
32.07559,495.76,555.13
32.09631,495.63,551.27
32.11596,495.07,551.18
32.13537,498.64,552.99
32.15583,498.74,551.58
32.17584,499.09,549.45
32.19620,500.49,550.42
32.21524,500.78,548.85
32.23663,497.90,549.02
32.25526,498.88,548.21
32.27579,498.94,547.96
32.29625,496.66,548.17
32.31582,496.93,550.15
32.33547,497.31,548.42
32.35564,497.95,550.88
32.37463,495.07,550.51
32.39619,497.58,549.18
32.41601,494.52,551.22
32.43593,494.16,550.15
32.45648,496.41,548.48
32.47577,496.21,549.72
32.49560,495.56,547.96
32.51660,495.90,550.20
32.53625,496.33,549.67
32.55603,500.16,550.03
32.57641,498.18,547.80
32.59549,498.24,551.14
32.61504,497.35,550.55
32.63607,498.74,552.53
32.65652,497.09,552.22
32.67623,497.74,552.50
32.69528,496.88,549.64
32.71477,498.57,552.33
32.73621,495.92,549.73
32.75602,496.22,549.33
32.77655,498.31,549.92
32.79647,500.20,551.32
32.81604,500.14,551.10
32.83637,498.33,552.80
32.85534,498.70,553.84
32.87541,499.06,553.11
32.89633,500.55,550.37
32.91546,499.80,548.44
32.93465,501.42,548.51
32.95588,497.94,548.92
32.97683,501.48,549.94
32.99656,498.61,548.51
33.01735,498.98,547.79
33.03678,499.57,546.92
33.05616,503.01,544.22
33.07702,502.84,545.37
33.09743,504.20,545.78
33.11696,503.47,547.91
33.13679,503.02,559.96
33.15814,501.29,587.37
33.17737,502.77,616.98
33.19717,505.86,640.35
33.21671,507.26,661.18
33.23728,506.99,670.36
33.25723,509.45,670.26
33.27693,508.82,668.11
33.29839,506.84,662.41
33.31814,506.47,654.73
33.33840,507.54,643.73
33.35867,507.92,638.55
33.37776,507.30,627.54
33.39867,509.45,626.11
33.41680,508.91,619.40
33.43795,508.72,619.66
33.45803,505.57,610.52
33.47778,505.74,606.71
33.49809,504.84,607.73
33.51823,504.87,605.20
33.53773,505.48,608.00
33.55744,506.46,600.23
33.57676,506.45,598.44
33.59818,506.31,595.15
33.61729,505.26,590.94
33.63823,505.25,585.87
33.65859,503.10,580.51
33.67795,504.41,579.65
33.69683,504.78,574.35
33.71787,505.49,568.36
33.73767,503.94,569.32
33.75819,503.25,568.80
33.77747,504.80,568.94
33.79820,502.89,572.05
33.81865,506.00,586.61
33.83669,506.79,601.79
33.85758,509.25,606.25
33.87860,511.78,596.25
33.89857,508.44,564.29
33.91729,506.91,522.81
33.93696,503.56,481.47
33.95797,501.19,453.95
33.97706,497.38,429.42
33.99888,497.89,419.36
34.01859,495.46,416.31
34.03780,496.42,420.39
34.05860,496.54,423.45
34.07988,494.49,430.87
34.10017,492.53,437.81
34.11853,492.73,448.54
34.13994,493.64,456.65
34.16045,491.58,467.20
34.18056,491.10,472.82
34.19936,490.50,480.11
34.21879,493.10,488.80
34.24030,490.61,493.98
34.25868,492.82,501.28
34.27920,493.85,504.86
34.29945,497.08,507.36
34.32000,497.87,515.96
34.33949,496.72,518.87
34.35954,494.04,524.13
34.38025,495.55,528.71
34.39990,492.96,533.38
34.42063,493.82,533.54
34.44190,493.89,535.77
34.46066,493.08,540.26
34.48179,491.15,540.29
34.50169,493.21,540.42
34.52108,493.22,540.43
34.54194,490.26,540.75
34.56300,487.79,542.59
34.58152,489.93,543.39
34.60156,487.38,544.30
34.62177,486.87,549.11
34.64169,487.58,546.44
34.66309,485.82,549.60
34.68197,485.60,547.41
34.70161,486.70,549.85
34.72329,485.45,550.73
34.74181,487.66,548.27
34.76216,487.33,550.08
34.78333,486.38,549.92
34.80211,487.09,552.34
34.82324,490.30,554.15
34.84425,489.18,554.89
34.86282,487.43,553.05
34.88432,486.48,554.99
34.90402,488.39,555.10
34.92291,482.92,554.46
34.94243,482.89,552.76
34.96294,483.09,553.47
34.98346,483.53,552.28
35.00389,482.42,554.00
35.02442,483.68,554.50
35.04338,482.75,554.14
35.06310,484.14,554.16
35.08362,485.21,553.76
35.10332,486.89,552.06
35.12378,486.20,554.41
35.14378,484.20,553.05
35.16515,485.76,549.70
35.18480,483.40,553.18
35.20631,483.66,553.20
35.22746,485.76,548.85
35.24561,484.53,549.31
35.26627,483.59,550.44
35.28736,485.15,549.89
35.30695,480.76,551.65
35.32716,482.58,549.73
35.34698,480.30,549.61
35.36703,480.91,548.22
35.38705,480.57,545.30
35.40590,479.24,547.08
35.42713,481.60,545.84
35.44621,480.95,547.08
35.46618,482.79,544.80
35.48630,483.39,544.48
35.50620,482.42,544.61
35.52675,482.84,546.16
35.54748,483.35,547.98
35.56644,480.89,547.93
35.58820,481.55,549.82
35.60725,482.45,549.70
35.62733,482.33,549.23
35.64828,480.62,549.01
35.66752,480.77,547.76
35.68801,482.93,546.43
35.70670,481.72,546.53
35.72722,482.38,549.70
35.74746,484.34,547.77
35.76863,484.62,547.26
35.78774,484.14,549.54
35.80969,484.87,548.45
35.82880,481.87,550.69
35.84957,481.15,548.51
35.86816,480.67,545.38
35.88756,482.59,548.31
35.90950,486.31,548.91
35.92946,483.74,548.07
35.94984,486.93,546.61
35.96927,487.43,550.48
35.98955,486.47,547.63
36.00993,489.39,547.46
36.02904,485.88,549.60
36.05003,489.74,547.49
36.07002,488.36,547.34
36.08878,487.51,546.75
36.11020,487.85,548.28
36.12917,490.83,548.55
36.15013,492.14,549.83
36.16891,490.80,547.79
36.18926,489.03,548.23
36.21013,490.13,547.48
36.22870,492.01,546.10
36.25054,491.22,547.56
36.26983,492.28,545.97
36.29001,493.32,550.26
36.30908,493.05,548.77
36.32876,494.03,548.64
36.35013,492.94,551.37
36.37011,491.71,548.91
36.39018,491.37,552.45
36.40967,493.57,549.14
36.42860,492.77,551.06
36.44996,492.20,550.83
36.46925,494.19,550.88
36.48882,490.82,548.98
36.50940,491.43,550.55
36.53033,490.31,548.61
36.55002,490.43,546.02
36.56914,487.49,548.75
36.58877,489.00,547.48
36.60912,486.52,549.06
36.63023,487.45,547.36
36.64977,491.64,545.68
36.67071,490.54,547.17
36.69069,492.64,544.43
36.71041,492.20,546.06
36.73018,494.77,548.46
36.75052,493.63,547.11
36.77146,493.03,547.30
36.79121,493.85,547.98
36.81070,494.17,545.76
36.83070,495.13,547.23
36.85071,495.67,547.93
36.86970,495.68,547.73
36.89118,493.28,549.46
36.91150,492.23,548.58
36.93000,493.94,548.46
36.95135,494.72,547.68
36.96941,495.25,548.86
36.99030,494.97,547.93
37.01129,494.36,550.83
37.03109,494.74,550.31
37.05209,495.43,550.76
37.07102,493.86,551.20
37.09256,493.41,551.23
37.11041,495.35,550.26
37.13210,495.82,548.87
37.15216,497.00,551.36
37.17122,497.17,551.09
37.19056,499.21,550.98
37.21119,499.83,550.41
37.23220,498.83,548.34
37.25205,500.57,548.52
37.27230,501.21,547.95
37.29122,499.75,547.48
37.31226,498.80,550.30
37.33217,499.95,547.43
37.35198,502.64,550.45
37.37231,499.86,551.11
37.39159,500.95,550.57
37.41243,498.76,548.53
37.43167,498.79,548.20
37.45064,501.27,545.68
37.47200,500.70,548.22
37.49104,501.64,547.90
37.51214,502.45,544.14
37.53243,501.24,554.29
37.55199,500.38,573.51
37.57228,498.44,593.43
37.59083,496.59,616.56
37.61144,492.47,633.66
37.63238,491.85,646.60
37.65103,487.52,649.58
37.67253,489.78,649.97
37.69159,490.29,645.75
37.71177,490.31,644.53
37.73153,493.79,637.95
37.75229,495.15,633.47
37.77053,498.64,627.78
37.79218,501.08,618.15
37.81295,502.11,616.68
37.83153,505.93,613.12
37.85204,506.87,608.09
37.87164,507.77,603.27
37.89221,512.43,603.91
37.91173,510.60,603.28
37.93111,513.62,598.32
37.95182,515.29,597.01
37.97145,512.41,593.06
37.99135,512.75,591.42
38.01232,512.79,582.34
38.03164,508.67,579.25
38.05155,509.83,575.49
38.07161,509.54,575.69
38.09158,507.52,568.98
38.11143,506.28,569.05
38.13188,509.43,564.29
38.15136,506.67,564.49
38.17204,506.29,564.95
38.19287,504.32,573.82
38.21166,505.60,580.80
38.23185,507.14,585.96
38.25351,506.82,575.69
38.27279,499.95,545.37
38.29304,499.00,506.13
38.31260,495.40,469.62
38.33187,496.63,439.53
38.35214,496.67,420.03
38.37291,495.65,412.25
38.39332,496.88,409.82
38.41328,494.31,412.86
38.43161,494.50,418.66
38.45266,493.12,427.42
38.47282,496.33,435.39
38.49264,493.72,446.24
38.51313,493.56,454.59
38.53301,498.01,466.00
38.55199,498.16,474.05
38.57255,496.50,482.35
38.59209,498.07,489.99
38.61248,497.66,499.48
38.63226,499.33,508.73
38.65275,501.89,514.04
38.67230,500.80,518.73
38.69268,503.70,522.32
38.71253,502.49,530.09
38.73171,504.04,532.04
38.75293,500.42,534.87
38.77182,503.25,535.38
38.79321,501.43,541.15
38.81241,500.57,540.80
38.83196,502.18,542.91
38.85208,503.05,546.40
38.87305,503.63,548.71
38.89255,505.68,546.27
38.91370,502.94,547.82
38.93175,503.44,549.47
38.95153,504.50,551.96
38.97186,503.40,552.71
38.99262,504.87,551.02
39.01205,505.77,552.60
39.03298,502.47,554.93
39.05319,502.70,552.18
39.07323,500.35,551.26
39.09325,502.35,554.49
39.11285,499.83,553.44
39.13239,503.15,553.56
39.15163,501.12,551.34
39.17168,503.00,554.58
39.19270,500.60,552.34
39.21277,501.97,555.02
39.23276,502.11,553.15
39.25205,501.94,553.79
39.27255,498.43,556.90
39.29146,500.04,553.93
39.31275,498.96,555.85
39.33252,501.90,556.75
39.35336,501.56,555.96
39.37287,500.68,553.42
39.39318,499.88,552.06
39.41291,499.11,552.99
39.43304,499.39,553.26
39.45547,500.88,554.81
39.47509,497.90,554.49
39.49459,497.74,554.46
39.51365,496.07,552.05
39.53395,498.04,553.77
39.55490,499.24,554.30
39.57475,497.98,551.82
39.59526,499.56,554.92
39.61413,498.77,551.44
39.63491,497.74,553.23
39.65510,501.30,553.25
39.67506,499.84,553.05
39.69502,498.33,551.58
39.71475,497.96,551.11
39.73536,498.68,552.01
39.75654,497.64,548.94
39.77439,496.35,551.47
39.79504,498.77,550.39
39.81601,498.91,549.86
39.83644,495.51,549.83
39.85511,498.69,548.31
39.87490,496.80,550.98
39.89515,498.80,552.14
39.91582,497.49,552.11
39.93520,497.02,550.59
39.95607,494.22,551.39
39.97615,493.65,551.62
39.99630,494.33,549.99
40.01565,495.14,552.78
40.03467,496.58,552.54
40.05590,494.20,551.36
40.07554,496.71,551.30
40.09586,495.28,553.29
40.11617,494.97,553.44
40.13634,495.80,555.26
40.15533,497.08,553.48
40.17534,494.33,552.87
40.19464,496.29,554.55
40.21536,496.49,551.65
40.23528,498.36,553.72
40.25431,495.52,554.69
40.27577,498.60,556.28
40.29492,496.03,555.15
40.31578,496.43,554.29
40.33563,495.26,555.19
40.35502,498.72,554.12
40.37576,496.75,555.06
40.39625,498.31,554.09
40.41459,498.81,554.24
40.43556,496.28,554.35
40.45622,496.72,550.80
40.47603,494.39,549.99
40.49588,494.55,549.84
40.51556,493.48,549.62
40.53567,494.49,551.91
40.55454,496.04,551.43
40.57480,493.33,548.47
40.59536,492.71,552.02
40.61477,492.41,547.53
40.63467,493.12,549.06
40.65587,496.06,549.86
40.67602,495.56,547.81
40.69614,493.08,549.62
40.71490,495.20,550.98
40.73523,493.40,552.34
40.75564,494.96,552.29
40.77598,491.91,549.26
40.79645,493.41,550.90
40.81460,492.49,549.12
40.83477,489.86,549.76
40.85463,492.79,548.85
40.87476,493.76,549.39
40.89656,490.22,547.77
40.91562,487.58,547.91
40.93717,487.18,551.95
40.95746,489.95,550.62
40.97693,488.78,551.28
40.99818,486.53,550.17
41.01760,485.86,552.31
41.03754,485.20,550.92
41.05649,487.81,554.46
41.07769,487.06,553.82
41.09839,486.13,552.11
41.11674,484.62,552.81
41.13721,483.28,553.77
41.15743,484.67,552.00
41.17726,482.31,552.59
41.19737,483.82,552.49
41.21799,483.69,553.24
41.23840,484.63,550.27
41.25712,485.67,551.52
41.27754,485.24,552.20
41.29693,484.17,552.44
41.31848,484.06,553.71
41.33760,484.42,554.14
41.35759,484.68,551.84
41.37745,483.05,550.46
41.39802,482.57,550.04
41.41743,482.93,552.76
41.43800,482.10,552.41
41.45729,486.06,551.44
41.47664,484.61,552.26
41.49789,486.80,550.48
41.51702,483.96,555.05
41.53792,484.96,553.56
41.55736,485.74,555.12
41.57754,483.24,553.49
41.59657,483.65,550.68
41.61792,483.66,550.35
41.63801,483.28,549.37
41.65826,483.94,550.92
41.67830,483.78,546.58
41.69807,480.75,549.76
41.71927,482.07,547.89
41.73891,480.67,557.76
41.76038,482.58,575.89
41.78106,482.49,595.73
41.80125,484.35,624.96
41.81969,487.78,647.36
41.84125,484.43,663.09
41.85986,484.46,663.89
41.88076,483.23,666.91
41.90136,480.47,662.38
41.92090,479.97,651.87
41.94057,481.94,642.68
41.95990,480.89,634.60
41.98142,484.43,623.55
41.99995,484.17,619.02
42.01978,483.20,613.24
42.04056,483.35,608.42
42.05971,486.96,604.07
42.08206,486.66,602.19
42.10093,489.57,596.45
42.12112,491.08,593.10
42.14131,487.55,591.15
42.16047,488.76,587.65
42.18051,485.11,585.12
42.20120,485.51,581.16
42.22219,483.08,575.12
42.24205,482.23,575.56
42.26197,481.40,568.75
42.28157,484.02,567.00
42.30203,483.89,564.35
42.32056,484.91,563.48
42.34109,483.56,562.05
42.36200,482.53,558.19
42.38096,481.16,547.55
42.40155,475.80,521.23
42.42110,474.59,491.92
42.44065,472.20,456.31
42.46096,472.31,435.41
42.48217,473.07,419.05
42.50115,471.96,418.52
42.52132,474.10,422.36
42.54156,476.37,426.17
42.56042,474.93,435.34
42.58065,476.06,444.14
42.60125,477.98,456.44
42.62094,476.10,467.37
42.64177,475.94,475.93
42.66058,476.44,482.14
42.68157,477.91,492.64
42.70084,478.69,497.26
42.72151,478.74,502.49
42.74051,477.59,510.14
42.76045,480.50,515.43
42.78166,479.12,520.27
42.80195,483.46,524.82
42.82159,483.96,526.34
42.84147,482.49,531.06
42.86160,485.12,532.98
42.88064,482.43,535.11
42.90102,482.49,536.17
42.92152,482.06,537.86
42.94095,484.30,539.15
42.96158,483.43,542.99
42.98227,482.96,543.68
43.00228,480.57,545.06
43.02103,480.98,542.15
43.04139,483.50,543.28
43.06210,482.70,544.86
43.08148,482.80,543.47
43.10131,483.36,545.97
43.12207,484.42,547.67
43.14098,484.10,544.88
43.16052,483.73,541.98
43.18134,486.30,540.66
43.20212,487.89,540.26
43.22111,487.35,542.86
43.24121,486.16,543.22
43.26069,483.78,543.41
43.28098,485.30,542.56
43.30191,486.47,542.54
43.32077,485.17,546.13
43.34097,484.69,543.95
43.36124,486.46,546.59
43.38226,487.84,547.08
43.40229,488.62,546.16
43.42161,486.77,548.67
43.44319,486.57,549.41
43.46309,488.14,547.38
43.48130,487.01,546.80
43.50296,487.31,548.85
43.52238,486.51,549.11
43.54214,486.69,548.52
43.56316,490.65,546.58
43.58252,489.71,546.86
43.60252,493.08,544.99
43.62296,491.82,545.81
43.64251,491.64,548.80
43.66363,494.04,548.80
43.68436,494.19,548.85
43.70385,492.89,545.70
43.72363,492.59,545.16
43.74257,493.07,547.96
43.76315,493.60,543.42
43.78409,491.57,543.42
43.80326,490.79,543.81
43.82267,494.46,543.97
43.84295,492.16,544.01
43.86291,492.80,547.80
43.88343,493.79,546.84
43.90421,495.11,549.80
43.92435,492.91,548.76
43.94326,493.93,553.97
43.96273,494.98,559.97
43.98316,498.94,569.10
44.00336,500.30,581.20
44.02290,506.41,592.74
44.04358,505.14,600.60
44.06329,503.69,602.15
44.08339,503.69,593.74
44.10236,502.72,585.31
44.12399,501.89,570.02
44.14384,501.57,553.22
44.16543,498.57,532.48
44.18540,494.07,516.09
44.20438,489.08,506.37
44.22467,487.97,498.40
44.24349,489.68,496.88
44.26407,487.93,501.72
44.28509,489.74,526.28
44.30491,493.51,560.55
44.32395,495.83,590.19
44.34509,495.48,609.86
44.36521,495.17,609.13
44.38455,491.46,600.48
44.40322,482.83,582.74
44.42511,476.26,563.41
44.44502,477.01,544.96
44.46370,476.04,531.77
44.48371,475.61,520.08
44.50416,477.12,510.89
44.52359,477.15,507.91
44.54504,478.94,512.39
44.56419,482.08,522.38
44.58478,483.86,544.01
44.60359,489.09,572.75
44.62382,492.25,595.38
44.64440,496.96,611.54
44.66483,498.49,621.84
44.68371,503.11,626.45
44.70513,509.42,632.32
44.72411,514.98,639.68
44.74445,520.25,640.10
44.76365,526.20,634.19
44.78487,528.22,630.62
44.80501,530.21,620.18
44.82528,527.85,603.51
44.84466,521.39,579.14
44.86453,518.97,543.16
44.88420,508.90,507.09
44.90480,496.56,471.65
44.92454,487.18,438.90
44.94482,477.84,416.58
44.96323,471.40,398.79
44.98434,465.48,389.91
45.00426,467.05,393.24
45.02437,466.13,399.86
45.04452,467.31,410.77
45.06510,472.67,422.43
45.08395,478.18,437.99
45.10381,479.92,450.53
45.12499,482.89,466.37
45.14491,489.98,479.34
45.16524,493.75,493.16
45.18528,499.16,506.65
45.20395,503.80,529.47
45.22479,516.90,562.49
45.24393,539.20,598.82
45.26484,564.39,629.04
45.28345,588.05,651.70
45.30403,604.32,656.82
45.32385,610.54,660.39
45.34429,612.14,657.27
45.36445,611.09,652.93
45.38485,602.95,645.60
45.40360,590.32,642.55
45.42545,581.57,639.07
45.44357,569.93,632.26
45.46531,553.43,609.82
45.48440,535.91,576.86
45.50546,515.78,551.09
45.52383,501.41,526.62
45.54382,491.19,506.11
45.56371,484.88,493.69
45.58369,479.89,489.12
45.60398,474.34,483.98
45.62538,472.47,481.52
45.64339,472.52,485.36
45.66377,474.87,486.22
45.68519,475.66,490.50
45.70350,475.17,494.63
45.72482,476.73,499.60
45.74327,486.75,503.04
45.76493,492.23,506.22
45.78523,496.79,511.35
45.80409,499.23,511.26
45.82519,498.82,518.42
45.84357,503.63,520.24
45.86518,504.16,525.69
45.88409,505.43,528.73
45.90355,510.35,525.00
45.92365,507.79,523.87
45.94381,510.80,523.00
45.96426,513.26,520.45
45.98481,510.22,522.64
46.00488,509.30,523.19
46.02487,505.92,526.24
46.04351,509.45,526.51
46.06430,508.72,533.13
46.08395,508.51,541.97
46.10535,503.04,539.66
46.12314,502.19,537.27
