Program Time [s],data 0,data 1
5.30157,507.48,540.30
5.32156,511.37,540.70
5.34122,511.41,538.09
5.36164,512.15,540.02
5.38078,512.18,539.85
5.40236,511.23,539.62
5.42109,513.10,540.19
5.44169,512.35,537.74
5.46047,513.73,539.08
5.48158,510.61,541.48
5.50176,511.62,542.88
5.52063,512.00,544.53
5.54176,507.43,544.16
5.56144,505.29,545.14
5.58077,504.88,545.19
5.60196,505.14,545.50
5.62095,503.58,543.73
5.64116,503.13,543.73
5.66179,502.01,546.00
5.68081,502.40,546.09
5.70110,503.04,544.34
5.72077,504.12,547.71
5.74140,506.93,548.86
5.76053,506.05,549.10
5.78078,505.91,549.50
5.80192,508.55,549.47
5.82165,507.08,551.29
5.84063,508.58,551.30
5.86082,506.29,551.36
5.88172,511.54,550.68
5.90142,512.20,549.59
5.92072,512.59,549.37
5.94096,511.47,551.71
5.96180,510.47,550.32
5.98235,512.81,548.39
6.00050,512.96,547.91
6.02036,515.12,550.03
6.04091,513.70,550.24
6.06043,516.37,550.52
6.08045,513.66,551.00
6.10180,513.62,551.09
6.12036,511.80,551.95
6.14093,513.39,554.52
6.16147,510.30,554.78
6.18124,511.89,552.08
6.20130,509.32,551.04
6.22230,512.18,552.93
6.24095,512.17,551.41
6.26119,512.97,552.27
6.28200,510.50,551.84
6.30089,514.62,553.91
6.32040,512.57,553.69
6.34205,515.17,554.64
6.36196,516.43,553.92
6.38233,512.89,554.73
6.40092,513.12,553.18
6.42177,511.64,550.71
6.44141,515.50,552.31
6.46179,515.54,554.11
6.48112,514.26,550.84
6.50049,514.43,552.50
6.52171,514.36,552.37
6.54172,512.64,553.85
6.56202,513.50,553.98
6.58120,514.53,554.80
6.60041,513.93,550.91
6.62145,515.70,560.24
6.64065,520.56,590.45
6.66195,523.33,626.00
6.68208,525.18,665.42
6.70223,527.81,695.21
6.72039,528.94,702.19
6.74119,526.60,700.32
6.76088,521.24,694.52
6.78143,520.21,681.01
6.80173,515.26,667.60
6.82098,514.93,653.34
6.84191,515.06,634.51
6.86100,515.45,628.66
6.88138,515.63,617.32
6.90211,513.65,606.41
6.92045,514.44,598.93
6.94116,512.52,594.34
6.96216,513.24,589.39
6.98200,512.13,581.62
7.00078,516.92,575.62
7.02118,517.38,571.42
7.04053,520.27,571.84
7.06192,518.98,567.62
7.08153,518.86,561.77
7.10257,520.59,562.65
7.12193,517.91,563.40
7.14163,519.06,565.75
7.16286,521.13,563.69
7.18217,519.86,561.47
7.20143,521.07,560.61
7.22212,519.06,559.06
7.24178,518.18,559.69
7.26323,522.59,554.34
7.28316,522.11,554.48
7.30183,520.83,552.30
7.32240,523.10,557.11
7.34189,523.04,569.83
7.36261,526.96,585.55
7.38374,530.12,585.83
7.40346,527.99,562.96
7.42243,526.84,523.16
7.44257,526.67,484.31
7.46293,521.84,453.01
7.48357,521.18,435.59
7.50237,516.77,424.08
7.52256,518.20,421.80
7.54224,515.42,423.85
7.56389,517.65,428.48
7.58387,520.19,435.01
7.60451,517.32,442.25
7.62527,521.03,451.47
7.64480,520.59,459.68
7.66426,520.84,467.18
7.68454,522.42,477.07
7.70511,524.78,484.36
7.72484,524.97,494.46
7.74405,525.15,500.57
7.76373,525.48,504.50
7.78519,527.86,510.91
7.80472,523.87,516.00
7.82339,527.51,520.10
7.84517,528.82,523.58
7.86543,527.18,528.54
7.88334,529.80,534.38
7.90496,529.03,535.76
7.92405,528.53,538.33
7.94491,527.71,541.29
7.96552,529.52,541.14
7.98661,528.11,545.13
8.00680,528.20,546.33
8.02669,528.99,549.84
8.04718,528.84,550.21
8.06706,530.19,553.39
8.08571,526.93,551.98
8.10546,530.73,554.19
8.12549,528.46,556.94
8.14635,528.38,557.08
8.16674,524.66,551.96
8.18609,525.72,553.43
8.20582,527.45,552.86
8.22723,524.30,555.59
8.24629,521.99,555.37
8.26576,524.76,554.06
8.28537,521.29,556.63
8.30692,523.14,554.10
8.32563,526.43,558.13
8.34654,526.05,553.82
8.36613,526.88,554.93
8.38699,526.63,552.82
8.40706,529.30,555.83
8.42520,528.39,555.13
8.44707,526.88,551.17
8.46530,527.29,554.26
8.48736,523.57,552.23
8.50738,524.88,551.51
8.52618,522.23,548.55
8.54890,521.00,550.31
8.56860,518.84,552.65
8.58797,521.76,553.25
8.60723,521.37,555.27
8.62907,520.48,554.75
8.64780,521.69,553.38
8.66875,524.37,554.23
8.68867,522.20,553.01
8.70844,520.91,551.26
8.72767,523.46,552.14
8.74765,522.13,554.39
8.76898,522.97,553.89
8.78845,522.10,552.02
8.80815,520.64,551.23
8.82908,523.35,554.11
8.84877,519.45,551.88
8.86776,518.04,551.40
8.88887,518.96,553.11
8.90879,521.80,551.87
8.92897,517.73,553.04
8.94879,520.97,551.61
8.96818,518.93,552.80
8.98743,520.09,554.16
9.00830,520.36,552.97
9.02802,521.21,555.38
9.04823,521.52,554.25
9.06824,519.61,555.59
9.08754,518.98,552.56
9.10743,521.38,554.75
9.12854,519.88,554.43
9.14981,518.34,552.57
9.16898,518.00,555.35
9.19014,518.82,553.71
9.20922,515.65,552.43
9.22879,515.09,554.26
9.24903,517.53,551.49
9.26891,517.19,552.86
9.29019,517.03,552.88
9.30936,515.47,551.90
9.32885,512.64,553.22
9.34960,515.52,554.04
9.36967,514.29,552.09
9.38875,512.88,549.98
9.40943,513.61,553.54
9.43022,514.36,549.82
9.45017,512.31,548.74
9.46908,512.74,551.33
9.48984,513.00,550.23
9.51013,514.83,551.13
9.52978,513.71,549.43
9.54934,512.18,548.68
9.56945,515.30,548.02
9.58914,513.00,551.10
9.60885,514.32,551.13
9.62926,515.22,551.35
9.64841,514.04,549.33
9.67013,513.57,545.98
9.68977,512.79,547.00
9.71005,512.77,547.52
9.73012,511.63,550.44
9.75002,508.66,549.37
9.76928,510.21,548.31
9.78935,508.45,547.32
9.80873,512.46,550.11
9.82930,513.50,560.99
9.84989,512.89,587.05
9.86837,513.63,614.52
9.88940,514.32,643.08
9.90913,516.77,658.73
9.92848,518.77,663.96
9.94886,521.09,664.84
9.96928,519.25,659.09
9.98911,521.80,646.64
10.01007,518.93,638.53
10.02868,517.63,624.99
10.04958,518.88,618.04
10.07071,514.91,602.26
10.09070,514.38,602.38
10.11035,508.99,596.64
10.13113,508.31,591.87
10.15081,506.80,584.00
10.17090,507.97,579.16
10.19043,506.98,572.88
10.21153,505.99,572.98
10.23145,507.91,567.39
10.25053,507.82,568.63
10.27215,507.32,567.08
10.29071,507.86,564.06
10.31146,505.59,565.46
10.33129,509.72,569.76
10.35094,509.18,574.86
10.37099,508.90,573.57
10.39022,512.02,575.07
10.41051,510.63,573.66
10.43038,506.99,573.52
10.45051,507.95,571.94
10.47142,508.56,568.11
10.49220,507.61,565.13
10.51083,506.80,561.68
10.53135,507.07,560.79
10.55032,506.93,562.35
10.57186,507.99,558.73
10.59130,510.36,560.12
10.61134,508.25,564.54
10.63181,508.86,571.69
10.65091,504.25,569.81
10.67092,504.09,544.97
10.69202,499.42,507.04
10.71048,492.54,468.99
10.73136,494.53,438.01
10.75138,491.43,421.80
10.77118,491.70,419.13
10.79103,490.89,417.46
10.81018,491.51,419.21
10.83052,493.37,428.18
10.85042,494.33,435.20
10.87066,495.38,445.71
10.89038,497.85,454.40
10.91206,501.60,462.95
10.93195,502.75,474.52
10.95085,503.39,482.44
10.97177,502.36,487.61
10.99213,503.67,497.01
11.01062,506.41,502.13
11.03061,507.98,507.34
11.05203,506.94,513.30
11.07107,507.48,518.31
11.09152,509.15,525.23
11.11074,509.95,529.50
11.13165,508.14,533.42
11.15110,510.93,535.01
11.17150,508.10,534.69
11.19090,507.60,539.28
11.21196,508.86,537.94
11.23032,504.30,541.94
11.25085,504.70,543.25
11.27123,508.95,543.50
11.29037,504.75,545.89
11.31120,504.14,545.37
11.33123,503.89,547.39
11.35124,505.45,547.59
11.37233,506.59,548.72
11.39281,505.30,545.73
11.41147,507.18,547.43
11.43260,507.21,544.81
11.45142,506.20,544.62
11.47210,504.85,544.62
11.49310,502.78,544.00
11.51225,503.51,544.29
11.53144,506.57,544.07
11.55166,507.20,543.32
11.57208,506.27,545.05
11.59274,506.00,547.40
11.61322,506.58,548.12
11.63278,508.00,549.51
11.65216,504.91,552.71
11.67292,507.52,552.50
11.69149,505.08,553.42
11.71314,507.63,553.44
11.73294,504.76,549.03
11.75115,505.07,549.41
11.77178,504.60,551.81
11.79321,505.38,547.94
11.81245,506.86,547.49
11.83146,506.18,545.78
11.85196,507.98,547.59
11.87280,508.56,547.68
11.89199,507.25,546.42
11.91226,505.04,544.86
11.93184,505.32,548.28
11.95195,505.97,549.10
11.97206,505.66,546.87
11.99271,504.48,546.93
12.01316,507.91,547.47
12.03261,507.03,547.03
12.05311,503.90,543.94
12.07225,508.81,543.51
12.09130,506.23,542.69
12.11264,508.55,544.10
12.13256,506.42,545.02
12.15250,508.52,545.47
12.17135,507.29,545.20
12.19126,506.55,546.99
12.21262,505.20,548.40
12.23258,505.25,550.84
12.25159,507.21,551.84
12.27301,506.70,551.50
12.29125,508.71,549.27
12.31218,509.69,552.57
12.33220,507.31,548.71
12.35175,507.22,550.38
12.37244,508.72,547.30
12.39261,507.20,547.81
12.41169,506.92,547.92
12.43159,507.68,549.34
12.45311,505.60,549.79
12.47120,507.40,547.38
12.49309,507.56,548.59
12.51221,508.22,544.96
12.53226,508.07,548.03
12.55201,508.53,549.31
12.57128,509.99,546.98
12.59142,509.30,544.21
12.61142,507.94,543.58
12.63277,508.09,544.36
12.65112,509.60,544.72
12.67280,509.82,545.28
12.69153,507.73,542.56
12.71107,506.41,542.02
12.73294,506.58,545.27
12.75279,505.73,545.70
12.77217,506.01,544.54
12.79300,507.88,546.33
12.81293,509.45,544.46
12.83304,508.34,546.01
12.85269,507.38,544.64
12.87272,509.04,547.16
12.89237,509.09,545.21
12.91199,508.88,548.47
12.93188,509.60,547.81
12.95130,511.52,549.85
12.97159,507.14,552.26
12.99282,507.96,550.57
13.01199,508.45,549.98
13.03329,508.17,549.19
13.05163,506.89,549.28
13.07144,509.04,550.40
13.09212,506.73,548.71
13.11283,508.87,549.06
13.13203,508.86,548.93
13.15296,505.56,550.07
13.17314,507.40,550.76
13.19310,505.98,548.58
13.21185,507.51,549.17
13.23245,508.84,547.55
13.25246,507.44,545.61
13.27123,509.98,544.71
13.29247,510.17,545.56
13.31186,510.64,545.33
13.33287,510.13,546.48
13.35177,511.06,548.19
13.37208,511.14,547.08
13.39174,510.72,546.76
13.41320,511.70,546.71
13.43135,510.33,546.78
13.45246,512.98,549.00
13.47277,509.77,548.53
13.49266,510.82,549.15
13.51134,510.45,548.89
13.53129,513.06,549.90
13.55237,513.03,548.89
13.57236,513.28,549.70
13.59167,513.70,549.73
13.61167,513.84,546.71
13.63143,514.80,545.22
13.65123,514.33,549.00
13.67153,512.68,545.15
13.69317,511.31,548.27
13.71204,514.00,566.88
13.73303,514.01,593.77
13.75277,513.42,629.70
13.77218,518.41,655.12
13.79127,517.92,666.26
13.81203,518.85,682.23
13.83147,517.04,678.98
13.85142,517.96,675.87
13.87242,517.54,673.73
13.89195,516.97,669.26
13.91126,520.05,658.12
13.93176,518.89,648.94
13.95219,516.59,638.50
13.97197,518.95,631.30
13.99175,516.63,626.61
14.01305,516.35,620.36
14.03199,517.53,609.79
14.05183,519.35,605.70
14.07250,515.90,602.14
14.09162,517.62,597.39
14.11101,516.27,592.80
14.13146,516.22,590.85
14.15199,516.69,587.12
14.17292,515.66,589.84
14.19265,517.24,581.45
14.21277,516.12,577.66
14.23130,515.23,576.53
14.25193,514.20,572.72
14.27255,514.83,568.80
14.29287,515.32,568.38
14.31111,515.69,567.70
14.33193,515.58,560.85
14.35192,515.31,560.78
14.37290,514.60,558.94
14.39193,514.50,559.45
14.41288,513.81,559.34
14.43269,517.64,557.16
14.45220,515.02,556.38
14.47250,514.35,559.57
14.49138,516.51,569.28
14.51244,520.23,574.16
14.53255,521.65,564.48
14.55203,518.34,532.24
14.57202,513.54,489.24
14.59163,510.70,451.98
14.61232,509.60,427.63
14.63309,506.43,418.19
14.65159,506.67,414.94
14.67244,504.64,413.71
14.69256,504.77,420.78
14.71319,504.73,424.64
14.73256,507.78,436.20
14.75165,507.81,445.68
14.77299,510.60,449.93
14.79208,511.97,456.67
14.81246,513.88,462.91
14.83205,512.79,470.58
14.85278,512.77,477.37
14.87236,514.87,486.77
14.89317,513.92,491.80
14.91176,514.16,502.10
14.93234,516.35,505.23
14.95168,515.70,512.85
14.97258,514.58,514.68
14.99165,517.02,519.57
15.01270,519.19,524.66
15.03121,517.34,528.16
15.05284,515.74,532.00
15.07182,519.34,533.61
15.09216,519.48,536.66
15.11179,515.68,539.29
15.13301,518.05,541.17
15.15264,519.27,541.43
15.17278,520.26,544.48
15.19173,517.38,544.55
15.21247,519.89,544.32
15.23188,520.14,547.29
15.25267,520.35,547.35
15.27278,521.13,546.74
15.29201,518.28,544.84
15.31226,520.44,545.31
15.33266,519.36,546.20
15.35215,518.79,545.43
15.37214,521.01,545.07
15.39172,520.47,546.35
15.41293,519.07,547.36
15.43180,522.18,545.68
15.45182,519.55,544.24
15.47120,520.98,544.45
15.49135,521.87,546.75
15.51282,521.64,544.88
15.53122,524.79,546.66
15.55135,520.90,546.68
15.57236,520.24,546.16
15.59202,524.01,545.47
15.61253,523.22,545.47
15.63255,520.00,545.45
15.65295,519.15,545.83
15.67309,520.45,546.11
15.69206,521.30,545.38
15.71264,520.43,550.89
15.73166,524.51,547.70
15.75232,525.05,550.00
15.77288,521.66,549.61
15.79185,525.16,550.59
15.81157,523.90,551.47
15.83176,526.20,550.50
15.85186,524.67,549.44
15.87117,524.34,550.10
15.89189,523.02,551.01
15.91123,526.65,551.13
15.93307,527.27,552.28
15.95271,525.12,549.22
15.97122,526.40,552.51
15.99216,527.50,550.01
16.01131,524.14,550.87
16.03293,521.22,553.46
16.05283,522.78,551.43
16.07258,521.20,551.34
16.09254,519.28,550.34
16.11208,521.25,551.01
16.13256,520.61,547.48
16.15121,522.25,549.37
16.17151,520.44,549.94
16.19305,524.72,550.74
16.21269,523.60,551.57
16.23234,524.52,553.67
16.25232,521.58,551.30
16.27312,522.66,553.14
16.29395,524.80,552.67
16.31308,524.01,552.99
16.33363,523.30,555.45
16.35381,525.37,552.00
16.37321,525.78,553.84
16.39341,527.33,551.78
16.41266,526.31,551.57
16.43379,525.42,554.50
16.45278,526.22,551.43
16.47223,524.77,552.48
16.49332,524.38,550.81
16.51235,524.17,550.05
16.53325,526.02,550.63
16.55275,526.56,551.72
16.57340,527.49,551.16
16.59357,527.71,551.78
16.61362,528.02,551.42
16.63381,528.26,550.60
16.65281,526.09,550.21
16.67389,526.86,552.01
16.69292,525.35,548.06
16.71331,524.73,549.10
16.73359,528.04,548.51
16.75319,527.46,546.51
16.77403,526.33,547.71
16.79278,527.40,547.06
16.81261,525.72,547.99
16.83272,524.30,546.07
16.85339,527.47,548.23
16.87347,528.65,545.43
16.89256,525.49,545.26
16.91304,525.36,545.76
16.93299,526.77,548.24
16.95349,528.17,547.26
16.97394,526.31,547.87
16.99331,525.64,547.91
17.01222,526.46,545.40
17.03315,526.37,546.73
17.05348,525.04,544.41
17.07247,526.78,545.18
17.09277,528.10,546.35
17.11404,524.37,548.45
17.13318,528.00,547.26
17.15367,527.08,548.29
17.17268,527.84,549.76
17.19195,530.04,551.22
17.21334,528.65,550.88
17.23215,530.29,549.11
17.25274,527.28,550.44
17.27316,528.30,550.83
17.29212,528.47,554.17
17.31239,528.37,553.32
17.33404,526.30,550.58
17.35237,527.66,553.13
17.37337,530.06,554.14
17.39194,530.24,553.04
17.41406,526.76,555.24
17.43375,527.24,556.07
17.45263,527.94,552.97
17.47244,527.16,553.66
17.49224,526.91,552.14
17.51304,524.71,553.06
17.53249,528.14,554.95
17.55280,529.65,556.00
17.57390,527.45,559.83
17.59317,529.08,559.08
17.61363,528.54,562.31
17.63356,527.73,565.56
17.65233,530.04,577.44
17.67232,527.72,606.04
17.69261,530.00,636.79
17.71211,534.13,659.90
17.73254,533.43,672.85
17.75387,532.92,673.19
17.77330,533.15,672.80
17.79344,529.33,664.88
17.81384,528.70,653.58
17.83380,527.05,648.46
17.85330,530.92,643.20
17.87289,531.02,640.14
17.89293,532.42,630.14
17.91361,532.48,623.68
17.93308,535.24,615.74
17.95392,533.13,606.19
17.97298,533.58,603.87
17.99369,532.13,596.58
18.01376,531.46,592.19
18.03456,530.40,587.29
18.05438,528.28,585.21
18.07439,527.19,580.36
18.09419,529.20,579.77
18.11488,527.66,577.34
18.13461,527.53,579.34
18.15492,527.57,578.27
18.17420,527.51,574.12
18.19322,528.49,573.27
18.21349,526.64,571.18
18.23353,526.68,571.12
18.25378,525.97,569.24
18.27315,525.28,564.49
18.29387,523.78,563.77
18.31492,525.72,561.32
18.33408,525.14,564.77
18.35335,525.36,564.68
18.37461,526.82,566.48
18.39393,524.75,563.47
18.41423,524.59,562.92
18.43400,525.94,561.79
18.45362,526.38,565.07
18.47444,528.22,567.12
18.49348,525.10,565.42
18.51492,523.11,547.14
18.53387,518.75,513.48
18.55366,515.29,476.50
18.57327,513.27,451.68
18.59481,512.25,435.57
18.61416,510.57,426.79
18.63500,512.45,428.10
18.65442,512.09,430.72
18.67464,511.88,438.04
18.69357,513.64,443.62
18.71497,517.08,454.95
18.73441,517.07,462.76
18.75450,518.88,475.11
18.77479,519.73,481.66
18.79333,522.56,492.67
18.81334,522.96,497.67
18.83429,523.12,504.14
18.85481,524.48,512.73
18.87346,525.40,517.15
18.89575,522.14,520.58
18.91503,523.59,525.34
18.93481,523.81,531.23
18.95431,523.02,531.46
18.97510,524.73,536.31
18.99490,524.09,538.99
19.01453,521.42,540.71
19.03398,521.50,543.26
19.05506,522.92,542.89
19.07465,520.89,543.20
19.09540,523.41,545.54
19.11469,522.40,547.03
19.13462,523.96,547.09
19.15431,520.76,552.84
19.17575,523.36,559.87
19.19564,520.83,561.53
19.21482,523.01,561.38
19.23411,519.80,561.42
19.25518,518.75,560.98
19.27586,522.22,560.34
19.29606,522.11,559.63
19.31529,521.61,558.53
19.33452,521.47,561.11
19.35457,520.31,558.35
19.37540,522.21,558.26
19.39526,520.55,557.53
19.41427,521.65,558.39
19.43598,521.42,558.55
19.45491,518.53,556.68
19.47441,520.94,554.31
19.49399,518.88,553.32
19.51530,520.55,551.63
19.53528,520.37,549.52
19.55524,518.42,549.29
19.57538,519.34,550.36
19.59555,518.37,547.83
19.61515,518.25,549.42
19.63560,519.36,550.13
19.65533,519.34,549.99
19.67538,519.14,549.66
19.69609,518.52,550.15
19.71573,515.15,548.95
19.73420,516.04,549.11
19.75606,513.51,551.00
19.77566,516.08,552.65
19.79536,516.81,551.41
19.81424,515.09,553.35
19.83413,516.87,549.06
19.85579,515.90,544.45
19.87596,517.36,542.03
19.89582,515.46,537.93
19.91433,515.51,539.34
19.93453,515.18,537.88
19.95573,517.19,540.92
19.97584,514.72,540.86
19.99538,515.83,541.72
20.01420,515.56,543.22
20.03681,515.29,541.02
20.05692,514.78,540.52
20.07589,512.86,544.39
20.09553,511.30,544.42
20.11646,512.64,548.38
20.13631,512.91,550.71
20.15619,511.40,551.19
20.17651,510.18,548.55
20.19577,510.67,551.35
20.21495,510.79,551.15
20.23645,513.66,552.76
20.25557,511.12,552.19
20.27541,511.58,550.81
20.29505,511.89,555.24
20.31515,513.71,554.69
20.33692,512.45,553.46
20.35538,510.71,556.37
20.37617,510.86,555.07
20.39653,511.45,553.88
20.41562,510.62,552.99
20.43638,512.87,553.52
20.45683,512.31,551.46
20.47590,512.81,552.73
20.49563,512.38,551.60
20.51689,509.76,551.06
20.53621,509.42,553.93
20.55581,512.95,554.19
20.57518,510.36,551.21
20.59690,512.63,550.68
20.61572,510.05,554.80
20.63511,512.66,550.03
20.65650,511.69,551.08
20.67686,509.32,553.24
20.69535,509.70,552.75
20.71708,508.78,554.26
20.73590,510.80,554.95
20.75691,508.90,553.99
20.77575,510.68,553.92
20.79543,509.56,555.21
20.81509,508.07,556.25
20.83594,511.04,552.20
20.85506,511.16,550.42
20.87590,507.73,549.25
20.89605,508.20,551.90
20.91613,507.74,549.72
20.93654,511.95,548.81
20.95624,510.38,550.28
20.97677,508.76,548.37
20.99600,511.32,549.53
21.01485,509.46,548.43
21.03555,506.60,549.08
21.05579,508.31,547.48
21.07596,509.35,547.48
21.09589,508.19,551.20
21.11649,507.51,552.57
21.13634,509.84,552.85
21.15528,509.00,552.75
21.17615,508.34,554.57
21.19632,507.67,554.59
21.21564,508.76,551.16
21.23507,509.54,551.90
21.25503,506.40,549.33
21.27613,510.07,550.74
21.29510,509.39,553.63
21.31529,507.53,551.49
21.33561,509.77,551.13
21.35510,510.10,550.94
21.37589,510.68,547.77
21.39536,509.81,548.61
21.41664,509.56,548.68
21.43567,507.79,550.15
21.45563,507.95,552.40
21.47628,508.96,549.23
21.49593,509.74,548.53
21.51644,507.28,550.36
21.53602,509.75,550.95
21.55558,509.88,552.03
21.57590,507.66,553.81
21.59596,507.24,551.13
21.61508,506.87,551.30
21.63516,508.32,551.13
21.65658,508.98,552.66
21.67567,512.53,549.42
21.69635,511.85,557.61
21.71697,509.90,576.24
21.73678,507.21,601.41
21.75508,505.41,616.63
21.77521,505.36,639.00
21.79579,505.09,649.67
21.81613,503.26,654.53
21.83614,502.24,654.14
21.85624,502.49,651.70
21.87522,501.69,645.41
21.89649,502.02,636.55
21.91672,503.44,631.67
21.93593,509.24,625.88
21.95550,508.36,613.79
21.97524,510.03,607.94
21.99533,511.50,604.07
22.01555,510.28,594.83
22.03593,513.69,593.69
22.05672,511.45,590.34
22.07561,514.30,585.00
22.09500,515.41,581.08
22.11546,515.10,579.92
22.13522,514.59,578.45
22.15517,514.13,573.21
22.17583,512.94,571.14
22.19591,515.40,573.69
22.21691,512.01,573.88
22.23560,512.25,570.62
22.25592,510.67,571.57
22.27529,509.28,572.34
22.29525,508.74,570.80
22.31521,509.80,565.68
22.33671,510.06,568.49
22.35549,509.60,566.64
22.37601,511.81,567.90
22.39493,510.64,566.66
22.41535,508.44,565.37
22.43622,508.72,564.81
22.45666,508.94,577.83
22.47535,509.69,587.60
22.49517,512.08,581.98
22.51649,507.54,556.87
22.53601,504.15,516.45
22.55649,500.55,477.39
22.57594,500.97,446.82
22.59578,499.61,426.88
22.61618,497.91,419.82
22.63686,496.84,420.48
22.65557,497.37,420.07
22.67612,499.61,429.44
22.69679,498.68,437.63
22.71550,502.38,445.72
22.73582,502.34,454.99
22.75590,502.68,462.09
22.77489,503.52,472.49
22.79598,505.85,481.74
22.81525,508.14,487.54
22.83549,505.14,495.65
22.85620,508.85,502.41
22.87679,506.45,507.96
22.89557,508.59,514.82
22.91580,504.63,517.94
22.93541,507.19,522.90
22.95615,506.62,524.86
22.97574,507.03,528.13
22.99664,507.99,530.63
23.01611,507.17,532.97
23.03511,507.39,538.41
23.05634,509.54,543.70
23.07486,509.17,548.22
23.09624,506.43,548.64
23.11676,505.41,548.23
23.13573,508.12,551.72
23.15604,508.12,549.01
23.17634,505.60,547.56
23.19573,505.72,549.21
23.21572,506.10,547.08
23.23598,503.93,547.74
23.25633,503.75,547.43
23.27611,506.55,545.88
23.29564,506.38,547.81
23.31636,505.16,546.83
23.33572,507.28,546.85
23.35667,504.14,549.60
23.37673,503.26,547.98
23.39508,504.47,549.61
23.41627,502.43,547.48
23.43554,502.07,548.29
23.45534,501.73,547.31
23.47763,501.98,548.42
23.49777,504.27,547.87
23.51693,504.35,550.38
23.53773,506.25,548.85
23.55885,506.60,549.03
23.57820,504.31,546.12
23.59726,507.81,550.34
23.61705,508.36,549.38
23.63754,506.48,546.11
23.65723,507.09,546.66
23.67726,505.33,548.79
23.69708,505.32,548.00
23.71695,507.14,545.50
23.73778,506.88,546.65
23.75809,505.40,545.40
23.77841,507.70,546.21
23.79763,504.43,544.87
23.81851,509.22,547.64
23.83873,509.72,544.53
23.85768,508.71,544.13
23.87735,508.88,544.67
23.89688,507.84,543.58
23.91865,507.81,545.20
23.93864,508.56,545.75
23.95703,509.63,544.17
23.97859,508.37,543.48
23.99823,506.14,546.44
24.01798,507.15,545.47
24.03776,505.30,548.12
24.05820,507.38,543.80
24.07841,506.13,544.80
24.09860,508.07,546.05
24.11882,507.13,546.04
24.13821,507.11,546.39
24.15705,506.47,544.09
24.17781,508.52,547.00
24.19766,509.04,547.07
24.21827,506.62,549.68
24.23764,507.06,550.20
24.25712,509.38,550.53
24.27868,510.97,549.79
24.29848,510.04,549.48
24.31802,507.20,549.15
24.33811,509.35,549.98
24.35836,508.72,550.00
24.37808,508.60,551.28
24.39814,508.53,548.12
24.41834,508.45,550.78
24.43734,509.69,548.97
24.45760,508.85,547.75
24.47787,508.35,549.96
24.49850,509.36,551.25
24.51853,509.15,548.41
24.53747,509.05,549.00
24.55741,509.05,549.42
24.57818,507.26,547.58
24.59886,509.42,547.77
24.61836,510.05,547.56
24.63936,511.17,548.15
24.65877,509.09,550.58
24.67879,510.16,544.79
24.69967,512.27,546.48
24.71855,509.22,544.37
24.73847,511.81,546.00
24.75995,510.37,543.00
24.77843,512.74,548.47
24.79886,514.19,547.93
24.81903,513.95,549.60
24.84049,513.86,548.01
24.85896,517.54,547.70
24.87952,516.25,548.41
24.90032,516.66,551.40
24.91896,514.11,550.14
24.94075,517.62,549.46
24.95976,514.88,547.89
24.97998,517.88,545.41
25.00083,515.82,548.46
25.02048,518.01,549.15
25.04172,517.84,546.78
25.06106,520.90,549.81
25.08187,519.86,553.35
25.10267,522.08,554.52
25.12128,520.62,555.56
25.14138,524.24,553.05
25.16259,522.37,553.97
25.18226,521.50,553.03
25.20216,525.04,550.08
25.22270,525.68,549.86
25.24189,527.67,549.52
25.26171,526.92,548.94
25.28116,525.11,547.52
25.30162,526.28,550.68
25.32260,525.15,548.54
25.34255,523.07,546.89
25.36233,524.21,548.57
25.38151,526.02,546.75
25.40281,523.69,546.21
25.42265,522.71,546.03
25.44138,524.57,544.02
25.46240,523.15,544.52
25.48193,524.90,544.35
25.50329,524.99,548.00
25.52189,525.87,554.34
25.54194,526.94,581.10
25.56378,534.09,618.03
25.58349,535.32,645.24
25.60384,533.14,665.24
25.62298,536.90,668.51
25.64333,536.67,672.92
25.66409,534.42,671.47
25.68292,533.65,662.76
25.70469,530.99,654.81
25.72404,529.22,647.59
25.74343,530.99,637.26
25.76421,528.91,632.85
25.78453,530.11,624.76
25.80401,528.46,618.22
25.82323,531.66,609.57
25.84381,529.44,597.93
25.86414,530.74,597.12
25.88312,528.15,596.55
25.90437,530.22,589.33
25.92392,530.57,588.68
25.94360,526.50,585.00
25.96406,525.40,581.51
25.98376,527.48,578.34
26.00334,527.61,578.49
26.02529,525.56,572.36
26.04539,523.07,571.34
26.06464,525.83,568.56
26.08513,524.51,567.98
26.10545,526.95,570.15
26.12590,525.41,574.94
26.14437,527.24,582.91
26.16436,530.15,594.84
26.18503,528.26,592.58
26.20513,530.09,575.12
26.22522,527.34,543.22
26.24484,522.87,508.10
26.26513,516.26,480.35
26.28505,516.10,456.06
26.30428,513.74,440.57
26.32390,516.23,435.08
26.34472,517.75,433.07
26.36415,520.24,434.93
26.38461,518.13,436.16
26.40511,518.48,440.83
26.42590,518.51,448.87
26.44549,521.39,453.39
26.46584,519.48,460.74
26.48643,519.46,467.02
26.50670,521.58,475.88
26.52620,522.02,482.43
26.54572,521.78,490.70
26.56515,523.61,494.61
26.58495,525.45,500.58
26.60520,524.42,503.66
26.62620,523.75,512.48
26.64664,524.25,517.27
26.66635,526.99,528.70
26.68663,527.72,543.40
26.70669,527.47,574.08
26.72686,529.58,628.24
26.74610,533.97,688.50
26.76630,539.30,730.53
26.78779,543.20,748.16
26.80604,546.48,740.29
26.82666,541.99,711.56
26.84688,540.21,675.75
26.86715,534.06,636.89
26.88674,525.87,596.45
26.90778,522.40,562.33
26.92624,517.12,535.96
26.94761,513.41,513.55
26.96720,511.19,495.82
26.98675,512.10,483.09
27.00776,507.55,475.78
27.02587,509.39,471.61
27.04742,511.64,473.01
27.06785,511.82,472.14
27.08636,512.50,475.29
27.10763,513.00,481.59
27.12717,511.38,483.82
27.14665,515.11,492.20
27.16678,513.86,496.41
27.18738,517.53,502.64
27.20733,516.64,506.67
27.22615,515.75,512.08
27.24721,514.62,518.96
27.26661,516.30,521.37
27.28584,517.17,527.04
27.30741,517.77,530.07
27.32648,520.43,531.29
27.34634,519.10,536.24
27.36582,520.08,538.74
27.38704,520.62,536.66
27.40754,517.53,538.38
27.42709,519.98,542.28
27.44772,519.05,537.55
27.46601,521.01,539.34
27.48724,521.01,541.86
27.50768,520.90,549.50
27.52710,522.60,559.70
27.54622,524.49,577.77
27.56752,521.63,595.47
27.58613,524.96,612.12
27.60592,525.76,622.24
27.62617,522.57,624.00
27.64707,521.54,623.19
27.66579,522.38,618.04
27.68723,522.22,613.11
27.70611,520.98,604.88
27.72622,522.72,602.65
27.74647,522.56,594.31
27.76698,518.72,590.90
27.78753,519.54,584.66
27.80611,521.45,583.31
27.82647,519.86,579.56
27.84650,521.74,577.88
27.86579,521.12,572.88
27.88727,517.81,551.95
27.90679,518.92,525.71
27.92584,515.38,508.23
27.94780,514.12,495.41
27.96703,514.72,490.80
27.98639,512.79,490.01
28.00640,514.24,491.76
28.02597,515.07,494.09
28.04749,516.09,496.44
28.06591,513.92,500.87
28.08607,514.19,507.17
28.10608,513.73,510.92
28.12668,516.72,514.75
28.14599,512.62,516.25
28.16595,514.36,522.91
28.18650,519.31,524.37
28.20716,516.22,526.44
28.22718,517.69,531.59
28.24594,519.13,536.43
28.26731,520.23,538.27
28.28632,516.71,540.86
28.30692,515.82,540.50
28.32650,518.43,543.38
28.34572,518.53,541.66
28.36663,517.52,545.29
28.38629,517.28,544.77
28.40622,516.18,545.98
28.42760,516.83,549.65
28.44856,515.09,550.98
28.46697,517.46,550.73
28.48706,519.17,549.55
28.50781,516.96,549.66
28.52730,517.89,547.83
28.54844,518.34,551.70
28.56801,516.32,549.42
28.58700,516.23,547.84
28.60828,517.65,550.18
28.62863,514.15,550.29
28.64777,515.69,548.91
28.66687,514.98,549.98
28.68731,513.59,552.21
28.70882,514.44,551.90
28.72735,513.93,553.48
28.74812,513.92,552.23
28.76753,512.26,551.00
28.78803,513.57,550.81
28.80849,513.90,551.05
28.82860,514.29,552.78
28.84732,517.42,568.01
28.86727,518.34,591.38
28.88753,521.51,626.26
28.90863,522.66,659.72
28.92754,525.98,684.68
28.94847,524.82,697.48
28.96832,525.05,699.59
28.98839,522.16,694.79
29.00768,520.03,682.79
29.02861,519.97,668.47
29.04808,515.84,653.84
29.06945,513.17,634.00
29.08954,515.16,625.12
29.10902,513.55,612.66
29.12866,512.32,600.00
29.14809,512.44,596.36
29.16910,512.64,589.75
29.18958,513.00,582.28
29.20832,509.77,576.99
29.22787,509.33,575.89
29.24864,508.96,568.76
29.26928,510.81,570.00
29.28798,511.00,569.40
29.30894,512.29,566.73
29.32928,511.18,566.90
29.34899,508.29,564.62
29.36962,509.42,565.42
29.38869,509.59,559.13
29.40934,508.88,560.39
29.42784,505.99,560.65
29.44794,508.89,559.33
29.46850,507.13,556.96
29.48915,510.21,556.57
29.50953,507.83,554.14
29.52934,508.42,552.06
29.54843,506.53,554.51
29.56864,508.84,552.96
29.58929,508.91,550.94
29.60882,508.96,553.63
29.62777,510.78,551.21
29.64893,511.18,546.99
29.67040,507.83,550.28
29.68940,509.67,549.41
29.71021,509.62,549.72
29.72960,510.00,555.92
29.74959,507.55,565.62
29.77074,512.88,583.70
29.78883,515.23,603.05
29.81046,514.65,609.72
29.83089,516.33,597.23
29.84889,513.76,567.28
29.86889,511.34,528.76
29.88932,508.66,487.24
29.90965,503.33,455.68
29.93101,500.96,434.07
29.95149,502.34,422.38
29.97021,500.27,413.35
29.99096,497.35,410.54
30.01102,500.17,416.56
30.03248,500.31,425.95
30.05200,497.60,432.35
30.07153,500.01,444.96
30.09257,500.76,453.84
30.11180,500.63,461.47
30.13128,499.97,471.65
30.15093,500.43,477.78
30.17111,498.76,483.13
30.19202,501.63,491.47
30.21159,498.22,498.16
30.23262,499.10,503.48
30.25154,500.21,504.40
30.27171,500.13,510.43
30.29229,500.07,514.36
30.31217,499.79,519.15
30.33090,503.85,522.07
30.35193,501.22,525.55
30.37171,502.26,529.01
30.39144,502.49,529.10
30.41256,503.00,530.71
30.43123,504.00,535.29
30.45068,505.71,536.80
30.47242,503.97,536.68
30.49211,505.34,536.31
30.51263,504.95,537.47
30.53131,506.73,539.33
30.55251,507.56,537.72
30.57229,503.74,540.87
30.59129,501.84,540.58
30.61175,505.08,542.09
30.63184,503.45,541.49
30.65088,504.29,540.76
30.67177,503.76,541.11
30.69169,505.12,541.21
30.71152,505.45,541.61
30.73230,504.08,544.29
30.75358,503.71,545.82
30.77227,503.18,547.80
30.79306,505.90,545.40
30.81305,506.42,546.99
30.83290,505.50,546.30
30.85208,504.67,544.51
30.87191,507.55,544.99
30.89422,510.37,544.31
30.91344,510.96,545.54
30.93466,511.35,546.40
30.95282,511.48,544.72
30.97381,508.63,546.81
30.99454,512.86,544.86
31.01484,512.09,543.67
31.03429,510.38,543.77
31.05358,510.02,545.48
31.07331,513.13,545.18
31.09376,509.83,545.05
31.11358,510.05,548.65
31.13350,509.38,549.28
31.15431,513.17,549.11
31.17356,511.82,549.85
31.19388,509.30,547.39
31.21351,512.82,548.31
31.23416,512.16,549.94
31.25447,511.82,547.67
31.27506,515.28,548.23
31.29502,514.38,546.96
31.31569,515.43,548.47
31.33492,514.54,547.27
31.35397,514.38,550.46
31.37550,514.95,550.06
31.39490,514.29,547.50
31.41453,516.56,551.07
31.43519,513.53,551.37
31.45486,516.27,550.00
31.47470,517.77,550.92
31.49387,519.05,550.48
31.51490,517.59,550.28
31.53450,520.19,551.84
31.55421,516.73,552.25
31.57497,516.26,550.38
31.59503,517.71,553.16
31.61426,517.75,551.81
31.63569,514.41,551.58
31.65394,515.31,552.58
31.67415,516.81,551.28
31.69531,514.08,554.40
31.71424,514.78,553.89
31.73457,513.30,555.08
31.75371,513.37,552.08
31.77451,515.58,552.31
31.79503,516.47,553.15
31.81481,517.69,553.61
31.83624,516.39,553.37
31.85488,517.92,551.09
31.87500,520.37,549.84
31.89595,519.81,552.08
31.91620,519.45,549.04
31.93490,519.02,549.85
31.95497,521.16,552.28
31.97579,521.15,552.86
31.99592,522.11,553.42
32.01472,522.59,554.23
32.03564,521.17,554.42
32.05647,522.87,556.50
32.07505,522.69,554.70
32.09551,523.09,550.93
32.11560,520.52,549.56
32.13663,521.66,552.10
32.15617,520.95,552.54
32.17564,521.98,553.16
32.19506,522.71,552.33
32.21537,525.33,549.28
32.23589,524.31,549.88
32.25562,524.20,547.80
32.27598,521.81,546.98
32.29626,521.98,550.78
32.31498,522.36,548.41
32.33629,520.09,549.77
32.35600,522.07,549.26
32.37555,522.62,550.39
32.39601,521.07,547.41
32.41514,519.20,548.61
32.43517,521.08,549.93
32.45534,519.59,548.05
32.47480,522.57,550.54
32.49523,521.01,549.96
32.51539,519.75,550.12
32.53624,520.75,550.98
32.55569,523.26,548.82
32.57472,523.50,548.87
32.59579,524.85,550.93
32.61543,523.81,550.62
32.63611,523.83,549.06
32.65561,524.14,552.71
32.67553,520.05,551.55
32.69610,520.98,551.19
32.71529,522.47,549.44
32.73645,521.70,549.35
32.75495,523.91,550.38
32.77641,522.71,551.55
32.79610,525.06,553.91
32.81524,521.24,551.85
32.83506,523.69,553.68
32.85575,523.59,553.62
32.87564,523.66,550.14
32.89461,524.96,550.03
32.91547,523.15,551.50
32.93466,524.53,548.35
32.95575,521.43,548.83
32.97632,523.57,547.68
32.99604,525.04,549.64
33.01618,524.19,549.66
33.03699,525.89,548.15
33.05616,526.83,544.46
33.07656,525.02,544.00
33.09616,526.82,544.49
33.11754,528.84,548.09
33.13705,526.40,558.21
33.15847,526.88,585.65
33.17824,527.06,617.02
33.19687,529.25,639.78
33.21780,531.53,661.15
33.23765,533.19,671.13
33.25832,534.46,670.68
33.27700,531.35,667.74
33.29781,532.88,659.86
33.31756,529.91,653.73
33.33708,529.16,646.33
33.35832,532.36,636.50
33.37685,532.00,628.07
33.39833,533.61,624.52
33.41840,533.59,619.56
33.43820,533.33,617.34
33.45757,529.21,612.70
33.47794,530.55,609.87
33.49701,531.64,605.02
33.51738,530.73,606.33
33.53815,531.19,605.70
33.55673,532.27,601.99
33.57706,531.67,597.50
33.59825,530.09,594.30
33.61685,529.31,588.03
33.63842,529.26,584.50
33.65693,527.94,583.11
33.67701,531.07,580.43
33.69729,527.42,571.16
33.71869,528.23,571.88
33.73718,527.52,568.61
33.75733,530.45,569.10
33.77797,527.02,567.94
33.79860,527.02,572.99
33.81868,531.01,587.39
33.83650,533.86,601.87
33.85800,536.38,608.04
33.87778,533.28,598.49
33.89755,532.63,563.66
33.91753,533.17,524.44
33.93806,526.81,480.98
33.95813,527.11,451.92
33.97822,525.07,431.29
33.99844,520.52,419.45
34.01779,521.90,417.03
34.03828,519.85,417.17
34.05896,519.00,423.69
34.08013,517.01,431.57
34.10004,517.61,440.10
34.11999,516.28,448.70
34.13939,516.06,456.06
34.15874,516.81,463.91
34.17981,514.27,473.93
34.19936,517.50,480.34
34.21891,517.81,488.77
34.23910,517.57,493.81
34.25904,519.45,499.11
34.28031,519.30,506.66
34.30013,520.84,509.12
34.32039,519.89,514.88
34.34031,518.25,520.72
34.36025,520.13,525.42
34.38097,519.66,529.67
34.40145,517.29,532.19
34.42019,517.57,535.92
34.44228,515.91,537.42
34.46177,519.19,539.35
34.48145,516.12,541.10
34.50250,516.48,543.04
34.52080,514.44,539.87
34.54224,513.80,543.00
34.56230,514.49,540.36
34.58339,513.51,543.74
34.60187,512.96,546.63
34.62327,513.57,548.27
34.64163,511.99,545.59
34.66232,509.61,549.80
34.68313,511.64,550.85
34.70276,510.93,551.95
34.72199,510.06,550.77
34.74375,511.37,551.39
34.76208,512.54,553.36
34.78232,510.80,551.26
34.80257,513.35,551.44
34.82363,515.48,552.91
34.84462,511.85,555.75
34.86304,511.20,555.73
34.88480,512.19,553.02
34.90467,509.53,554.44
34.92448,509.55,552.98
34.94371,507.80,551.74
34.96335,508.94,552.32
34.98267,507.02,552.37
35.00380,507.21,551.94
35.02304,506.03,553.93
35.04451,506.54,554.23
35.06451,508.30,555.35
35.08421,507.64,554.41
35.10313,509.01,552.48
35.12280,509.41,555.92
35.14254,508.01,553.99
35.16527,509.27,550.59
35.18488,509.58,551.25
35.20634,510.44,550.17
35.22610,510.37,551.65
35.24641,509.50,548.37
35.26636,510.28,547.82
35.28700,508.80,552.69
35.30590,507.11,551.24
35.32594,505.61,547.59
35.34646,506.14,546.91
35.36616,504.65,547.16
35.38748,506.12,545.99
35.40622,504.52,546.74
35.42703,507.33,548.44
35.44619,506.41,544.34
35.46592,506.30,546.13
35.48744,505.04,547.24
35.50719,505.85,546.06
35.52597,507.23,547.69
35.54786,506.80,548.58
35.56725,506.93,548.85
35.58844,507.90,549.28
35.60796,505.03,551.36
35.62698,508.37,551.32
35.64818,506.25,550.10
35.66793,506.83,548.73
35.68828,505.43,549.65
35.70797,506.86,547.77
35.72831,507.28,550.09
35.74801,507.20,546.60
35.76919,508.58,548.65
35.78940,507.02,546.98
35.80908,508.77,547.83
35.82823,506.99,550.48
35.84773,508.14,549.83
35.86803,505.29,546.73
35.88765,505.68,546.54
35.91001,508.53,546.50
35.92876,510.69,547.84
35.95001,508.42,548.47
35.96875,510.42,549.56
35.98980,512.92,547.70
36.01035,512.22,551.12
36.02917,511.76,549.33
36.05016,513.34,548.07
36.07040,514.84,550.17
36.08905,511.54,550.55
36.10930,512.31,549.58
36.12944,516.01,546.65
36.14998,514.57,550.47
36.17049,516.23,550.50
36.18959,515.62,548.07
36.20891,514.45,550.33
36.22989,516.73,548.80
36.24892,515.51,547.82
36.26932,517.88,546.41
36.28988,516.78,547.39
36.30931,517.18,548.08
36.32889,518.92,551.68
36.34936,516.89,551.95
36.36996,514.67,551.53
36.38973,515.65,552.67
36.40919,517.79,551.12
36.42863,516.02,549.40
36.45054,516.86,550.44
36.47008,518.11,549.27
36.49039,516.87,549.73
36.51018,515.76,548.57
36.53024,516.97,549.97
36.54870,514.02,548.04
36.56875,513.62,547.45
36.58962,513.64,550.75
36.61008,511.71,547.86
36.63084,515.55,546.46
36.65157,513.13,547.81
36.67029,518.03,547.12
36.69053,516.80,548.01
36.71008,514.93,547.03
36.73123,518.18,548.89
36.75136,518.07,547.86
36.77157,519.32,546.45
36.78983,517.81,545.30
36.81011,519.42,546.09
36.83107,518.80,545.96
36.84989,518.89,546.37
36.86987,518.60,550.56
36.89088,517.71,547.83
36.90968,516.90,548.80
36.93093,516.78,549.23
36.95083,517.13,548.84
36.96975,519.02,548.00
36.98974,517.84,547.69
37.01061,518.94,550.50
37.03077,517.45,549.40
37.05192,519.53,549.66
37.07258,519.27,550.36
37.09230,519.87,551.25
37.11080,522.16,549.29
37.13088,521.86,551.87
37.15117,523.34,551.99
37.17242,522.17,553.11
37.19068,521.64,552.18
37.21088,520.66,551.14
37.23191,522.14,548.50
37.25080,522.00,551.77
37.27078,525.12,551.73
37.29186,526.51,548.40
37.31207,527.02,547.80
37.33165,525.82,547.68
37.35140,524.17,550.08
37.37207,523.44,550.86
37.39205,524.58,548.16
37.41083,523.59,550.15
37.43094,524.16,550.07
37.45126,525.42,545.94
37.47104,525.37,547.44
37.49088,525.69,544.39
37.51079,523.83,546.06
37.53178,525.30,554.60
37.55113,522.99,573.92
37.57125,522.61,593.82
37.59161,520.61,613.64
37.61236,519.19,634.61
37.63229,515.49,645.54
37.65082,512.23,648.77
37.67204,513.22,652.34
37.69137,514.32,645.81
37.71068,514.15,644.66
37.73064,515.37,636.61
37.75035,519.90,634.07
37.77083,524.01,627.52
37.79200,524.26,621.43
37.81168,528.90,614.88
37.83133,530.40,614.05
37.85075,531.94,607.07
37.87084,534.48,604.65
37.89057,536.88,605.10
37.91063,536.19,602.51
37.93162,538.19,599.32
37.95235,537.01,597.35
37.97071,538.38,593.85
37.99250,539.20,591.04
38.01193,536.52,584.02
38.03153,534.64,581.13
38.05093,535.76,576.28
38.07074,535.13,574.22
38.09103,534.06,570.85
38.11232,531.78,571.01
38.13254,530.31,567.19
38.15194,530.11,567.37
38.17299,528.24,566.26
38.19303,529.77,572.67
38.21331,530.92,582.46
38.23353,532.13,589.64
38.25283,531.35,575.41
38.27279,524.89,548.03
38.29260,523.79,507.33
38.31245,522.59,469.39
38.33353,519.65,437.72
38.35296,521.59,419.62
38.37276,520.44,410.81
38.39301,517.95,408.06
38.41279,520.04,411.12
38.43261,520.67,416.89
38.45164,519.28,428.19
38.47280,520.89,436.05
38.49273,520.56,444.30
38.51265,519.83,457.26
38.53202,522.41,464.60
38.55182,521.13,475.34
38.57314,520.94,483.26
38.59227,523.17,490.54
38.61306,523.59,500.28
38.63173,521.75,507.83
38.65183,525.60,513.11
38.67331,524.66,520.97
38.69175,528.42,524.74
38.71144,525.74,527.28
38.73305,526.40,532.41
38.75279,527.48,534.04
38.77318,526.32,538.32
38.79201,527.26,540.69
38.81330,527.45,542.45
38.83278,528.67,545.52
38.85207,529.10,547.50
38.87189,528.38,547.80
38.89170,529.14,549.54
38.91226,527.79,549.35
38.93218,529.43,550.55
38.95259,529.08,550.38
38.97251,529.80,554.23
38.99285,528.13,551.08
39.01311,528.63,553.95
39.03222,528.39,553.53
39.05206,527.74,553.60
39.07230,525.81,552.12
39.09130,527.99,551.93
39.11282,526.11,551.55
39.13162,527.31,552.73
39.15229,526.36,554.22
39.17190,526.63,552.80
39.19181,526.64,554.82
39.21239,526.33,553.26
39.23235,523.50,554.43
39.25177,526.16,556.19
39.27296,524.44,557.49
39.29161,522.77,556.28
39.31448,523.62,556.84
39.33363,526.19,553.96
39.35312,526.35,554.05
39.37368,524.95,555.09
39.39403,525.34,555.36
39.41320,522.43,554.70
39.43319,524.93,554.56
39.45398,525.16,555.73
39.47495,523.59,553.76
39.49475,524.09,555.63
39.51395,522.76,552.48
39.53553,523.47,553.10
39.55371,524.10,555.17
39.57388,523.48,556.04
39.59352,523.05,553.74
39.61507,522.45,550.87
39.63463,521.71,551.08
39.65493,523.46,554.45
39.67534,525.04,552.10
39.69503,524.41,553.54
39.71590,522.06,552.13
39.73473,526.15,552.68
39.75490,525.27,551.14
39.77627,524.17,551.54
39.79600,520.97,553.17
39.81611,522.89,550.74
39.83466,520.67,551.23
39.85553,521.00,549.96
39.87611,523.31,550.50
39.89485,520.63,552.72
39.91636,522.26,548.76
39.93571,521.35,552.14
39.95513,520.51,553.73
39.97639,521.63,551.31
39.99512,520.69,549.21
40.01644,520.80,549.51
40.03588,520.49,553.16
40.05466,521.58,552.60
40.07588,522.56,553.94
40.09580,523.33,555.24
40.11467,519.16,553.34
40.13608,520.80,553.14
40.15616,522.14,554.81
40.17561,518.63,553.45
40.19616,518.77,551.80
40.21629,521.01,555.78
40.23464,519.65,557.22
40.25510,519.87,553.10
40.27438,522.85,554.75
40.29468,521.98,553.38
40.31585,522.57,557.33
40.33583,520.71,556.98
40.35496,520.14,554.15
40.37482,523.96,556.22
40.39565,521.60,553.34
40.41523,523.00,553.19
40.43529,520.62,553.03
40.45478,521.40,553.02
40.47597,520.20,550.05
40.49528,520.77,549.99
40.51584,519.70,549.57
40.53475,519.19,548.85
40.55560,519.30,551.13
40.57493,517.43,548.84
40.59543,519.34,550.72
40.61604,516.95,551.44
40.63520,520.12,548.90
40.65607,519.61,548.18
40.67479,519.19,549.51
40.69573,520.11,551.07
40.71629,516.71,550.78
40.73560,520.05,552.14
40.75606,516.86,552.58
40.77517,515.77,550.57
40.79470,518.88,551.69
40.81466,517.82,550.75
40.83507,515.21,548.27
40.85531,515.35,550.36
40.87532,515.11,550.66
40.89659,516.94,551.10
40.91567,514.33,552.09
40.93649,513.33,553.48
40.95594,515.09,549.67
40.97590,511.62,550.80
40.99713,513.96,552.67
41.01741,509.53,554.36
41.03818,511.82,554.35
41.05766,510.08,553.75
41.07685,511.23,553.53
41.09807,508.94,553.31
41.11802,509.58,552.73
41.13771,508.66,555.52
41.15708,510.22,551.82
41.17711,508.11,552.26
41.19734,508.11,551.51
41.21810,508.53,551.80
41.23691,508.91,553.46
41.25811,507.80,550.02
41.27791,506.62,550.59
41.29722,506.33,553.83
41.31671,507.52,552.92
41.33684,507.85,552.88
41.35736,508.22,551.37
41.37776,507.78,552.29
41.39764,510.02,553.41
41.41682,506.81,554.22
41.43815,507.30,552.18
41.45768,507.97,553.80
41.47769,510.24,551.92
41.49723,508.00,552.91
41.51838,510.75,553.63
41.53660,510.64,554.54
41.55792,510.85,555.57
41.57722,509.43,555.73
41.59685,508.76,553.22
41.61807,508.43,552.53
41.63823,505.78,551.44
41.65831,506.00,549.84
41.67778,507.27,548.93
41.69763,504.35,548.50
41.71837,503.70,547.46
41.73863,504.10,556.74
41.75858,504.81,574.60
41.77989,506.07,596.40
41.80143,506.53,625.15
41.82091,509.20,648.82
41.84071,508.73,662.77
41.86099,510.68,665.98
41.87984,508.06,667.33
41.90096,506.07,660.96
41.92080,504.69,653.65
41.94124,506.16,642.00
41.95989,505.02,632.56
41.98140,508.01,624.24
41.99983,509.54,617.95
42.02114,509.37,612.77
42.03996,508.58,609.70
42.05965,511.13,602.28
42.08180,514.64,602.47
42.10246,514.15,597.76
42.12237,515.85,594.29
42.14065,514.96,591.25
42.16225,511.29,588.07
42.18058,509.49,586.50
42.20240,508.74,583.82
42.22153,508.16,576.11
42.24054,507.25,577.00
42.26054,507.03,570.63
42.28215,507.67,567.32
42.30030,506.85,566.19
42.32218,506.63,562.98
42.34126,508.55,561.56
42.36243,505.34,558.44
42.38234,502.30,549.81
42.40127,500.30,524.71
42.42066,495.37,490.64
42.44114,495.45,460.31
42.46057,495.94,432.94
42.48118,497.06,420.46
42.50125,497.95,416.56
42.52095,499.40,420.09
42.54234,499.17,429.08
42.56175,500.88,437.72
42.58071,502.94,446.29
42.60100,500.07,458.03
42.62044,500.69,467.14
42.64100,502.57,473.89
42.66098,502.61,482.90
42.68228,505.37,492.62
42.70152,501.72,500.17
42.72144,503.00,504.09
42.74184,502.55,510.44
42.76222,504.09,516.60
42.78211,503.78,520.78
42.80101,506.35,523.89
42.82160,506.94,528.03
42.84122,507.77,529.35
42.86251,507.48,532.57
42.88227,506.66,538.00
42.90108,507.91,537.15
42.92159,506.98,537.53
42.94156,508.25,540.47
42.96082,504.87,540.17
42.98182,506.32,541.24
43.00186,506.18,545.90
43.02238,507.39,544.96
43.04132,508.36,543.76
43.06238,509.80,542.30
43.08146,508.50,544.61
43.10148,507.40,547.62
43.12145,507.84,545.80
43.14073,511.47,543.94
43.16222,511.20,540.64
43.18053,512.08,541.65
43.20181,510.96,542.69
43.22178,510.52,542.29
43.24069,509.26,543.38
43.26069,511.66,545.39
43.28189,510.15,542.99
43.30125,511.32,546.38
43.32165,511.28,544.35
43.34133,510.05,547.19
43.36071,509.73,545.20
43.38197,510.80,546.29
43.40339,512.99,545.30
43.42185,512.69,550.94
43.44140,511.32,547.17
43.46221,511.51,548.21
43.48127,512.47,546.17
43.50306,514.16,546.34
43.52301,513.88,546.59
43.54296,511.55,545.73
43.56415,513.58,546.98
43.58350,513.46,545.04
43.60325,516.73,545.26
43.62300,515.82,546.25
43.64431,518.01,545.35
43.66426,515.91,546.88
43.68273,517.33,548.91
43.70324,518.58,546.17
43.72330,515.75,545.38
43.74360,516.62,545.87
43.76330,515.03,546.55
43.78258,515.86,544.16
43.80306,516.29,546.33
43.82415,516.94,544.76
43.84331,519.57,545.55
43.86405,517.80,548.73
43.88271,518.86,546.97
43.90331,521.01,550.96
43.92354,518.50,550.08
43.94396,517.50,552.86
43.96314,520.60,560.60
43.98402,521.50,570.43
44.00316,525.06,583.51
44.02288,527.30,595.36
44.04418,529.11,599.80
44.06390,529.02,600.74
44.08427,527.98,594.78
44.10240,527.06,587.54
44.12533,525.07,573.13
44.14444,524.64,554.19
44.16387,523.20,533.85
44.18407,515.83,515.94
44.20368,516.84,508.14
44.22437,512.43,497.55
44.24349,511.75,498.19
44.26527,511.44,499.38
44.28486,514.63,525.86
44.30514,517.67,560.39
44.32425,523.86,590.47
44.34472,522.88,608.09
44.36533,517.91,607.20
44.38354,515.23,599.60
44.40405,509.26,580.94
44.42510,503.03,561.56
44.44435,502.23,545.83
44.46386,501.20,532.16
44.48404,500.43,517.50
44.50473,502.96,511.64
44.52490,504.24,510.52
44.54445,506.62,511.01
44.56420,505.88,520.58
44.58467,506.28,545.62
44.60515,512.42,572.99
44.62426,516.54,594.84
44.64452,517.96,611.33
44.66383,524.65,618.71
44.68391,527.57,626.27
44.70342,532.73,633.00
44.72344,542.12,639.86
44.74432,547.45,639.57
44.76483,552.73,635.99
44.78378,553.13,628.96
44.80466,553.08,619.41
44.82476,550.98,603.73
44.84369,546.03,582.10
44.86403,540.79,543.49
44.88538,532.46,505.56
44.90458,520.97,468.87
44.92420,512.33,440.53
44.94509,500.82,413.32
44.96432,496.57,399.74
44.98502,492.16,391.59
45.00337,490.75,393.89
45.02401,491.29,401.57
45.04547,492.84,411.26
45.06400,496.72,422.73
45.08405,499.53,436.62
45.10460,505.23,451.89
45.12353,508.48,466.59
45.14390,511.86,479.43
45.16528,516.58,493.53
45.18364,520.17,506.57
45.20470,525.69,530.89
45.22423,543.07,562.23
45.24439,562.12,597.60
45.26431,588.64,630.17
45.28359,612.04,649.19
45.30393,628.64,657.96
45.32414,635.62,663.22
45.34424,636.69,656.93
45.36450,634.55,652.86
45.38352,626.65,646.25
45.40437,615.23,640.34
45.42511,606.24,639.41
45.44455,593.71,629.79
45.46360,578.13,608.95
45.48476,560.38,577.35
45.50357,541.60,551.73
45.52452,528.13,526.75
45.54533,516.50,507.56
45.56345,508.53,495.14
45.58424,501.40,487.19
45.60388,499.19,485.07
45.62512,499.61,484.21
45.64517,499.52,486.59
45.66461,499.73,487.18
45.68471,501.36,489.85
45.70402,500.18,494.98
45.72362,501.71,498.45
45.74337,512.40,506.45
45.76533,515.28,506.84
45.78376,521.66,510.89
45.80462,522.08,512.63
45.82442,524.22,516.68
45.84362,525.54,521.78
45.86407,530.04,525.12
45.88429,532.17,526.19
45.90429,533.34,527.15
45.92414,533.92,525.70
45.94459,537.93,525.60
45.96438,534.92,522.37
45.98405,534.46,524.52
46.00343,536.46,521.44
46.02393,534.40,525.96
46.04542,531.69,528.72
46.06428,533.64,536.28
46.08465,533.17,540.96
46.10409,527.52,538.01
46.12361,526.43,538.30
