Program Time [s],data 0,data 1
5.07623,755.90,1013.36
5.09459,707.28,1013.95
5.11610,677.52,999.28
5.13551,641.53,892.74
5.15601,605.17,856.04
5.17734,565.68,854.72
5.19590,549.00,793.54
5.21636,516.10,750.10
5.23668,494.84,718.88
5.25732,469.80,650.13
5.27602,459.95,581.71
5.29667,437.95,564.06
5.31751,424.64,544.10
5.33671,440.48,469.50
5.35647,468.96,449.44
5.37627,491.05,400.70
5.39688,511.91,338.07
5.41707,515.03,296.88
5.43620,523.49,293.48
5.45724,513.69,243.61
5.47718,484.96,263.71
5.49721,466.60,271.21
5.51840,448.37,223.27
5.53943,408.28,199.84
5.55875,410.00,168.60
5.57836,408.49,183.96
5.60026,371.17,200.67
5.61909,330.50,192.39
5.63913,302.20,206.54
5.65876,292.84,252.31
5.68024,273.50,225.76
5.70018,265.56,255.30
5.72008,243.82,239.74
5.73857,224.75,214.71
5.75901,224.48,217.30
5.77853,252.73,220.32
5.79881,252.63,213.84
5.81891,288.60,218.41
5.83947,303.04,191.35
5.85853,325.11,212.86
5.87994,336.84,176.42
5.89942,322.55,147.98
5.91947,311.56,123.38
5.94017,305.08,139.02
5.95924,279.48,153.00
5.97877,277.94,182.09
5.99976,265.43,218.86
6.02025,261.89,247.40
6.03958,252.49,253.76
6.05877,262.99,266.45
6.08015,264.04,272.30
6.10025,280.04,289.75
6.11939,290.19,314.58
6.13900,295.34,361.70
6.15921,307.32,392.53
6.18001,319.43,425.34
6.19922,325.67,441.56
6.21850,324.00,445.81
6.23985,329.98,438.74
6.25842,342.77,436.41
6.28022,349.89,440.31
6.29878,359.87,450.14
6.31867,374.56,464.29
6.33915,388.90,508.84
6.35985,399.33,541.63
6.38023,407.36,580.33
6.39845,413.84,605.02
6.41877,419.08,620.16
6.44012,417.96,610.03
6.45957,415.54,594.49
6.48038,418.99,576.92
6.49878,419.65,556.50
6.51987,425.77,548.67
6.54031,426.39,531.52
6.55965,431.74,522.34
6.57894,434.50,506.26
6.59857,437.97,505.76
6.61949,433.94,506.25
6.64009,431.33,507.27
6.65898,431.78,509.82
6.68019,431.06,506.37
6.69894,431.31,508.26
6.71893,430.22,505.66
6.73981,431.28,503.97
6.76013,437.23,494.76
6.77860,442.81,493.44
6.79954,445.21,492.95
6.82012,448.42,490.39
6.84081,459.08,488.70
6.86085,463.83,488.64
6.88072,465.80,486.91
6.89960,469.22,492.04
6.91948,470.66,490.91
6.94117,471.89,489.22
6.96032,471.55,487.45
6.97960,476.11,491.30
7.00099,473.34,491.32
7.01988,476.96,496.76
7.04118,474.89,498.78
7.06109,476.96,502.05
7.08081,476.12,506.48
7.10118,476.42,512.74
7.12115,479.63,511.62
7.14270,481.64,518.47
7.16143,481.59,517.00
7.18163,481.59,513.16
7.20363,485.10,515.66
7.22417,488.35,516.16
7.24269,492.18,517.57
7.26368,491.80,512.30
7.28323,492.92,515.42
7.30295,494.17,514.52
7.32440,494.26,513.54
7.34365,492.80,507.51
7.36260,496.74,511.70
7.38283,497.16,511.06
7.40228,495.72,511.21
7.42302,492.50,514.74
7.44473,492.49,511.23
7.46465,494.40,513.71
7.48431,490.96,515.28
7.50521,495.50,529.09
7.52442,497.03,558.53
7.54395,495.54,575.68
7.56537,496.85,599.34
7.58365,496.92,617.48
7.60448,497.41,628.59
7.62497,498.04,628.51
7.64483,499.74,629.27
7.66481,496.81,631.39
7.68500,497.18,626.74
7.70462,497.39,621.94
7.72378,499.50,608.81
7.74411,497.38,603.64
7.76364,496.13,593.14
7.78503,496.88,586.19
7.80429,492.99,578.97
7.82506,495.73,572.82
7.84470,495.78,564.75
7.86379,498.38,556.39
7.88470,496.65,556.07
7.90386,495.49,551.29
7.92335,493.73,545.25
7.94381,497.69,544.26
7.96455,495.01,546.14
7.98492,495.13,547.88
8.00512,495.63,546.95
8.02528,495.70,545.55
8.04511,495.90,544.64
8.06477,492.28,544.09
8.08366,495.87,540.83
8.10356,497.35,540.05
8.12379,496.08,534.33
8.14518,494.09,531.10
8.16423,495.69,528.10
8.18489,494.68,531.54
8.20410,492.69,530.10
8.22516,493.72,528.10
8.24430,491.27,529.31
8.26522,493.66,528.81
8.28482,491.02,529.73
8.30571,492.23,532.46
8.32504,491.07,527.51
8.34614,493.96,528.43
8.36614,492.66,530.29
8.38565,491.03,533.10
8.40505,491.48,529.51
8.42621,491.67,530.84
8.44631,493.51,534.65
8.46441,492.48,519.58
8.48619,490.78,492.38
8.50498,488.38,459.23
8.52505,486.17,425.06
8.54583,484.72,406.25
8.56475,484.46,396.52
8.58508,485.56,396.99
8.60508,487.39,401.32
8.62511,490.50,407.02
8.64435,490.00,416.57
8.66551,491.56,420.97
8.68444,490.68,427.10
8.70561,490.17,438.34
8.72517,492.32,448.20
8.74635,493.05,454.34
8.76632,492.42,462.11
8.78549,492.00,473.61
8.80501,489.35,479.48
8.82523,494.22,485.58
8.84499,490.73,490.07
8.86457,493.80,496.21
8.88472,490.92,498.30
8.90446,493.09,501.97
8.92616,493.74,499.25
8.94435,492.96,503.41
8.96443,489.70,503.52
8.98501,493.42,509.40
9.00553,489.38,508.11
9.02601,489.91,510.14
9.04618,490.90,507.84
9.06617,489.16,508.50
9.08461,486.97,508.99
9.10619,489.98,509.14
9.12595,490.17,511.41
9.14583,487.97,510.58
9.16615,490.33,508.23
9.18536,493.21,513.11
9.20532,493.50,514.47
9.22662,491.41,513.92
9.24625,492.91,517.56
9.26445,497.84,519.05
9.28542,503.15,522.38
9.30486,504.72,524.32
9.32572,502.58,529.56
9.34631,503.42,533.93
9.36583,502.20,531.22
9.38625,505.08,532.50
9.40548,500.95,534.73
9.42541,495.37,529.02
9.44684,496.08,524.70
9.46784,495.44,525.17
9.48632,492.44,523.51
9.50823,491.32,520.57
9.52848,485.00,518.99
9.54830,485.53,519.44
9.56730,480.73,522.07
9.58782,485.61,523.14
9.60786,484.60,521.86
9.62785,482.81,521.19
9.64762,483.34,520.61
9.66785,484.57,522.63
9.68735,482.61,525.55
9.70837,481.95,527.87
9.72840,482.02,528.94
9.74899,480.83,528.75
9.77121,478.99,530.04
9.79121,475.13,522.87
9.81196,479.67,525.17
9.83197,473.10,524.98
9.85047,475.62,522.44
9.87154,474.27,518.12
9.89195,477.25,518.68
9.91113,472.10,518.59
9.93218,474.00,517.71
9.95214,475.85,514.33
9.97084,474.32,513.84
9.99066,473.27,515.18
10.01202,471.76,516.04
10.03181,474.50,518.09
10.05038,472.34,519.33
10.07024,476.57,521.36
10.09042,474.43,519.40
10.11123,477.15,521.14
10.13072,477.15,517.95
10.15204,476.53,518.68
10.17116,474.42,522.38
10.19114,477.03,519.20
10.21193,472.45,521.33
10.23063,474.09,522.40
10.25171,476.60,523.89
10.27132,476.18,524.69
10.29295,478.63,525.29
10.31160,475.69,519.01
10.33200,480.88,522.13
10.35234,477.84,518.52
10.37323,479.27,513.84
10.39202,475.77,515.20
10.41213,474.50,513.52
10.43237,475.06,519.23
10.45226,474.28,520.41
10.47278,473.00,519.74
10.49183,472.66,520.37
10.51246,470.93,520.56
10.53388,477.33,521.69
10.55248,475.98,522.16
10.57364,479.19,520.08
10.59304,478.30,521.30
10.61318,479.70,519.66
10.63287,478.06,520.42
10.65415,476.96,523.61
10.67307,474.19,523.15
10.69428,473.43,522.50
10.71449,475.55,525.19
10.73264,474.62,524.77
10.75390,475.83,521.80
10.77332,476.52,525.49
10.79437,476.61,523.52
10.81387,476.31,520.44
10.83504,478.34,520.45
10.85318,476.52,522.62
10.87478,476.45,522.65
10.89498,477.52,520.84
10.91443,474.94,521.69
10.93484,479.12,523.06
10.95468,478.31,522.05
10.97345,476.60,525.54
10.99518,476.52,529.00
11.01496,472.92,531.06
11.03421,474.56,531.18
11.05459,475.72,530.24
11.07436,474.09,528.01
11.09339,473.06,529.91
11.11398,472.88,528.00
11.13423,473.27,527.52
11.15478,473.17,526.07
11.17496,474.47,535.26
11.19345,474.83,547.95
11.21343,475.81,571.15
11.23447,475.95,592.58
11.25467,480.20,608.55
11.27494,480.83,611.14
11.29510,483.13,618.03
11.31475,484.07,618.35
11.33508,480.25,617.41
11.35313,481.10,614.37
11.37413,475.91,617.44
11.39394,473.76,612.24
11.41396,475.44,608.60
11.43378,470.93,594.67
11.45445,470.72,586.80
11.47617,471.30,585.39
11.49478,472.61,579.83
11.51610,473.40,575.34
11.53493,471.81,572.72
11.55452,472.89,567.48
11.57586,475.49,563.56
11.59524,479.05,558.45
11.61490,479.77,555.07
11.68105,483.15,552.31
11.68051,482.53,548.73
11.67970,481.97,546.95
11.69565,479.37,544.43
11.71595,477.10,539.02
11.73581,477.57,536.83
11.75671,479.02,538.19
11.77608,476.92,536.84
11.79633,478.05,535.66
11.81678,477.55,534.42
11.83715,479.58,534.32
11.85675,476.91,535.94
11.87685,478.27,533.55
11.89625,478.23,537.99
11.91631,479.77,537.57
11.93677,478.19,538.49
11.95614,481.26,542.74
11.97691,484.86,543.69
11.99575,480.79,541.30
12.01704,482.42,540.43
12.03603,482.01,541.44
12.05543,481.36,539.97
12.07634,483.02,539.47
12.09660,485.23,535.05
12.11671,481.63,539.26
12.13732,483.18,538.74
12.15627,483.82,537.36
12.17709,481.96,537.80
12.19661,481.21,536.58
12.21623,481.83,536.06
12.23605,483.44,538.43
12.25671,484.51,538.38
12.27561,481.66,536.88
12.29565,482.95,533.47
12.31604,485.88,533.92
12.33548,486.55,534.70
12.35668,486.47,531.08
12.37605,487.04,539.22
12.39720,487.22,529.79
12.41650,486.78,505.65
12.43594,485.90,479.11
12.45564,486.89,450.05
12.47650,482.30,438.06
12.49689,481.82,429.61
12.51777,480.70,428.64
12.53651,480.42,431.00
12.55739,483.45,431.42
12.57873,482.79,442.09
12.59808,487.70,446.05
12.61837,485.53,456.31
12.63845,488.14,464.00
12.65787,487.67,467.78
12.67805,489.97,475.22
12.69764,490.38,485.03
12.71770,487.83,490.95
12.73765,489.62,497.93
12.75749,489.11,501.36
12.77925,492.64,508.21
12.79794,488.37,512.13
12.81820,488.71,516.03
12.83841,492.24,513.46
12.85864,491.87,516.29
12.87889,493.60,516.39
12.89905,492.08,521.65
12.91903,490.44,520.11
12.93864,490.54,524.61
12.95920,490.50,525.87
12.97892,491.83,527.68
12.99750,490.52,528.09
13.01764,491.67,537.82
13.03882,497.29,552.67
13.05840,500.33,583.25
13.07894,503.59,617.05
13.09868,507.55,645.39
13.11818,508.74,646.37
13.13763,507.67,632.73
13.15835,506.32,609.19
13.17795,499.96,585.27
13.19896,498.33,562.09
13.21750,492.25,543.39
13.23876,489.14,524.47
13.25896,490.67,511.05
13.27753,488.61,501.82
13.29888,486.64,495.45
13.31845,485.11,492.78
13.33796,486.08,490.34
13.35743,487.64,489.79
13.37848,486.54,492.68
13.39825,487.18,495.54
13.41789,489.06,494.70
13.43842,488.79,501.13
13.45727,489.71,505.39
13.47823,493.35,508.50
13.49803,490.58,509.69
13.51824,491.81,515.40
13.53728,490.61,518.26
13.55836,493.11,520.68
13.57909,491.38,523.76
13.59906,490.80,522.67
13.61824,493.45,522.92
13.63821,494.66,524.72
13.65798,491.04,526.91
13.67881,492.73,528.77
13.69862,493.05,527.80
13.71764,492.19,530.19
13.73869,492.33,528.01
13.75789,492.66,533.74
13.77764,492.99,532.27
13.79792,494.29,536.49
13.81895,496.04,538.42
13.83775,494.53,540.68
13.85863,494.93,538.19
13.87768,495.92,538.68
13.89751,493.16,541.33
13.91866,495.04,541.09
13.93757,491.41,541.58
13.95839,491.43,539.96
13.97764,493.45,540.93
13.99759,495.35,542.45
14.01871,494.39,543.60
14.03896,493.20,539.91
14.05729,497.27,541.97
14.07862,498.51,538.33
14.09837,493.74,537.33
14.11905,494.29,538.13
14.13859,491.62,538.42
14.15891,491.82,533.57
14.17880,492.94,534.20
14.19850,494.48,538.51
14.21841,493.05,536.04
14.23775,493.33,535.91
14.25725,496.59,537.13
14.27829,496.30,538.47
14.29884,497.30,539.63
14.31739,496.51,537.40
14.33795,496.03,538.99
14.35735,494.30,539.21
14.37839,495.40,538.19
14.39787,496.95,535.49
14.41757,494.48,537.97
14.43897,497.05,533.83
14.45845,497.87,533.43
14.47796,497.73,535.28
14.49763,494.80,536.13
14.51765,493.62,534.25
14.53883,497.06,535.12
14.55792,495.72,534.11
14.57799,497.36,536.06
14.59837,495.34,534.36
14.61885,496.46,536.38
14.64016,494.86,539.74
14.65992,496.26,537.46
14.68001,492.71,534.98
14.69954,492.21,537.39
14.72070,491.48,538.33
14.74120,490.56,542.19
14.76057,492.14,542.66
14.77995,492.62,541.36
14.80091,490.59,544.58
14.81916,491.91,543.47
14.84082,489.21,541.24
14.86032,490.90,538.74
14.88016,492.98,540.04
14.89988,490.94,536.46
14.92027,488.90,536.82
14.94007,490.41,537.17
14.95993,488.71,535.90
14.98077,487.54,537.90
15.00094,487.62,539.87
15.02012,491.20,541.20
15.03980,492.36,540.78
15.06010,490.46,543.11
15.07954,493.01,542.58
15.10112,491.47,540.86
15.11923,490.00,542.65
15.13983,492.01,539.78
15.15972,489.93,542.07
15.18009,488.68,541.34
15.20018,492.64,542.24
15.22069,493.15,544.10
15.24034,495.60,545.38
15.25989,493.77,544.46
15.27932,492.68,542.94
15.29979,489.89,540.84
15.31995,489.37,541.28
15.34123,488.68,536.73
15.36062,491.03,536.88
15.37950,489.55,540.38
15.39923,491.73,550.14
15.41997,492.33,568.66
15.44064,496.92,583.35
15.46052,495.58,598.32
15.47973,495.95,609.65
15.50033,497.71,617.32
15.51904,498.69,620.11
15.54072,495.45,618.41
15.55942,494.70,617.66
15.57990,494.39,610.89
15.60079,491.01,609.31
15.61990,492.07,598.40
15.64066,490.75,592.44
15.66188,492.80,597.50
15.68053,494.07,591.98
15.70101,494.44,597.44
15.72192,492.02,596.95
15.74210,487.60,590.17
15.76326,487.56,587.76
15.78170,484.42,583.58
15.80271,486.89,579.87
15.82233,484.52,580.89
15.84258,483.65,582.01
15.86298,482.04,580.95
15.88262,483.65,574.85
15.90425,485.02,571.79
15.92318,485.23,563.89
15.94395,486.12,561.58
15.96225,483.30,559.38
15.98287,484.07,555.43
16.00375,482.24,551.23
16.02228,483.74,549.43
16.04228,483.18,547.08
16.06242,483.33,546.18
16.08323,480.25,543.93
16.10320,482.94,544.02
16.12277,481.98,540.03
16.14460,481.19,538.43
16.16463,482.55,537.87
16.18452,480.66,536.67
16.20405,478.64,538.17
16.22479,475.18,539.63
16.24470,475.64,535.43
16.26502,476.69,536.83
16.28489,478.91,535.75
16.30418,475.88,534.99
16.32558,473.57,534.23
16.34490,476.38,533.85
16.36614,475.37,534.73
16.38481,477.52,535.46
16.40516,474.76,534.55
16.42540,473.98,538.73
16.44518,475.19,534.85
16.46508,474.37,534.38
16.48460,475.17,533.35
16.50490,473.78,532.96
16.52453,473.63,536.13
16.54499,473.23,537.00
16.56520,471.59,533.68
16.58508,473.05,534.97
16.60545,475.15,539.43
16.62437,471.98,537.15
16.64566,471.95,535.36
16.66443,473.37,539.83
16.68547,473.76,545.95
16.70515,470.17,534.77
16.72450,469.80,512.09
16.74598,467.12,479.84
16.76582,466.03,448.50
16.78578,465.67,431.41
16.80476,466.00,423.55
16.82410,465.26,419.65
16.84478,467.06,424.22
16.86587,467.96,428.59
16.88438,465.84,438.03
16.90463,465.52,446.94
16.92610,466.88,454.58
16.94438,469.18,459.69
16.96459,469.45,468.83
16.98528,469.63,475.32
17.00429,471.06,485.19
17.02465,473.70,488.91
17.04436,470.59,492.84
17.06601,470.15,499.32
17.08439,472.90,501.92
17.10402,471.13,505.75
17.12563,471.05,512.16
17.14528,471.62,511.38
17.16540,471.12,514.20
17.18438,469.25,515.13
17.20511,470.55,517.09
17.22445,472.48,521.64
17.24499,469.54,521.45
17.26595,469.25,524.39
17.28539,470.20,529.31
17.30455,471.37,529.69
17.32467,473.95,532.56
17.34584,471.95,533.66
17.36529,476.09,533.10
17.38459,473.30,533.69
17.40537,474.83,535.21
17.42562,472.79,530.27
17.44477,476.50,529.69
17.46550,471.89,530.39
17.48577,472.56,527.78
17.50557,472.53,529.50
17.52596,474.93,530.47
17.54506,472.76,532.42
17.56647,475.14,534.80
17.58622,473.76,533.35
17.60541,472.80,532.39
17.62673,473.45,532.53
17.64601,473.80,531.16
17.66599,472.79,532.25
17.68566,474.63,531.39
17.70596,475.22,528.80
17.72695,471.86,531.70
17.74561,474.82,529.45
17.76580,475.64,527.43
17.78613,476.77,530.03
17.80553,474.02,527.78
17.82622,474.77,532.85
17.84692,471.89,532.01
17.86529,472.48,533.12
17.88538,473.14,531.39
17.90567,475.41,531.32
17.92620,476.40,530.09
17.94708,474.51,531.13
17.96550,476.05,529.60
17.98553,475.95,529.71
18.00645,473.03,530.52
18.02688,471.68,535.31
18.04618,474.74,536.21
18.06614,472.92,537.37
18.08594,472.57,541.03
18.10633,472.08,540.02
18.12560,470.22,536.86
18.14655,470.64,539.42
18.16705,473.32,537.43
18.18564,470.47,536.31
18.20619,471.36,535.82
18.22653,472.36,537.04
18.24525,469.65,535.00
18.26682,471.86,535.98
18.28657,472.26,536.75
18.30521,474.04,533.78
18.32535,471.37,533.27
18.34599,471.84,534.57
18.36627,471.50,535.72
18.38624,470.04,532.55
18.40566,469.50,532.90
18.42700,472.19,530.58
18.44532,474.24,532.96
18.46656,474.69,531.50
18.48607,476.76,530.48
18.50582,475.65,528.75
18.52576,474.92,528.85
18.54603,474.70,527.60
18.56642,475.86,530.08
18.58546,473.85,528.60
18.60624,474.89,529.59
18.62680,475.11,532.16
18.64623,473.14,528.86
18.66567,474.25,530.02
18.68566,473.69,531.38
18.70527,474.92,531.43
18.72690,477.42,530.83
18.74512,474.33,529.03
18.76634,475.52,531.28
18.78660,473.81,528.27
18.80558,474.35,532.00
18.82588,475.13,531.74
18.84665,477.21,530.35
18.86676,473.59,527.75
18.88588,476.77,527.09
18.90618,475.31,526.68
18.92521,477.36,528.63
18.94602,474.93,529.07
18.96564,472.68,529.25
18.98604,472.71,528.05
19.00628,472.02,530.26
19.02552,472.90,529.38
19.04653,472.78,530.99
19.06587,476.03,532.28
19.08561,475.03,530.22
19.10666,475.79,533.42
19.12675,472.50,531.91
19.14664,475.18,530.89
19.16521,473.85,533.12
19.18588,474.47,531.05
19.20588,475.70,529.43
19.22568,472.35,530.01
19.24606,472.64,528.56
19.26530,471.04,529.24
19.28702,473.15,532.37
19.30672,473.20,530.82
19.32561,475.09,533.63
19.34666,471.56,531.79
19.36617,472.45,532.12
19.38686,472.88,530.32
19.40506,472.11,533.40
19.42638,473.26,532.05
19.44573,471.25,532.96
19.46645,474.31,532.70
19.48635,472.50,534.88
19.50524,474.50,534.03
19.52694,473.37,531.68
19.54632,473.95,532.46
19.56571,476.44,531.75
19.58632,475.77,531.99
19.60710,472.57,533.65
19.62523,474.79,535.08
19.64547,473.99,533.98
19.66666,470.22,533.82
19.68685,473.07,534.57
19.70640,470.95,534.59
19.72651,473.04,532.77
19.74516,473.51,534.42
19.76641,474.35,534.40
19.78692,473.61,536.52
19.80513,473.47,536.89
19.82615,472.75,535.86
19.84650,474.55,533.88
19.86635,471.21,534.55
19.88593,472.56,533.92
19.90687,468.24,535.67
19.92597,472.23,539.34
19.94683,473.03,537.41
19.96550,475.92,533.80
19.98564,476.36,537.47
20.00598,473.15,536.54
20.02522,475.38,533.05
20.04572,474.30,535.83
20.06548,474.90,536.67
20.08572,474.55,552.63
20.10605,475.05,579.45
20.12512,474.51,612.91
20.14587,477.54,633.85
20.16630,477.85,645.49
20.18629,478.16,653.17
20.20583,482.84,651.51
20.22628,481.91,648.73
20.24680,482.33,642.51
20.26526,478.86,633.00
20.28714,478.07,622.81
20.30607,480.20,611.28
20.32560,479.23,603.16
20.34705,481.41,596.96
20.36524,480.98,588.93
20.38658,480.09,582.83
20.40680,478.18,575.10
20.42596,477.59,570.17
20.44568,479.70,567.32
20.46599,477.41,560.46
20.48665,479.30,557.35
20.50534,477.84,552.32
20.52540,475.75,550.90
20.54554,476.27,547.56
20.56698,475.47,545.75
20.58559,473.67,547.84
20.60568,475.25,547.01
20.62604,477.63,546.02
20.64716,480.40,543.30
20.66672,477.10,542.86
20.68642,476.96,541.75
20.70847,478.44,542.70
20.72842,479.38,539.99
20.74790,481.05,542.58
20.76799,481.00,540.38
20.78857,483.82,539.46
20.80828,483.21,541.16
20.82723,484.99,538.57
20.84724,482.01,539.20
20.86875,485.02,537.21
20.88799,484.72,539.60
20.90873,483.95,538.43
20.92854,484.10,535.95
20.94775,483.47,533.49
20.96886,479.88,534.86
20.98791,483.07,536.70
21.00888,483.60,537.97
21.02690,486.07,532.49
21.04796,484.11,534.17
21.06904,485.93,538.20
21.08820,484.77,541.99
21.10772,485.16,542.81
21.12759,485.46,543.05
21.14733,481.04,524.45
21.16771,478.23,491.19
21.18845,477.94,460.49
21.20885,477.03,443.56
21.22740,476.22,432.22
21.24789,475.36,430.91
21.26708,476.70,430.64
21.28772,476.51,432.11
21.30889,477.65,439.30
21.32758,477.92,444.50
21.34902,481.04,453.86
21.36837,479.90,463.31
21.38877,478.45,467.24
21.40859,479.75,477.01
21.42872,483.80,482.12
21.44802,484.21,486.04
21.46804,482.27,494.30
21.48840,482.19,495.45
21.50755,482.78,501.02
21.52800,481.16,507.62
21.54862,480.38,508.91
21.56862,480.34,514.30
21.58862,482.46,517.47
21.60787,483.50,518.06
21.62845,484.32,519.70
21.64753,486.69,525.85
21.66713,484.20,528.78
21.68794,486.64,525.95
21.70880,487.41,530.45
21.72851,485.91,533.36
21.74846,485.10,531.92
21.76864,486.45,534.28
21.78879,484.56,532.65
21.80863,483.13,533.69
21.82865,485.82,530.79
21.84738,487.38,532.13
21.86743,486.91,531.71
21.88770,485.85,532.91
21.90842,486.45,536.96
21.92813,488.46,535.23
21.94716,488.91,536.78
21.96817,487.72,534.66
21.98720,486.10,535.69
22.00796,487.16,535.91
22.02787,484.96,535.06
22.04885,483.51,535.63
22.06780,485.71,537.42
22.08857,485.55,535.43
22.10880,487.75,536.21
22.12699,485.34,534.92
22.14777,485.83,536.17
22.16775,487.80,536.09
22.18748,488.69,536.29
22.20897,485.28,539.60
22.22743,486.04,537.56
22.24762,485.98,536.63
22.26852,486.82,536.81
22.28825,486.17,536.86
22.30717,486.37,536.03
22.32823,484.93,535.24
22.34732,489.06,534.55
22.36746,485.32,536.22
22.38827,489.17,535.29
22.40759,486.69,535.45
22.42745,489.80,534.60
22.44749,486.21,536.17
22.46908,486.13,539.67
22.48788,485.57,536.93
22.50814,488.89,537.87
22.52755,485.03,537.62
22.54853,488.60,536.98
22.56894,489.13,537.09
22.58770,487.12,536.52
22.60806,485.90,538.11
22.62801,485.53,535.26
22.64787,489.46,537.33
22.66752,489.58,535.96
22.68756,487.50,536.44
22.70786,485.41,539.71
22.72864,485.33,538.14
22.74802,486.61,537.24
22.76799,484.41,537.08
22.78884,483.54,538.12
22.80870,484.73,536.76
22.82725,484.10,535.39
22.84804,484.92,537.69
22.86772,484.14,535.38
22.88718,487.17,533.98
22.90731,486.73,536.24
22.92833,484.64,538.36
22.94719,486.56,539.62
22.96727,484.65,539.56
22.98841,485.18,536.92
23.00815,487.33,537.69
23.02794,483.32,537.28
23.04721,485.13,535.70
23.06828,485.22,537.20
23.08784,484.69,536.92
23.10723,482.81,538.23
23.12749,487.87,537.09
23.14747,486.99,534.87
23.16860,488.16,535.65
23.18890,487.56,534.93
23.20738,488.43,536.70
23.22741,489.22,537.53
23.24716,492.88,539.70
23.26850,492.41,534.03
23.28764,492.66,537.96
23.30793,489.16,536.85
23.32843,492.70,533.62
23.34863,491.28,535.77
23.36817,491.55,536.15
23.38741,489.04,535.88
23.40729,488.84,536.45
23.42871,491.40,538.00
23.44807,491.49,535.80
23.46712,490.48,536.83
23.48728,488.39,535.01
23.50701,488.77,535.50
23.52757,490.91,536.62
23.54775,489.85,534.36
23.56761,490.75,536.82
23.58759,489.87,534.77
23.60754,489.54,537.19
23.62890,488.53,536.72
23.64857,487.88,538.93
23.66832,489.82,538.44
23.68762,489.48,534.82
23.70844,487.49,536.28
23.72879,487.02,540.60
23.74710,488.95,540.74
23.76738,487.04,539.12
23.78817,488.33,539.37
23.80823,488.73,541.57
23.82872,490.70,540.99
23.84820,490.15,542.09
23.86976,490.07,541.90
23.88943,489.18,542.61
23.90911,491.11,542.68
23.92916,492.95,540.07
23.94923,490.25,538.72
23.96962,490.96,540.07
23.99007,491.76,537.57
24.00982,488.64,538.81
24.02928,492.35,538.90
24.04928,490.27,538.27
24.06809,491.57,537.52
24.08845,491.89,540.80
24.10858,492.21,542.10
24.12852,491.03,539.47
24.14983,492.60,540.15
24.16909,490.47,542.00
24.18933,495.14,540.66
24.20880,494.23,539.99
24.22916,492.35,541.52
24.24983,490.96,541.37
24.26980,489.07,539.59
24.28846,488.78,539.22
24.30823,490.73,545.57
24.32838,493.61,554.82
24.34860,493.22,570.12
24.36912,495.39,589.04
24.38978,500.31,609.24
24.40973,497.11,619.21
24.42944,497.27,628.40
24.44893,497.08,631.08
24.47004,495.52,639.89
24.49015,497.71,635.86
24.50876,497.90,638.89
24.52956,497.35,632.64
24.54801,497.17,630.21
24.56914,497.77,622.54
24.58842,497.71,619.16
24.60818,498.53,615.24
24.62862,498.55,603.94
24.64938,499.27,602.45
24.66903,496.28,594.96
24.68873,494.34,590.45
24.71000,494.75,587.62
24.72880,492.01,584.50
24.74848,490.42,582.24
24.76976,492.69,574.43
24.78936,492.93,573.59
24.80978,490.92,564.91
24.82967,492.73,560.11
24.84812,492.84,561.04
24.86978,493.97,557.33
24.88916,492.25,555.80
24.90870,496.54,551.04
24.92998,496.88,553.36
24.94854,494.49,552.63
24.96881,495.16,552.14
24.98839,496.38,547.07
25.00835,495.56,544.29
25.02855,495.14,546.42
25.04991,493.84,545.60
25.06833,492.05,549.87
25.08812,495.99,546.73
25.10825,492.72,546.42
25.12804,492.30,546.94
25.14923,495.55,547.01
25.17038,496.50,558.56
25.19063,498.79,584.00
25.21010,503.63,607.22
25.22982,506.06,621.69
25.24992,504.68,611.50
25.27020,505.27,576.56
25.29089,502.03,529.81
25.31092,495.52,482.67
25.32975,490.69,445.25
25.34959,486.39,421.68
25.36999,482.61,407.78
25.39039,478.93,402.20
25.41067,481.67,404.48
25.43001,479.89,404.29
25.44966,480.59,412.79
25.46952,478.54,421.86
25.49107,479.93,432.28
25.51035,483.24,442.72
25.52912,484.61,450.99
25.55072,482.55,461.94
25.56892,483.38,470.85
25.58974,486.46,475.95
25.60956,485.49,484.24
25.62914,486.91,492.19
25.64891,489.57,496.18
25.66969,491.92,504.67
25.69089,491.19,509.38
25.71067,493.07,513.66
25.73042,490.40,519.29
25.75045,490.81,519.85
25.76991,493.79,523.89
25.79066,493.25,529.17
25.81055,492.31,529.88
25.83134,490.03,532.28
25.85121,489.48,532.51
25.87136,487.04,533.88
25.89192,487.17,537.28
25.91241,487.08,535.49
25.93280,487.20,538.23
25.95143,489.23,542.59
25.97228,491.99,542.22
25.99291,494.83,541.94
26.01294,492.78,538.63
26.03181,490.12,538.58
26.05178,492.66,538.80
26.07102,492.61,538.38
26.09238,489.80,538.93
26.11244,489.18,540.60
26.13215,490.99,541.99
26.15245,490.77,539.77
26.17136,492.62,540.40
26.19218,493.78,541.04
26.21156,491.71,543.39
26.23169,493.89,539.38
26.25257,494.10,541.26
26.27182,490.13,537.10
26.29210,488.72,535.91
26.31220,489.06,539.70
26.33285,491.69,540.79
26.35246,492.09,542.12
26.37185,491.14,542.31
26.39295,488.64,539.72
26.41255,490.23,541.39
26.43233,487.51,542.28
26.45200,486.66,540.73
26.47211,488.45,541.41
26.49241,487.67,540.30
26.51127,488.02,541.19
26.53204,486.94,541.23
26.55230,489.51,541.52
26.57219,489.03,538.11
26.59194,487.44,538.48
26.61233,487.56,538.93
26.63277,488.43,538.00
26.65290,491.34,539.34
26.67226,489.37,541.04
26.69217,491.70,537.32
26.71166,490.47,539.14
26.73113,488.67,540.46
26.75276,490.64,542.11
26.77314,489.22,539.62
26.79265,486.50,540.76
26.81122,488.36,540.31
26.83112,486.63,537.66
26.85213,489.84,537.14
26.87268,487.38,538.89
26.89116,491.41,539.02
26.91114,487.87,539.92
26.93204,489.15,538.84
26.95283,489.92,540.16
26.97265,486.62,540.58
26.99263,488.86,544.41
27.01174,488.71,543.67
27.03200,487.40,542.33
27.05115,490.48,542.18
27.07220,486.86,544.26
27.09237,487.34,543.15
27.11211,487.91,544.73
27.13227,486.54,543.07
27.15270,488.97,545.28
27.17149,489.06,543.42
27.19156,489.16,539.05
27.21118,491.89,541.18
27.23276,490.15,542.70
27.25255,485.88,541.85
27.27168,486.79,540.70
27.29146,485.88,541.82
27.31142,485.79,540.17
27.33106,488.52,540.23
27.35231,487.68,543.61
27.37147,489.34,540.88
27.39136,490.93,542.12
27.41198,491.66,542.80
27.43316,491.09,543.53
27.45246,491.08,541.85
27.47362,489.40,540.24
27.49308,487.83,539.94
27.51353,487.27,539.37
27.53318,485.34,536.98
27.55265,485.18,537.69
27.57194,485.51,538.32
27.59382,487.84,539.23
27.61195,487.09,539.17
27.63300,486.74,538.53
27.65297,486.10,536.69
27.67320,486.52,538.20
27.69338,487.39,537.28
27.71283,487.23,538.90
27.73300,486.61,538.02
27.75252,490.13,540.00
27.77205,488.05,540.92
27.79309,489.44,540.14
27.81317,488.44,542.08
27.83268,488.03,542.17
27.85294,488.12,543.43
27.87230,489.65,540.00
27.89227,489.76,539.83
27.91197,488.60,539.35
27.93201,490.19,538.13
27.95221,486.28,542.20
27.97237,487.10,544.28
27.99412,484.84,542.79
28.01303,487.39,544.12
28.03407,482.37,542.34
28.05314,485.74,544.23
28.07316,486.06,540.37
28.09429,482.83,540.98
28.11397,485.35,543.43
28.13425,481.39,541.26
28.15380,481.08,542.14
28.17425,478.26,542.56
28.19322,477.50,543.82
28.21394,479.33,540.89
28.23357,479.91,541.90
28.25457,478.90,540.23
28.27324,479.83,541.85
28.29438,480.66,541.55
28.31554,480.27,536.26
28.33413,476.59,536.79
28.35523,475.09,538.69
28.37473,476.70,536.04
28.39557,475.06,537.44
28.41547,474.06,536.58
28.43396,475.22,535.29
28.45443,477.24,538.62
28.47585,474.35,537.81
28.49488,476.78,538.38
28.51527,474.91,549.98
28.53496,475.61,564.38
28.55513,478.39,584.97
28.57485,481.41,608.66
28.59541,481.31,626.70
28.61496,483.59,643.22
28.63420,481.84,652.15
28.65495,484.51,653.01
28.67495,488.22,650.89
28.69565,485.14,643.58
28.71416,481.69,636.57
28.73430,481.48,629.53
28.75405,482.05,620.07
28.77417,478.20,611.37
28.79585,480.71,606.92
28.81400,482.02,599.27
28.83528,483.18,595.36
28.85510,483.36,589.36
28.87579,482.45,580.40
28.89444,479.83,576.19
28.91433,482.16,568.09
28.93566,479.05,565.12
28.95448,480.75,563.03
28.97460,475.75,561.66
28.99458,476.07,559.49
29.01570,475.92,559.54
29.03504,473.65,559.32
29.05498,472.84,556.41
29.07517,472.98,555.28
29.09524,472.54,554.83
29.11510,474.29,551.30
29.13662,472.48,551.26
29.15629,475.19,548.43
29.17660,471.33,547.73
29.19630,473.08,548.58
29.21633,472.15,543.64
29.23558,472.91,542.44
29.25542,474.80,544.70
29.27532,472.16,543.92
29.29520,474.52,543.59
29.31534,474.84,543.19
29.33615,472.30,544.23
29.35505,470.95,538.35
29.37608,473.21,540.13
29.39688,474.94,539.94
29.41536,472.27,544.67
29.43580,476.23,547.18
29.45535,473.78,528.19
29.47675,473.66,500.66
29.49532,471.95,468.51
29.51599,468.06,449.67
29.53576,467.88,436.47
29.55481,467.43,432.04
29.57683,467.01,434.41
29.59650,467.77,435.15
29.61581,467.67,439.60
29.63684,468.79,448.09
29.65664,469.19,457.61
29.67516,470.94,464.30
29.69556,471.20,472.74
29.71529,471.30,478.01
29.73640,469.97,483.91
29.75489,473.37,493.93
29.77500,472.52,497.55
29.79653,470.09,496.80
29.81549,471.62,496.74
29.83535,469.15,500.52
29.85557,470.95,506.01
29.87642,470.39,508.59
29.89544,469.62,510.45
29.91537,471.75,514.95
29.93583,470.63,515.89
29.95571,473.04,519.73
29.97492,471.31,519.09
29.99542,469.79,522.41
30.01633,471.55,525.51
30.03534,471.00,525.63
30.05675,472.33,526.85
30.07642,470.17,530.37
30.09499,472.23,534.08
30.11545,469.58,530.07
30.13552,471.75,533.21
30.15594,469.62,534.14
30.17487,470.42,532.20
30.19743,471.99,531.97
30.21679,469.39,532.27
30.23668,472.84,532.69
30.25735,473.08,533.10
30.27662,474.03,536.91
30.29745,473.55,534.64
30.31574,472.84,535.18
30.33751,474.66,535.66
30.35829,474.63,534.63
30.37838,476.68,533.50
30.39718,475.66,535.66
30.41810,475.35,532.83
30.43667,473.46,534.85
30.45706,475.27,534.94
30.47757,474.87,533.78
30.49858,472.87,534.36
30.51680,473.98,535.40
30.53852,473.72,535.15
30.55837,472.89,533.78
30.57853,471.97,535.12
30.59874,474.36,536.27
30.61897,474.99,535.00
30.63948,473.54,535.99
30.65921,473.56,536.11
30.67971,476.64,533.77
30.69879,475.54,535.13
30.71886,472.35,535.09
30.73951,474.90,535.92
30.75911,474.87,535.61
30.77939,473.52,533.01
30.79822,472.96,531.57
30.81915,474.18,534.00
30.83844,474.33,533.53
30.85802,472.31,532.97
30.87981,474.11,535.56
30.89912,474.28,535.41
30.91896,473.91,535.20
30.94000,472.51,532.86
30.95934,474.20,531.82
30.98029,474.98,534.27
31.00070,475.09,533.73
31.02017,479.17,536.29
31.04017,474.46,536.32
31.05941,476.34,535.98
31.08034,478.04,537.75
31.09917,477.41,534.10
31.11903,479.35,537.26
31.14052,476.07,535.76
31.16084,481.03,535.51
31.17970,481.32,536.05
31.20039,480.87,534.11
31.21911,481.74,536.28
31.23981,483.24,535.12
31.25947,483.07,533.60
31.27994,480.67,535.08
31.30010,480.60,537.31
31.31897,479.57,536.00
31.33955,478.45,535.39
31.35900,477.23,536.41
31.37967,475.17,533.96
31.40047,474.20,538.71
31.41918,476.54,536.75
31.44055,476.69,537.82
31.46085,475.87,535.45
31.48063,477.09,535.62
31.50000,476.45,535.62
31.52056,476.99,534.97
31.54058,476.94,535.25
31.56039,476.60,537.36
31.58049,479.03,536.19
31.59946,476.75,535.23
31.61984,476.78,538.74
31.64023,479.01,536.70
31.65963,477.01,534.92
31.68021,478.18,537.37
31.70029,479.83,538.84
31.71911,476.95,539.45
31.74042,480.32,536.64
31.76007,477.44,538.36
31.77886,479.84,536.70
31.79923,476.64,535.63
31.81871,479.44,537.51
31.84050,476.59,536.23
31.85927,478.66,535.46
31.88015,479.31,537.03
31.89972,482.15,538.94
31.91899,480.15,538.19
31.94013,480.00,536.12
31.95924,481.62,537.38
31.98082,483.52,538.06
31.99911,484.89,539.16
32.01886,481.49,535.83
32.04026,482.52,538.75
32.06075,482.76,536.49
32.08118,480.82,538.20
32.10046,482.63,535.99
32.11998,483.32,538.19
32.14091,481.39,540.06
32.16096,482.20,539.77
32.18098,482.39,538.76
32.19999,485.75,538.87
32.22100,483.97,540.73
32.24246,488.03,537.12
32.26152,484.17,538.27
32.28109,486.22,539.76
32.30133,487.93,537.45
32.32276,488.71,536.06
32.34139,488.12,536.61
32.36150,490.88,536.00
32.38144,488.67,536.44
32.40215,487.82,537.59
32.42330,487.85,538.84
32.44170,487.52,539.32
32.46255,489.26,539.86
32.48398,488.40,539.65
32.50269,489.09,538.52
32.52441,491.70,538.92
32.54440,489.55,537.55
32.56322,492.05,540.40
32.58386,491.29,537.92
32.60542,490.04,540.04
32.62446,489.43,541.74
32.64403,490.42,541.62
32.66512,491.02,543.44
32.68386,489.80,544.56
32.70374,493.59,539.67
32.72524,489.55,538.71
32.74408,492.39,542.65
32.76384,490.47,541.13
32.78442,492.31,541.69
32.80382,495.56,539.88
32.82557,496.19,542.02
32.84504,496.66,552.38
32.86545,497.28,574.09
32.88499,496.53,604.68
32.90664,498.72,623.31
32.92651,502.78,647.33
32.94650,502.57,657.50
32.96689,504.29,663.18
32.98730,501.95,663.68
33.00683,503.57,651.62
33.02674,500.39,644.38
33.04690,497.78,631.91
33.06717,496.84,619.54
33.08771,494.38,606.70
33.10688,494.27,600.17
33.12634,494.14,591.86
33.14668,495.13,586.65
33.16768,493.31,582.36
33.18681,495.17,578.58
33.20765,493.58,571.23
33.22720,492.15,567.48
33.24775,491.00,563.14
33.26764,486.22,562.07
33.28846,486.79,558.50
33.30718,486.90,557.61
33.32754,488.84,556.14
33.34688,487.47,554.34
33.36859,487.33,554.25
33.38767,491.05,556.33
33.40720,488.88,552.96
33.42697,489.23,551.99
33.44714,491.28,551.89
33.46801,488.56,550.71
33.48673,490.78,553.12
33.50853,487.60,549.46
33.52837,489.41,550.43
33.54755,490.08,547.61
33.56724,491.07,547.58
33.58735,490.66,545.16
33.60697,493.37,547.65
33.62820,492.34,545.51
33.64805,495.66,545.76
33.66773,493.44,544.45
33.68726,492.70,543.37
33.70847,488.68,545.58
33.72769,489.30,543.74
33.74714,488.38,541.60
33.76804,488.05,539.90
33.78687,489.42,542.98
33.80678,487.93,548.63
33.82681,489.46,548.44
33.84680,491.77,541.54
33.86790,491.18,520.68
33.88704,487.65,496.63
33.90736,489.28,467.57
33.92727,486.96,451.74
33.94852,486.02,442.66
33.96772,482.47,442.24
33.98770,480.19,443.62
34.00785,480.34,445.01
34.02869,477.85,448.25
34.04979,479.50,456.19
34.06914,477.79,461.15
34.08826,479.53,468.40
34.10886,480.86,475.81
34.12832,481.21,485.44
34.14932,479.37,490.97
34.16960,481.66,497.36
34.18841,481.45,503.77
34.20921,482.23,508.79
34.22979,483.13,512.14
34.24815,481.16,515.46
34.26984,482.69,519.85
34.29017,479.46,524.22
34.31160,480.16,524.51
34.33157,480.70,527.07
34.35138,479.81,527.85
34.37149,481.71,528.44
34.38995,478.88,531.94
34.40982,479.29,531.51
34.43124,479.10,532.95
34.45078,479.05,533.78
34.47067,477.68,532.23
34.48982,479.56,534.27
34.51019,477.94,534.22
34.53089,480.17,534.97
34.55141,478.03,539.33
34.57133,477.97,540.20
34.59097,480.98,536.11
34.61107,476.72,538.16
34.63021,476.90,538.39
34.64961,477.76,539.21
34.67086,476.10,534.38
34.69143,474.60,536.98
34.70983,475.59,539.53
34.73095,476.59,538.68
34.75018,476.26,538.92
34.76996,474.73,538.27
34.79107,475.23,539.35
34.81005,474.21,536.92
34.83026,476.00,536.10
34.85056,479.49,539.64
34.87157,477.76,536.47
34.89154,478.38,537.73
34.91119,476.49,537.41
34.93048,480.74,536.80
34.95064,478.86,538.09
34.97019,476.60,539.17
34.99086,477.23,538.84
35.01048,475.83,538.64
35.03010,477.13,540.45
35.05028,477.08,536.52
35.07001,479.78,538.54
35.09067,476.40,537.28
35.11000,481.75,536.21
35.13160,481.18,539.22
35.15005,480.98,539.40
35.17141,482.27,539.61
35.19070,480.77,539.72
35.21112,481.58,539.43
35.22966,482.56,540.51
35.25068,482.72,540.09
35.27110,480.87,538.72
35.29129,480.87,540.54
35.31113,481.56,539.50
35.33064,478.62,537.68
35.35028,478.39,538.03
35.37038,477.02,538.94
35.38970,475.80,537.64
35.41162,477.69,537.34
35.43150,476.36,537.35
35.45033,477.00,537.92
35.47148,477.82,538.67
35.49022,481.22,539.35
35.50990,480.32,539.71
35.53075,478.05,540.95
35.55091,477.16,538.14
35.57126,478.36,540.23
35.59063,480.52,538.37
35.61062,482.61,540.38
35.62975,479.99,536.13
35.65038,480.26,539.16
35.67009,478.62,540.87
35.69021,478.79,540.67
35.71078,476.05,537.29
35.73144,475.01,540.03
35.75159,475.75,537.43
35.77016,474.34,540.42
35.79135,477.79,538.66
35.81150,477.23,537.84
35.83130,474.54,540.84
35.85005,472.63,539.38
35.87121,473.31,541.54
35.89032,477.08,541.35
35.91049,476.35,540.01
35.93115,472.43,539.00
35.95092,474.15,539.31
35.96967,476.34,542.92
35.99056,476.70,541.91
36.01115,478.19,541.15
36.03063,476.48,541.06
36.05095,478.29,542.26
36.06993,481.16,542.85
36.09132,477.38,543.38
36.11158,478.02,542.48
36.12973,477.33,542.57
36.15053,478.10,541.88
36.17122,479.27,539.30
36.19107,479.22,540.86
36.21043,477.43,539.64
36.23049,479.48,541.28
36.25042,477.48,539.75
36.27047,479.33,538.41
36.29089,476.16,540.81
36.31085,480.14,539.21
36.33022,476.22,536.67
36.35016,476.16,538.81
36.37167,473.97,539.19
36.39168,473.09,534.62
36.41329,470.92,533.95
36.43327,472.84,534.63
36.45297,472.35,532.83
36.47230,471.32,531.95
36.49351,470.31,532.97
36.51242,471.06,530.35
36.53353,469.07,531.43
36.55217,472.25,530.21
36.57303,470.25,530.17
36.59283,474.16,530.21
36.61302,469.96,529.49
36.63366,469.71,530.13
36.65270,472.53,533.55
36.67185,470.75,532.66
36.69181,473.11,534.46
36.71260,470.92,532.35
36.73223,472.48,533.46
36.75177,472.44,536.48
36.77172,471.87,537.05
36.79281,472.47,536.71
36.81173,471.34,538.11
36.83191,474.54,537.29
36.85330,472.78,536.45
36.87319,475.41,537.04
36.89306,474.91,538.39
36.91290,475.87,540.98
36.93169,471.75,539.37
36.95261,473.65,538.23
36.97233,472.80,534.66
36.99206,473.29,534.13
37.01216,471.59,535.27
37.03322,470.49,533.21
37.05247,473.30,532.50
37.07168,474.47,535.33
37.09276,470.94,534.31
37.11339,472.67,532.17
37.13314,474.75,531.85
37.15411,474.66,534.38
37.17288,476.98,541.37
37.19428,477.32,564.10
37.21328,476.75,587.12
37.23330,476.81,615.92
37.25318,477.65,636.01
37.27367,479.25,643.31
37.29360,479.73,644.63
37.31418,478.45,646.21
37.33405,478.39,636.65
37.35421,475.44,631.27
37.37546,476.48,620.48
37.39524,479.06,608.84
37.41563,478.10,598.87
37.43396,475.63,595.73
37.45424,478.40,585.93
37.47520,480.37,579.19
37.49388,478.09,570.06
37.51447,479.01,567.33
37.53554,476.09,562.40
37.55565,478.41,555.95
37.57468,476.12,554.14
37.59475,478.33,549.49
37.61555,478.74,551.10
37.63532,478.04,550.52
37.65750,480.91,549.03
37.67609,479.29,542.92
37.69627,477.13,544.31
37.71659,478.08,540.91
37.73710,480.60,543.58
37.75652,479.50,540.96
37.77756,480.17,543.49
37.79719,482.03,544.68
37.81713,479.02,544.63
37.83708,483.45,538.88
37.85707,482.98,537.89
37.87827,481.65,538.64
37.89750,484.14,536.12
37.91941,484.83,535.68
37.93757,484.69,539.38
37.95876,482.72,538.63
37.97894,484.73,539.77
37.99878,485.77,540.62
38.01833,483.36,540.41
38.03949,486.35,539.68
38.05839,487.95,540.60
38.07863,490.93,537.42
38.09810,489.68,538.20
38.11957,487.28,542.57
38.13801,489.48,538.42
38.15875,490.95,529.04
38.17857,490.95,514.87
38.19802,492.10,495.44
38.21816,488.46,471.90
38.23781,486.76,448.22
38.25820,484.97,435.02
38.27965,480.56,428.81
38.29881,483.28,429.32
38.31873,482.02,428.81
38.33852,479.44,433.92
38.35910,478.34,443.09
38.37809,479.89,448.71
38.39805,481.23,457.04
38.41858,481.93,463.32
38.43834,483.45,472.13
38.45913,483.46,478.87
38.47897,487.34,487.12
38.49892,484.19,490.70
38.52067,486.82,500.88
38.53956,489.03,505.94
38.55931,487.62,512.18
38.58007,488.18,517.48
38.59894,488.12,522.32
38.61963,487.85,524.72
38.63935,490.84,527.76
38.66033,488.32,528.15
38.67901,489.70,531.90
38.70019,491.90,534.08
38.72045,491.53,538.38
38.74054,491.39,537.94
38.76022,496.48,540.16
38.78000,492.53,537.84
38.79997,492.14,541.30
38.82093,490.80,539.51
38.84065,491.93,537.95
38.86153,493.27,541.33
38.88124,495.31,540.23
38.90062,492.26,542.26
38.92006,495.05,541.94
38.94121,492.47,544.94
38.96085,492.13,542.55
38.97987,492.73,540.20
39.00086,489.02,542.60
39.02033,491.41,543.08
39.04092,490.26,540.77
39.06086,493.59,543.62
39.08027,492.65,545.62
39.09977,493.71,546.54
39.12011,494.65,544.83
39.14136,496.93,544.53
39.16083,493.08,542.78
39.18072,492.98,542.73
39.20022,493.66,542.60
39.22135,492.96,545.26
39.24127,493.15,544.00
39.26030,495.36,541.37
39.28035,492.39,542.50
39.30042,491.12,542.24
39.31986,490.68,541.90
39.33994,492.19,541.09
39.36057,491.16,537.63
39.38015,491.39,542.12
39.40125,494.01,544.62
39.42141,493.89,542.67
39.44183,492.58,546.41
39.46260,491.70,544.97
39.48181,492.00,545.07
39.50235,493.30,542.80
39.52211,490.51,541.61
39.54079,492.62,539.59
39.56216,489.77,541.48
39.58191,489.51,541.09
39.60088,489.49,541.95
39.62114,488.70,538.96
39.64131,490.22,540.35
39.66074,490.18,543.11
39.68244,492.15,543.10
39.70263,491.57,542.59
39.72161,490.27,542.18
39.74179,489.34,541.96
39.76146,491.34,542.25
39.78128,490.82,541.66
39.80226,492.10,542.61
39.82206,494.33,542.36
39.84159,494.20,541.60
39.86098,491.84,541.74
39.88074,490.43,541.13
39.90159,491.54,542.86
39.92087,490.61,544.36
39.94222,492.31,545.60
39.96135,493.69,543.00
39.98069,492.42,544.45
40.00083,496.53,542.65
40.02059,495.40,545.24
40.04159,495.43,545.05
40.06126,495.62,543.49
40.08233,496.21,543.94
40.10080,495.85,541.30
40.12249,494.57,543.20
40.14178,495.58,545.71
40.16062,495.80,543.94
40.18239,492.42,543.97
40.20113,493.52,547.03
40.22192,494.56,546.15
40.24090,489.46,546.53
40.26218,491.98,546.11
40.28093,490.63,545.40
40.30219,487.48,543.83
40.32248,488.87,542.63
40.34171,488.15,542.21
40.36115,488.36,541.51
40.38120,490.82,542.75
40.40087,488.43,540.52
40.42088,488.17,542.15
40.44214,490.47,540.65
40.46269,490.59,542.61
40.48085,491.94,539.62
40.50166,488.71,542.10
40.52144,492.86,540.74
40.54156,491.39,541.52
40.56211,489.63,543.96
40.58094,491.11,543.97
40.60155,490.70,541.57
40.62140,491.47,542.09
40.64266,488.37,541.91
40.66149,488.86,540.51
40.68172,489.15,539.99
40.70200,490.78,542.72
40.72198,493.22,544.34
40.74200,494.28,546.84
40.76151,493.37,544.27
40.78192,496.03,547.56
40.80143,494.22,546.50
40.82152,494.46,547.11
40.84111,494.67,545.69
40.86228,495.65,547.68
40.88226,495.79,546.68
40.90088,495.42,550.16
40.92140,492.04,547.56
40.94131,493.80,547.11
40.96153,492.69,547.38
40.98221,491.32,543.96
41.00226,493.71,546.40
41.02205,492.77,543.34
41.04133,492.75,541.86
41.06222,492.77,543.68
41.08064,493.93,544.91
41.10164,494.03,542.88
41.12189,491.84,546.35
41.14186,492.31,542.45
41.16149,491.28,542.28
41.18256,496.31,544.84
41.20064,494.44,541.09
41.22191,496.26,543.95
41.24091,495.31,541.98
41.26266,493.48,543.91
41.28169,493.59,539.30
41.30143,491.43,543.31
41.32131,493.01,551.71
41.34200,494.86,576.10
41.36255,495.71,603.93
41.38218,497.97,631.61
41.40226,502.37,648.93
41.42160,503.02,653.28
41.44095,499.69,660.61
41.46089,503.01,659.22
41.48253,500.39,654.68
41.50152,497.02,647.56
41.52079,497.40,633.74
41.54159,493.81,627.82
41.56075,492.93,619.14
41.58236,492.79,608.36
41.60156,491.86,602.41
41.62087,493.06,593.76
41.64107,495.02,587.16
41.66204,495.25,582.72
41.68139,490.99,577.93
41.70143,495.75,573.30
41.72143,494.05,573.63
41.74088,492.74,569.56
41.76109,494.09,564.44
41.78121,491.45,562.81
41.80120,492.40,557.17
41.82180,491.66,555.57
41.84129,492.35,555.94
41.86091,490.33,552.92
41.88113,490.02,551.89
41.90273,490.77,551.67
41.92412,488.87,553.38
41.94331,487.72,550.57
41.96414,487.71,548.03
41.98389,493.66,548.62
42.00289,490.93,546.53
42.02332,491.77,547.57
42.04438,488.78,549.51
42.06438,490.66,544.60
42.08480,488.25,546.11
42.10436,486.31,543.54
42.12486,485.72,540.12
42.14452,485.75,539.78
42.16466,487.99,542.89
42.18529,486.71,539.83
42.20430,486.62,546.30
42.22547,484.36,550.04
42.24462,483.58,548.00
42.26423,482.42,533.20
42.28459,480.36,506.27
42.30499,482.20,479.47
42.32497,480.00,454.68
42.34491,479.37,442.22
42.36503,480.15,433.63
42.38637,481.26,435.91
42.40611,479.09,438.98
42.42640,476.34,441.03
42.44440,474.52,448.18
42.46629,474.96,452.53
42.48617,475.53,462.33
42.50511,476.10,468.55
42.52557,479.07,477.21
42.54625,476.26,483.30
42.56574,476.64,490.90
42.58633,476.55,493.82
42.60555,478.40,504.64
42.62518,482.28,509.60
42.64441,482.38,510.88
42.66624,482.94,513.53
42.68546,482.71,518.86
42.70443,481.67,522.59
42.72484,481.98,527.88
42.74656,480.13,529.35
42.76687,477.24,527.76
42.78699,479.83,529.05
42.80650,477.87,529.99
42.82610,475.49,531.43
42.84764,476.73,530.51
42.86840,475.74,532.84
42.88775,474.95,530.62
42.90758,473.76,531.78
42.92831,472.82,533.39
42.94835,473.54,532.85
42.96812,473.15,533.14
42.98729,470.99,532.75
43.00923,471.33,531.93
43.02888,470.46,534.92
43.04771,471.98,534.26
43.06873,471.68,535.09
43.08803,472.80,535.59
43.10760,470.69,533.31
43.12878,470.20,535.78
43.14905,472.02,535.90
43.16747,470.96,536.99
43.18848,472.64,534.67
43.20867,470.94,535.28
43.22912,473.03,534.69
43.25055,471.98,533.86
43.26957,471.19,532.02
43.29011,472.11,533.72
43.30937,472.55,530.78
43.33016,473.50,531.97
43.34958,470.54,533.27
43.36999,472.58,534.02
43.39016,473.83,532.28
43.40937,468.39,532.97
43.43031,468.49,532.25
43.44953,472.73,528.64
43.47045,471.38,531.34
43.49007,471.32,529.54
43.50995,472.40,530.97
43.52846,471.93,528.56
43.54888,472.04,532.58
43.56863,473.30,533.26
43.58857,474.35,532.65
43.60968,471.28,532.63
43.62966,471.52,535.18
43.65025,475.18,536.07
43.66909,474.25,536.37
43.68957,473.15,534.04
43.70926,470.25,534.56
43.72916,470.17,536.44
43.74962,469.23,532.73
43.76899,471.49,531.18
43.79043,471.70,533.44
43.81016,471.76,532.00
43.82920,471.60,531.34
43.84950,472.57,533.19
43.86997,473.17,532.11
43.88962,471.16,533.67
43.90933,471.60,533.32
43.93005,472.00,531.64
43.94869,473.36,534.68
43.97089,471.65,535.22
43.98966,472.24,532.91
44.00984,471.99,533.72
44.03060,471.24,535.80
44.05034,472.77,535.32
44.07057,471.03,536.16
44.09186,472.33,533.26
44.11204,471.81,532.27
44.13078,474.73,530.71
44.15099,472.75,529.25
44.17264,475.56,531.41
44.19314,476.38,535.34
44.21538,481.21,534.60
44.23431,481.45,533.07
44.25565,483.11,534.56
44.27606,484.15,532.76
44.29605,489.16,531.40
44.31584,486.62,535.35
44.33599,488.00,536.59
44.35575,488.77,537.33
44.37638,489.23,538.28
44.39573,492.82,538.20
44.41727,491.23,537.92
44.43684,490.85,538.53
44.45716,489.60,540.27
44.47703,490.00,538.66
44.49854,490.40,541.92
44.51726,488.92,539.31
44.53888,490.65,542.59
44.55919,492.75,539.88
44.57802,492.62,542.72
44.59877,491.49,543.18
44.61838,493.57,539.35
44.63853,493.28,539.10
44.65844,493.34,538.74
44.67791,494.12,539.78
44.69822,493.53,542.61
44.71913,493.56,540.47
44.73886,490.55,540.13
44.75795,493.51,543.84
44.77875,493.74,543.70
44.79869,491.49,543.90
44.81777,491.63,542.56
44.83915,492.18,542.71
44.85883,494.43,544.65
44.87770,493.75,543.67
44.89940,493.32,541.13
44.91774,496.82,543.89
44.93939,493.23,540.67
44.95785,495.02,540.92
44.97814,495.06,541.23
44.99840,494.25,542.77
45.01787,493.44,541.05
45.03945,493.92,543.23
45.05766,494.14,542.21
45.07869,493.06,543.11
45.09851,490.46,545.52
45.11874,493.10,544.22
45.13905,494.39,541.65
45.15900,496.65,544.95
45.17788,496.04,542.77
45.19759,493.52,543.72
45.21885,493.63,544.72
45.23732,493.14,545.16
45.25807,490.12,543.44
45.27884,492.65,544.14
45.29858,492.42,544.82
45.31864,491.82,544.91
45.33748,493.18,547.04
45.35881,493.60,544.32
45.37915,494.31,545.42
45.39902,492.42,545.13
45.41816,494.54,546.59
45.43831,495.49,545.48
45.45933,495.23,546.32
45.47785,494.09,545.75
45.49849,489.96,542.95
45.51779,492.19,543.42
45.53877,491.16,544.32
45.55797,490.45,551.21
45.57846,492.37,563.89
45.59932,489.69,585.69
45.61845,490.00,604.30
45.63877,490.62,621.23
45.65929,489.38,630.21
45.67912,488.34,633.92
45.69831,488.93,637.96
45.71772,488.62,636.53
45.73866,486.58,631.19
45.75806,487.48,627.75
45.77887,491.51,622.17
45.79743,493.45,616.07
45.81875,495.34,608.06
45.83804,494.16,605.21
45.85849,496.79,598.59
45.87777,497.84,590.30
45.89836,496.15,586.17
45.91891,498.22,580.63
45.93733,500.06,578.85
45.95780,499.13,575.10
45.97895,498.90,570.87
45.99884,497.90,568.59
46.01907,500.63,563.33
46.03890,499.67,559.72
46.05847,498.01,560.05
46.07893,494.60,562.03
46.09776,495.62,561.05
46.11787,495.98,553.96
46.13870,495.13,555.69
46.15868,493.50,555.21
46.17936,494.06,550.03
46.19814,492.10,551.14
46.21903,495.79,551.67
46.23770,499.16,551.43
46.25807,496.19,548.05
46.27871,494.83,549.74
46.29864,494.57,549.28
46.31865,495.47,547.97
46.33905,496.09,547.40
46.36079,494.50,547.49
46.38180,493.34,546.16
46.40170,490.82,545.27
46.42183,489.75,545.82
46.44197,489.07,547.86
46.46237,488.88,546.21
46.48233,483.34,546.83
46.50334,485.32,546.19
46.52362,484.55,533.97
46.54363,481.27,517.08
46.56452,479.64,495.28
46.58502,476.84,471.73
46.60568,475.96,450.67
46.62720,474.36,440.26
46.64710,473.07,435.81
46.66635,471.19,433.53
46.68667,469.40,437.88
46.70740,470.82,440.55
46.72803,467.84,445.29
46.74786,466.54,452.63
46.76664,470.97,460.44
46.78694,469.85,468.40
46.80746,467.12,476.08
46.82848,465.92,484.37
46.84805,467.48,489.08
46.86805,467.27,496.48
46.88740,470.80,499.48
46.90708,470.54,506.58
46.92800,468.80,508.79
46.94696,470.17,512.79
46.96739,465.35,515.41
46.98694,467.98,521.70
47.00819,469.74,523.42
47.02779,469.77,522.83
47.04666,473.64,526.66
47.06661,472.40,526.30
47.08642,473.80,529.24
47.10812,472.65,530.59
47.12834,475.56,532.12
47.14679,476.54,533.68
47.16793,471.42,534.78
47.18831,472.20,532.43
47.20694,471.61,534.90
47.22806,473.26,536.23
47.24740,475.10,533.58
47.26733,473.57,536.78
47.28790,472.91,534.58
47.30811,474.12,537.26
47.32748,471.99,536.39
47.34686,475.37,538.90
47.36795,472.58,535.06
47.38818,473.15,533.37
47.40666,474.22,534.68
47.42662,472.99,536.95
47.44757,474.60,536.82
47.46780,474.23,534.61
47.48685,473.30,534.23
47.50805,473.76,535.10
47.52734,473.32,535.72
47.54810,472.31,535.45
47.56723,472.61,537.76
47.58682,471.61,535.63
47.60754,473.32,536.61
47.62689,474.75,536.67
47.64680,472.19,539.58
47.66659,470.78,540.98
47.68722,472.92,539.99
47.70791,471.68,537.37
47.72671,472.66,536.51
47.74692,473.44,536.05
47.76656,471.67,538.85
47.78708,471.23,536.04
47.80839,470.20,538.28
47.82850,468.56,536.85
47.84780,468.16,540.20
47.86669,468.79,544.49
47.88696,474.86,549.43
47.90789,481.38,557.70
47.92814,492.91,572.09
47.94654,505.51,590.09
47.96848,513.89,609.36
47.98799,520.69,630.86
48.00668,524.58,637.73
48.02690,521.77,629.78
48.04748,516.95,615.10
48.06630,511.01,589.85
48.08753,500.47,558.40
48.10751,489.61,529.61
48.12754,485.02,506.05
48.14633,479.07,485.08
48.16808,473.01,471.39
48.18769,469.89,462.49
48.20935,470.14,459.43
48.22794,467.87,454.40
48.24766,467.06,459.37
48.26809,463.63,462.10
48.28743,465.45,465.38
48.30756,464.83,473.57
48.32813,466.47,477.53
48.34764,466.35,483.84
48.36737,466.96,486.33
48.38870,465.70,491.96
48.40885,470.62,499.87
48.42817,469.51,504.41
48.44777,469.74,508.18
48.46786,468.92,512.94
48.48885,468.41,515.74
48.50754,469.93,519.06
48.52933,470.32,520.60
48.54795,470.97,525.19
48.56819,470.04,528.10
48.58759,467.65,526.25
48.60793,470.32,528.93
48.62878,469.02,528.51
48.64885,468.52,528.59
48.66790,469.38,531.08
48.68871,469.53,531.41
48.70848,471.23,533.60
48.72890,471.13,529.73
48.74993,471.12,533.31
48.76921,471.21,535.05
48.78972,471.04,533.39
48.80861,473.69,535.27
48.82846,472.16,537.10
48.84924,474.36,536.27
48.86889,476.09,539.43
48.88927,478.31,540.98
48.90984,477.85,538.46
48.92999,477.61,539.39
48.94959,476.36,542.82
48.97098,476.25,542.17
48.98976,475.20,538.66
49.01110,476.04,539.76
49.03058,479.01,538.57
49.04991,477.56,539.02
49.07112,476.58,539.47
49.09096,478.91,536.35
49.11096,476.74,537.20
49.13086,478.40,538.62
49.15136,480.58,538.00
49.17008,479.32,538.40
49.18977,479.14,534.13
49.20967,480.72,536.55
49.23106,482.38,537.77
49.24968,482.68,535.54
49.27058,484.38,536.14
49.29031,487.30,537.08
49.31123,484.78,538.06
49.33095,487.36,537.57
49.35129,483.40,536.82
49.37097,485.13,536.35
49.39099,483.55,537.71
49.41097,481.69,540.72
49.43075,475.63,542.11
49.44981,475.96,544.23
49.47122,476.69,543.99
49.49135,474.31,542.50
49.51138,478.14,544.29
49.53081,475.87,543.81
49.55033,475.62,546.48
49.56945,477.17,543.30
49.59075,477.86,541.87
49.61054,475.29,539.41
49.62996,474.01,536.76
49.64998,472.76,538.61
49.67098,476.10,536.23
49.69102,473.96,536.14
49.70977,475.20,536.02
49.73112,471.77,534.68
49.75058,471.21,535.73
49.76968,473.43,532.21
49.78972,475.15,535.10
49.80980,475.80,535.97
49.83087,475.12,536.80
49.84985,477.50,539.15
49.87016,477.54,539.61
