Program Time [s],data 0,data 1
29.02439,369.23,498.36
29.04495,369.68,495.71
29.06408,371.44,500.21
29.08411,369.59,499.34
29.10344,372.39,499.04
29.12352,369.99,498.37
29.14518,370.67,495.66
29.16416,372.27,497.48
29.18613,371.98,496.33
29.20654,374.19,497.37
29.22823,373.99,496.51
29.24674,374.10,498.18
29.26780,372.63,499.70
29.28721,377.21,501.94
29.30704,373.47,498.52
29.32823,373.53,499.11
29.34774,372.51,501.38
29.36810,373.55,499.01
29.38729,376.18,502.66
29.40696,376.55,504.54
29.42785,375.54,503.37
29.44843,375.55,502.38
29.46774,378.77,502.06
29.48785,378.33,502.03
29.50812,378.67,501.26
29.52795,378.71,499.89
29.54642,380.30,499.53
29.56703,378.57,503.75
29.58839,380.13,502.14
29.60846,379.63,501.14
29.62758,378.21,499.43
29.64841,380.27,496.93
29.66649,378.29,495.27
29.68730,380.96,494.79
29.70823,380.56,499.17
29.72715,373.72,495.46
29.74688,355.22,491.00
29.76827,334.91,482.61
29.78647,313.21,475.59
29.80776,291.87,463.43
29.82711,273.72,452.97
29.84810,258.83,443.31
29.86666,244.40,440.52
29.88652,241.21,438.30
29.90834,233.77,435.26
29.92783,235.11,435.49
29.94803,236.14,437.79
29.96745,240.92,440.76
29.98654,248.16,442.93
30.00817,255.55,443.64
30.02698,266.36,446.85
30.04712,273.49,451.91
30.06678,284.39,455.97
30.08691,294.72,459.40
30.10779,302.75,460.04
30.12801,311.12,465.30
30.14794,321.28,469.62
30.16698,327.97,473.90
30.18726,333.28,478.14
30.20709,342.62,484.14
30.22762,348.21,484.96
30.24831,350.22,486.45
30.26744,356.30,489.96
30.28773,362.84,493.61
30.30774,366.02,494.32
30.32708,367.41,496.52
30.34808,368.97,496.54
30.36759,373.79,502.27
30.38667,375.21,502.86
30.40709,375.17,501.57
30.42827,378.62,503.18
30.44733,378.72,502.71
30.46694,382.19,503.94
30.48762,382.45,502.71
30.50693,381.44,504.04
30.52713,384.39,508.40
30.54790,384.27,507.59
30.56807,385.98,509.62
30.58840,388.63,510.14
30.60694,402.54,517.40
30.62833,427.01,529.70
30.64698,457.57,545.23
30.66654,487.56,555.99
30.68761,517.38,570.56
30.70685,548.18,578.73
30.72796,562.80,580.18
30.74753,569.38,579.85
30.76836,564.32,573.41
30.78779,553.34,568.09
30.80775,541.68,561.75
30.82710,532.32,554.99
30.84730,516.48,549.50
30.86674,503.67,543.19
30.88824,488.61,539.76
30.90693,480.03,531.79
30.92822,469.70,529.59
30.94800,457.32,525.18
30.96797,450.70,519.80
30.98735,443.93,517.93
31.00810,433.72,517.57
31.02669,427.77,515.93
31.04647,420.76,514.67
31.06802,418.15,512.49
31.08671,414.32,510.29
31.10687,409.76,508.56
31.12751,407.95,505.07
31.14821,401.89,504.68
31.16839,401.78,504.73
31.18814,397.32,505.05
31.20679,397.04,507.71
31.22813,394.65,503.18
31.24826,391.73,505.00
31.26655,392.91,503.45
31.28833,392.06,501.01
31.30830,388.56,502.94
31.32824,388.94,502.67
31.34716,388.98,507.67
31.36790,391.36,508.50
31.38789,391.33,505.66
31.40824,387.60,505.46
31.42687,387.85,503.52
31.44921,388.75,504.18
31.46909,387.30,503.77
31.48868,389.66,500.53
31.51024,389.05,503.42
31.53027,387.49,503.48
31.54955,384.48,503.24
31.56980,383.01,501.79
31.58964,384.88,501.89
31.61076,382.01,500.06
31.62983,385.47,500.44
31.65113,385.36,500.73
31.67054,382.26,501.87
31.69123,383.49,505.98
31.71179,380.77,506.91
31.73139,380.30,504.78
31.75076,383.01,506.40
31.77100,382.34,506.41
31.79196,383.13,506.07
31.81104,382.06,507.09
31.83183,385.22,508.05
31.85239,382.43,511.25
31.87067,385.35,507.81
31.89117,383.17,506.15
31.91097,384.05,505.22
31.93109,383.11,504.98
31.95184,383.80,504.22
31.97219,381.87,505.33
31.99078,383.32,505.02
32.01212,381.36,508.74
32.03124,382.51,505.56
32.05067,379.34,504.55
32.07187,380.91,503.50
32.09218,382.62,504.82
32.11171,380.31,502.26
32.13216,379.47,502.78
32.15229,380.91,503.17
32.17226,380.01,503.42
32.19273,378.13,504.42
32.21274,379.20,504.13
32.23177,377.78,505.82
32.25202,375.53,500.95
32.27166,375.11,503.78
32.29393,373.79,502.28
32.31369,375.32,498.91
32.33330,375.67,500.18
32.35386,375.83,504.59
32.37331,375.09,501.49
32.39361,377.33,501.56
32.41397,375.69,500.10
32.43367,375.56,502.09
32.45349,373.43,500.89
32.47308,372.11,499.46
32.49326,373.20,501.57
32.51345,370.86,503.88
32.53320,368.81,503.72
32.55356,368.47,502.90
32.57437,370.43,502.64
32.59433,367.11,500.92
32.61257,368.18,498.22
32.63379,370.39,497.94
32.65346,370.01,501.49
32.67349,369.70,502.06
32.69414,368.41,499.51
32.71253,369.17,501.81
32.73406,371.27,498.37
32.75268,368.84,500.58
32.77263,370.31,499.30
32.79429,369.06,497.12
32.81387,369.97,499.24
32.83253,370.78,501.01
32.85445,367.94,501.68
32.87297,370.47,501.07
32.89335,369.15,503.07
32.91294,370.51,500.95
32.93449,371.94,502.33
32.95274,370.48,502.03
32.97392,370.86,503.71
32.99291,371.70,503.40
33.01265,369.65,499.74
33.03402,370.25,499.89
33.05276,367.72,500.23
33.07313,368.69,498.31
33.09358,367.76,499.35
33.11406,366.23,502.36
33.13271,367.79,504.03
33.15438,369.39,502.56
33.17403,365.85,501.60
33.19382,365.90,500.84
33.21357,366.58,501.85
33.23251,367.98,501.85
33.25302,367.43,498.78
33.27369,366.30,500.13
33.29332,368.80,502.45
33.31350,370.37,503.60
33.33368,366.75,501.68
33.35313,369.18,499.36
33.37380,369.20,501.84
33.39437,366.60,500.56
33.41431,367.75,499.59
33.43429,368.53,499.37
33.45250,369.26,502.40
33.47416,368.63,499.46
33.49342,369.22,501.02
33.51287,367.77,499.53
33.53261,365.61,500.15
33.55411,353.44,503.21
33.57392,335.81,506.05
33.59298,315.12,507.56
33.61325,294.58,506.83
33.63325,276.59,501.32
33.65361,257.74,486.79
33.67449,246.00,475.32
33.69437,237.56,461.99
33.71471,232.30,450.66
33.73370,231.73,442.78
33.75572,231.10,438.63
33.77492,237.22,436.55
33.79457,244.70,434.47
33.81583,252.63,433.30
33.83508,259.78,432.55
33.85501,269.80,430.40
33.87617,280.29,433.55
33.89618,287.23,438.00
33.91509,297.53,445.46
33.93534,304.06,448.74
33.95606,312.31,454.11
33.97573,317.88,460.65
33.99648,324.15,463.03
34.01468,331.33,467.88
34.03476,336.42,473.32
34.05596,339.54,476.62
34.07582,345.05,482.02
34.09519,350.41,482.44
34.11630,352.16,487.16
34.13468,354.17,488.19
34.15456,355.87,489.28
34.17569,359.64,489.44
34.19593,358.08,490.21
34.21600,361.01,492.92
34.23600,363.13,494.53
34.25518,366.99,498.05
34.27546,372.25,501.49
34.29505,389.10,511.46
34.31573,411.80,522.44
34.33549,439.34,537.38
34.35677,470.21,550.50
34.37567,499.81,561.12
34.39712,522.56,568.62
34.41648,534.82,569.15
34.43723,536.86,564.97
34.45545,528.82,560.13
34.47539,521.13,556.14
34.49740,508.57,551.12
34.51551,497.89,545.18
34.53685,485.80,542.13
34.55656,471.20,538.25
34.57736,462.38,534.41
34.59652,452.80,530.36
34.61550,442.75,529.46
34.63614,434.05,523.36
34.65698,427.24,522.81
34.67647,421.58,519.29
34.69700,416.48,518.25
34.71796,409.09,520.52
34.73681,408.10,517.11
34.75773,401.97,516.36
34.77667,397.68,512.54
34.79736,396.60,511.61
34.81677,394.80,509.18
34.83665,392.97,507.18
34.85640,389.44,506.72
34.87783,388.96,509.89
34.89774,387.84,509.38
34.91733,387.65,509.13
34.93677,386.03,507.09
34.95791,386.54,507.04
34.97780,386.82,504.21
34.99906,384.93,503.12
35.01798,386.91,507.27
35.03800,388.53,505.89
35.05928,387.76,509.65
35.07934,386.32,508.66
35.09905,386.98,506.67
35.11856,388.01,505.34
35.13754,387.02,505.70
35.15906,384.24,504.54
35.17890,383.70,505.19
35.19847,383.69,504.48
35.21793,385.76,507.87
35.23784,384.81,508.60
35.25752,383.82,505.05
35.27909,387.35,507.33
35.29811,386.00,506.62
35.31927,386.96,504.50
35.33762,385.60,504.28
35.35895,386.89,503.90
35.37907,383.59,507.24
35.39886,386.26,507.17
35.41912,386.02,506.44
35.43920,386.32,504.22
35.45740,386.12,502.71
35.47928,385.87,502.57
35.49923,385.68,502.64
35.51883,383.83,501.20
35.53835,384.74,503.67
35.55896,386.40,507.16
35.57787,386.55,506.29
35.59932,387.07,504.12
35.61903,384.37,503.28
35.63887,387.12,502.49
35.65733,385.84,502.75
35.67749,384.73,505.48
35.69831,386.53,506.34
35.71850,383.76,506.48
35.73842,383.97,508.66
35.75898,381.54,507.51
35.77819,384.09,507.53
35.79781,382.59,506.90
35.81777,385.81,503.72
35.83788,383.34,502.53
35.85803,384.80,505.79
35.87780,385.33,505.58
35.89838,385.41,506.81
35.91865,386.48,507.74
35.93851,386.66,504.82
35.95755,386.70,501.81
35.97803,387.48,501.79
35.99901,387.35,503.16
36.01886,388.40,501.99
36.03907,388.74,504.18
36.05876,389.84,505.93
36.07851,388.45,505.39
36.09947,388.86,505.56
36.11888,386.12,505.81
36.14000,388.06,501.95
36.15883,385.90,504.17
36.17942,385.32,504.53
36.19933,383.94,502.64
36.21932,385.38,504.61
36.23948,386.10,506.06
36.25938,383.98,506.44
36.27938,385.91,504.56
36.30016,385.66,507.28
36.31916,386.76,504.82
36.33898,387.64,504.16
36.36017,387.66,505.58
36.37845,385.05,506.02
36.39866,386.71,506.07
36.41935,388.66,506.73
36.44031,387.65,503.69
36.45960,384.86,501.93
36.47970,387.95,503.45
36.49987,386.56,501.11
36.51835,387.15,503.51
36.53831,388.18,504.05
36.55945,386.05,507.60
36.57972,387.52,505.66
36.59851,384.63,503.29
36.61941,385.56,505.71
36.63958,387.56,504.82
36.66142,385.21,506.16
36.68137,387.52,505.38
36.70117,385.38,503.47
36.72249,385.85,507.13
36.74195,384.45,507.73
36.76207,386.19,507.09
36.78180,384.47,503.70
36.80290,381.42,502.19
36.82198,382.43,505.24
36.84327,380.90,502.00
36.86275,378.76,500.42
36.88169,379.57,503.69
36.90219,379.17,504.71
36.92256,380.25,503.34
36.94207,379.53,501.04
36.96177,378.98,503.97
36.98213,378.41,503.31
37.00198,379.52,504.42
37.02146,374.90,501.90
37.04327,377.95,504.54
37.06284,376.19,508.14
37.08238,375.42,507.51
37.10315,375.00,506.61
37.12210,376.79,505.14
37.14230,373.96,505.66
37.16230,368.15,517.14
37.18296,357.22,534.41
37.20370,338.56,572.36
37.22342,321.15,603.49
37.24492,301.54,612.99
37.26508,282.39,607.56
37.28461,270.86,589.57
37.30508,260.58,563.98
37.32507,250.27,533.66
37.34545,243.78,497.52
37.36599,241.97,466.30
37.38581,246.62,436.80
37.40450,247.87,419.67
37.42621,252.12,403.81
37.44435,260.00,391.25
37.46572,265.02,388.94
37.48420,270.39,388.71
37.50446,279.23,393.63
37.52613,287.74,396.96
37.54566,295.78,407.60
37.56630,299.73,417.80
37.58588,306.91,423.56
37.60439,313.02,432.11
37.62599,322.06,437.72
37.64444,328.14,445.42
37.66438,334.30,454.00
37.68450,339.45,455.67
37.70455,341.60,462.95
37.72508,347.13,470.95
37.74480,347.60,477.13
37.76455,351.70,482.64
37.78615,352.98,483.89
37.80570,355.91,485.83
37.82467,356.09,486.89
37.84497,359.86,488.98
37.86597,360.70,492.27
37.88517,362.72,495.06
37.90526,362.96,497.38
37.92510,364.52,496.82
37.94513,363.28,499.55
37.96537,365.43,496.53
37.98438,364.97,499.01
38.00593,363.68,497.86
38.02462,366.51,496.81
38.04537,369.03,499.57
38.06559,374.64,500.91
38.08502,385.64,505.75
38.10580,405.60,512.36
38.12499,434.65,524.17
38.14620,461.81,536.38
38.16559,489.69,545.05
38.18573,510.63,554.07
38.20571,524.20,556.80
38.22520,528.50,555.69
38.24547,525.37,555.55
38.26535,517.94,548.76
38.28580,505.81,543.97
38.30550,493.16,538.23
38.32548,480.96,530.51
38.34575,469.63,526.64
38.36585,457.11,523.09
38.38459,447.93,521.29
38.40590,435.27,521.83
38.42606,426.55,518.25
38.44483,421.00,517.27
38.46603,411.68,511.65
38.48450,405.42,509.53
38.50502,400.67,506.51
38.52470,397.54,505.70
38.54433,394.78,508.51
38.56524,388.59,509.77
38.58490,384.65,508.11
38.60462,384.56,508.59
38.62605,383.21,505.97
38.64511,379.51,505.94
38.66626,379.09,507.15
38.68576,380.29,503.09
38.70515,376.81,500.87
38.72576,378.73,504.08
38.74512,375.45,503.07
38.76599,375.64,502.19
38.78546,374.36,501.90
38.80545,371.66,499.85
38.82718,374.45,500.72
38.84575,371.69,498.05
38.86602,374.07,500.87
38.88726,372.73,499.72
38.90623,372.65,503.31
38.92636,373.16,501.36
38.94718,374.16,500.05
38.96602,373.49,497.80
38.98661,374.03,498.59
39.00619,374.38,498.44
39.02621,373.97,497.27
39.04640,373.95,500.70
39.06606,372.84,502.69
39.08702,374.07,505.40
39.10753,373.94,501.87
39.12728,373.75,498.63
39.14670,371.44,496.91
39.16723,370.81,495.46
39.18847,374.42,494.10
39.20845,375.54,498.29
39.22884,376.17,498.06
39.24963,376.31,497.50
39.26905,376.81,496.85
39.28894,378.85,497.38
39.30886,378.93,495.76
39.32871,381.32,494.75
39.34848,383.75,495.41
39.36999,384.14,493.50
39.38890,382.69,494.05
39.40904,382.64,497.17
39.42964,382.81,498.36
39.45046,385.71,495.69
39.47085,386.18,495.66
39.48987,385.71,494.01
39.51030,386.64,495.23
39.53159,385.39,496.71
39.55013,386.72,497.44
39.57123,386.14,500.81
39.59176,386.92,499.29
39.61340,386.60,502.67
39.63346,387.95,503.13
39.65268,388.49,499.14
39.67240,387.25,502.11
39.69331,386.10,498.97
39.71358,387.33,501.81
39.73239,388.31,502.93
39.75308,385.54,504.62
39.77256,386.57,501.52
39.79278,388.19,502.35
39.81267,388.79,501.09
39.83398,389.08,499.39
39.85380,387.09,497.53
39.87474,388.23,498.50
39.89594,386.36,502.63
39.91502,383.70,502.50
39.93680,381.55,505.74
39.95730,380.85,505.46
39.97709,379.61,505.28
39.99747,381.63,502.30
40.01728,378.62,504.10
40.03645,380.75,502.04
40.05658,378.59,503.62
40.07642,376.99,504.21
40.09662,375.86,502.36
40.11800,375.60,504.31
40.13821,375.59,501.92
40.15612,373.69,498.72
40.17887,374.96,499.12
40.19735,371.63,498.67
40.21746,370.47,499.01
40.23924,373.56,500.39
40.25835,370.56,498.76
40.27820,373.24,501.26
40.29809,369.64,497.55
40.31878,370.24,498.88
40.33995,369.23,497.53
40.35845,369.41,497.81
40.37994,369.17,496.70
40.40094,370.83,497.00
40.42080,369.99,499.69
40.44068,367.48,501.01
40.45977,368.34,500.80
40.47956,366.71,498.77
40.49956,363.91,499.37
40.51966,366.19,497.87
40.54098,366.32,498.98
40.55930,363.52,495.35
40.57967,364.22,498.15
40.59930,363.96,499.08
40.62114,365.21,497.65
40.63990,364.27,498.62
40.66070,364.40,498.43
40.67971,362.50,494.98
40.70094,362.95,495.51
40.72060,362.93,497.76
40.74004,362.19,493.20
40.76063,362.40,494.84
40.78111,362.83,496.15
40.80049,362.00,498.48
40.81926,364.60,497.59
40.84067,362.27,496.13
40.85937,363.32,493.90
40.88069,363.82,496.03
40.90055,363.34,492.97
40.92004,365.24,493.99
40.93955,365.48,495.34
40.96027,362.51,496.88
40.98065,365.13,497.09
40.99976,362.53,494.54
41.02129,349.57,491.01
41.03990,331.07,483.32
41.05974,303.10,474.80
41.08053,284.09,462.48
41.10106,266.34,455.41
41.11903,250.95,449.37
41.14060,240.41,448.06
41.16007,230.67,444.71
41.18000,227.55,444.67
41.20045,231.54,446.64
41.21942,235.23,448.54
41.23990,240.35,448.83
41.26096,250.34,449.92
41.27948,257.20,451.21
41.30095,265.75,457.11
41.32064,276.60,459.90
41.34055,281.97,463.19
41.36038,291.15,463.75
41.37910,300.14,464.00
41.39923,306.54,467.94
41.41975,316.65,470.36
41.44039,322.44,472.36
41.46042,327.71,477.77
41.48075,332.25,478.84
41.49975,339.85,483.82
41.51969,339.61,486.85
41.53967,345.80,485.53
41.56087,350.44,486.99
41.58191,350.98,486.26
41.60153,354.45,489.48
41.62021,358.35,487.71
41.64091,359.20,491.92
41.66216,361.04,495.87
41.68070,362.39,496.68
41.70007,366.51,496.58
41.72087,366.01,499.19
41.74178,366.23,494.79
41.76009,367.72,497.57
41.78175,371.94,496.72
41.80266,387.82,502.80
41.82242,410.83,516.52
41.84274,438.62,527.33
41.86197,462.70,539.45
41.88272,490.93,550.97
41.90349,513.74,555.31
41.92372,528.64,559.21
41.94224,531.64,555.24
41.96405,528.85,552.28
41.98399,523.66,550.58
42.00438,514.26,549.20
42.02539,505.32,543.20
42.04502,494.22,541.35
42.06580,483.72,535.27
42.08539,470.78,528.33
42.10445,462.23,524.83
42.12470,452.95,523.56
42.14516,443.47,519.36
42.16592,438.05,516.94
42.18540,429.92,516.10
42.20501,423.65,516.40
42.22485,419.68,515.68
42.24610,417.98,512.00
42.26466,414.69,508.75
42.28575,409.78,508.44
42.30571,408.48,503.65
42.32611,405.97,506.06
42.34681,401.64,502.24
42.36513,399.96,505.07
42.38583,399.82,507.24
42.40574,397.05,507.06
42.42618,396.39,506.99
42.44662,395.51,505.61
42.46570,393.37,506.13
42.48677,390.96,502.75
42.50604,389.28,502.10
42.52557,390.19,503.26
42.54637,391.30,503.56
42.56594,391.21,507.64
42.58588,388.75,508.02
42.60640,387.10,506.98
42.62704,386.61,506.06
42.64604,389.23,503.95
42.66582,388.01,503.96
42.68612,385.33,502.84
42.70655,386.45,504.02
42.72587,387.33,503.26
42.74619,385.35,505.14
42.76540,386.76,505.23
42.78573,386.78,506.97
42.80579,388.57,504.59
42.82695,385.53,503.02
42.84676,386.25,503.11
42.86624,388.14,503.43
42.88545,386.60,504.85
42.90600,387.90,504.96
42.92600,387.76,508.27
42.94505,390.32,508.44
42.96603,390.11,508.32
42.98537,385.92,507.08
43.00694,389.05,505.31
43.02698,387.99,504.47
43.04675,387.25,503.68
43.06642,386.85,503.23
43.08593,386.60,505.32
43.10520,384.92,508.20
43.12659,388.31,509.99
43.14616,387.69,507.27
43.16577,385.87,506.12
43.18641,388.93,504.91
43.20622,388.49,506.48
43.22686,387.29,503.63
43.24583,388.57,503.05
43.26522,384.29,506.50
43.28573,384.32,505.17
43.30611,385.94,507.13
43.32704,384.08,505.55
43.34516,386.42,507.80
43.36531,383.92,502.77
43.38645,383.39,503.18
43.40659,386.86,502.66
43.42616,384.86,504.19
43.44643,386.23,505.10
43.46610,384.65,508.98
43.48542,388.56,510.43
43.50651,386.72,506.65
43.52538,387.80,509.14
43.54525,387.25,507.65
43.56603,387.49,506.49
43.58590,387.94,505.28
43.60585,388.19,505.35
43.62691,387.03,506.25
43.64579,388.39,505.98
43.66680,386.60,508.45
43.68597,387.54,507.48
43.70598,385.60,507.54
43.72695,385.36,507.02
43.74704,385.39,507.89
43.76628,383.46,507.07
43.78550,386.60,503.07
43.80670,384.46,504.63
43.82582,386.56,505.03
43.84651,386.25,506.85
43.86551,386.89,507.94
43.88556,386.37,508.90
43.90673,387.15,506.13
43.92524,385.69,503.18
43.94686,386.25,502.36
43.96655,383.75,503.72
43.98666,382.52,500.77
44.00527,383.01,502.14
44.02567,383.60,503.62
44.04660,382.83,507.11
44.06697,382.51,506.92
44.08524,383.85,503.06
44.10647,383.01,505.34
44.12783,380.27,501.46
44.14617,384.30,504.38
44.16777,381.80,503.27
44.18638,382.47,500.61
44.20643,382.99,504.24
44.22634,383.55,507.56
44.24797,382.76,505.90
44.26634,380.77,503.36
44.28605,380.17,502.37
44.30688,382.53,502.35
44.32809,382.68,503.32
44.34780,382.94,502.55
44.36619,381.24,503.17
44.38802,379.08,504.39
44.40720,381.48,506.89
44.42741,380.53,505.45
44.44702,382.00,505.41
44.46724,381.51,503.96
44.48733,382.22,502.57
44.50657,382.49,504.02
44.52818,380.57,501.87
44.54721,378.51,500.69
44.56667,377.71,499.30
44.58799,377.83,503.46
44.60620,378.38,503.09
44.62642,379.78,504.30
44.64732,379.76,503.10
44.66639,379.81,504.19
44.68784,377.95,504.15
44.70765,377.10,502.14
44.72624,377.10,503.17
44.74602,380.38,499.19
44.76843,379.01,503.12
44.78854,376.80,504.98
44.80727,378.74,502.55
44.82839,377.50,506.15
44.84831,374.73,500.02
44.86772,363.12,495.97
44.88737,340.04,492.44
44.90905,314.85,489.34
44.92829,294.93,484.87
44.94740,274.46,480.91
44.96742,260.15,474.78
44.98814,252.93,470.15
45.00886,245.08,464.89
45.02878,242.47,457.00
45.04791,244.21,451.88
45.06908,248.17,450.75
45.08730,255.03,448.78
45.10724,262.67,447.79
45.12863,269.15,449.55
45.14767,277.04,452.18
45.16985,284.76,452.62
45.18866,292.42,458.55
45.20957,298.80,457.97
45.22812,305.66,463.10
45.24924,311.72,463.24
45.26832,320.40,468.95
45.28986,325.40,470.06
45.30946,331.03,474.49
45.32822,336.55,480.54
45.34937,339.04,485.04
45.37072,342.96,489.29
45.39083,348.11,490.48
45.40962,350.66,493.93
45.43048,354.74,492.92
45.44903,355.64,493.93
45.47028,358.26,495.95
45.49103,358.89,496.19
45.51098,362.87,498.52
45.53093,362.84,502.06
45.54903,365.40,501.14
45.57026,364.22,502.83
45.58981,366.74,502.02
45.60926,366.17,503.63
45.63081,366.31,501.21
45.65099,372.05,504.20
45.66985,382.13,509.18
45.69064,396.01,516.64
45.70982,422.88,531.39
45.73048,445.88,546.24
45.75105,471.14,553.64
45.76987,496.08,561.44
45.79083,512.56,565.15
45.81071,524.05,570.12
45.83029,530.42,567.78
45.85061,526.06,566.21
45.87094,520.00,559.15
45.89023,506.35,550.51
45.90924,496.41,548.53
45.93019,483.86,541.10
45.95185,470.23,537.77
45.97180,459.24,531.59
45.99051,451.03,525.53
46.01279,441.79,523.01
46.03396,433.03,516.19
46.05332,424.98,513.46
46.07261,419.03,512.30
46.09236,416.55,510.22
46.11363,408.38,511.07
46.13366,404.28,513.65
46.15337,400.45,510.61
46.17272,400.54,509.15
46.19252,395.83,507.46
46.21220,393.79,504.53
46.23373,393.13,503.97
46.25441,389.25,504.46
46.27314,389.83,500.56
46.29496,389.64,502.55
46.31322,388.89,503.71
46.33386,389.05,505.94
46.35451,390.66,506.20
46.37559,389.79,505.62
46.39416,390.12,503.03
46.41479,389.44,501.82
46.43447,389.72,503.61
46.45590,387.05,499.56
46.47519,383.33,498.24
46.49487,385.17,499.64
46.51438,384.43,501.14
46.53499,383.27,501.50
46.55552,381.87,499.54
46.57523,381.58,496.94
46.59476,385.41,497.29
46.61550,382.77,497.74
46.63560,383.59,495.74
46.65585,382.04,497.57
46.67476,382.92,494.08
46.69420,386.89,498.90
46.71594,385.27,499.98
46.73548,388.01,500.98
46.75478,387.79,505.44
46.77464,387.19,504.58
46.79611,389.23,501.41
46.81460,386.60,502.11
46.83595,387.74,502.85
46.85562,389.50,502.09
46.87412,389.18,500.48
46.89586,389.52,503.41
46.91564,391.06,503.52
46.93432,388.59,504.89
46.95475,392.07,503.68
46.97440,388.91,504.72
46.99508,390.22,502.04
47.01565,390.06,504.11
47.03487,389.95,501.85
47.05597,387.77,500.01
47.07527,389.20,500.87
47.09511,389.97,502.66
47.11494,386.99,505.19
47.13529,386.96,505.89
47.15541,388.17,502.22
47.17595,388.21,503.41
47.19476,386.97,499.61
47.21570,388.82,500.78
47.23556,387.38,500.88
47.25663,389.24,500.58
47.27567,389.73,502.97
47.29525,388.73,505.32
47.31622,387.83,507.67
47.33586,388.20,505.69
47.35543,389.48,504.99
47.37696,387.28,504.35
47.39610,388.09,499.27
47.41576,387.43,498.96
47.43514,388.13,500.93
47.45654,389.97,501.53
47.47692,390.72,501.81
47.49579,387.49,504.18
47.51566,389.41,503.79
47.53650,387.79,505.76
47.55574,387.77,507.47
47.57710,389.70,505.58
47.59620,389.47,502.69
47.61637,388.26,501.28
47.63726,389.99,500.11
47.65713,386.88,499.40
47.67818,388.17,502.19
47.69848,388.18,502.76
47.71746,385.87,507.21
47.73835,386.05,507.65
47.75772,384.94,506.20
47.77755,387.32,505.60
47.79788,385.14,501.68
47.81909,388.81,502.23
47.83714,385.60,501.69
47.85769,386.72,503.85
47.87887,384.49,505.31
47.89759,387.18,505.97
47.91744,386.67,507.20
47.93864,384.22,507.16
47.95736,385.82,508.87
47.97729,381.06,503.90
47.99786,381.19,502.50
48.01723,382.23,500.17
48.03746,382.75,500.28
48.05780,383.01,501.29
48.07863,382.72,500.45
48.09879,383.81,501.08
48.11791,385.72,505.25
48.13705,384.57,503.53
48.15877,381.69,505.77
48.17743,382.83,504.08
48.19776,380.94,502.99
48.21858,381.15,502.54
48.23887,382.85,504.17
48.25869,381.78,501.33
48.27727,380.13,503.94
48.29861,379.77,501.00
48.31856,381.48,503.17
48.33827,381.22,506.41
48.35817,381.20,505.57
48.37704,381.81,506.35
48.39826,378.80,504.39
48.41708,382.76,505.16
48.43757,381.46,503.20
48.45797,381.96,501.40
48.47799,381.56,499.54
48.49877,380.41,500.29
48.51895,378.95,500.86
48.53896,378.68,505.42
48.55749,379.00,504.49
48.57825,379.34,506.95
48.59890,380.69,506.76
48.61871,379.26,504.95
48.63784,380.24,506.70
48.65698,380.12,505.85
48.67789,380.91,504.40
48.69864,379.61,502.44
48.71857,377.31,501.94
48.73815,379.72,506.41
48.75870,380.83,504.46
48.77772,378.59,510.02
48.79872,381.70,507.15
48.81785,381.02,506.48
48.83746,379.87,505.12
48.85779,379.14,504.34
48.87719,381.17,501.52
48.89846,379.47,501.93
48.91887,378.84,500.20
48.93727,380.87,502.69
48.95745,381.89,505.20
48.97701,379.00,505.43
48.99788,378.48,505.70
49.01744,382.80,509.03
49.03813,382.90,508.40
49.05700,372.78,503.05
49.07922,354.31,498.67
49.09949,334.62,493.19
49.11950,307.83,488.92
49.13996,286.69,483.59
49.16159,267.00,475.94
49.18139,255.47,470.20
49.20215,246.43,462.84
49.22122,242.99,457.37
49.24181,239.34,452.02
49.26185,244.20,446.39
49.28256,247.76,442.59
49.30228,252.19,442.93
49.32195,261.57,443.17
49.34242,272.05,442.28
49.36290,277.27,445.05
49.38194,286.43,452.83
49.40239,293.45,456.53
49.42293,301.00,460.56
49.44116,306.14,463.97
49.46167,315.45,464.74
49.48192,319.05,467.57
49.50283,326.75,467.64
49.52180,331.71,470.37
49.54300,335.57,476.81
49.56154,341.96,478.49
49.58279,344.52,480.18
49.60232,348.38,485.56
49.62084,351.29,491.18
49.64129,354.52,493.84
49.66273,357.90,495.39
49.68153,359.04,497.18
49.70149,359.57,497.60
49.72143,362.71,497.01
49.74230,363.82,494.50
49.76266,364.81,494.69
49.78138,364.69,495.18
49.80104,362.87,497.92
49.82140,365.87,497.81
49.84131,374.07,505.90
49.86101,390.18,518.80
49.88370,413.30,533.34
49.90296,441.50,544.98
49.92480,471.69,557.30
49.94533,497.42,561.03
49.96426,519.80,567.05
49.98442,525.96,562.79
50.00594,528.33,558.97
50.02468,518.45,554.36
50.04459,513.37,549.39
50.06542,500.58,547.30
50.08483,489.14,541.88
50.10493,478.92,538.09
50.12443,467.55,531.04
50.14533,456.76,528.64
50.16402,447.19,521.69
50.18444,439.82,519.31
50.20599,429.47,515.23
50.22498,420.66,511.03
50.24604,415.85,507.86
50.26482,413.51,513.47
50.28497,408.58,515.08
50.30501,409.75,514.91
50.32461,405.02,515.39
50.34653,404.61,512.55
50.36676,401.52,514.08
50.38608,399.58,509.13
50.40702,398.12,505.75
50.42632,396.75,504.54
50.44660,393.62,501.92
50.46639,393.98,501.40
50.48773,389.91,500.14
50.50681,391.85,502.40
50.52740,389.31,503.92
50.54871,390.53,505.81
50.56768,389.75,504.85
50.58882,390.76,505.85
50.60962,387.74,505.23
50.62955,390.27,501.43
50.64962,389.77,500.43
50.66876,391.11,500.22
50.68826,390.84,501.06
50.70882,387.33,501.68
50.72949,387.88,504.07
50.74896,389.56,506.12
50.76782,387.97,507.55
50.78938,388.49,508.46
50.80850,390.17,509.60
50.82917,388.21,505.79
50.84816,389.08,504.63
50.86920,390.31,501.70
50.88811,389.06,503.03
50.90990,388.96,501.05
50.92840,386.90,496.75
50.94936,389.64,500.81
50.96887,387.02,499.83
50.98797,390.38,503.61
51.00852,386.84,499.88
51.02914,388.74,500.56
51.04798,387.81,501.12
51.06954,387.75,497.87
51.08814,389.32,496.14
51.10990,388.61,496.84
51.12992,385.91,497.47
51.15091,385.36,493.12
51.17029,387.65,493.31
51.19042,384.65,496.65
51.21110,387.87,498.07
51.23100,387.11,499.04
51.25160,385.41,501.55
51.27178,384.25,499.79
51.29192,381.65,497.97
51.31345,379.25,497.33
51.33251,379.05,494.17
51.35209,379.17,495.10
51.37257,379.13,494.99
51.39196,377.48,493.15
51.41288,378.86,495.19
51.43308,377.61,498.54
51.45453,377.61,498.54
51.47565,375.48,498.26
51.49416,373.65,502.36
51.51489,375.05,502.24
51.53454,371.43,498.80
51.55409,370.79,497.50
51.57596,370.89,497.91
51.59498,373.19,497.89
51.61550,371.26,497.86
51.63554,372.87,498.44
51.65520,374.70,497.37
51.67591,372.12,499.30
51.69538,371.64,500.57
51.71542,371.33,505.21
51.73560,374.19,504.85
51.75413,372.51,505.58
51.77455,372.11,502.23
51.79530,371.29,503.84
51.81434,371.36,501.96
51.83443,370.04,501.60
51.85565,370.11,499.69
51.87426,368.41,499.08
51.89571,369.43,502.48
51.91520,368.51,502.36
51.93526,367.89,505.19
51.95439,370.77,506.81
51.97531,368.82,504.60
51.99635,368.32,503.68
52.01724,369.05,500.13
52.03619,370.46,499.43
52.05711,368.85,499.79
52.07711,372.05,497.98
52.09773,371.50,498.22
52.11864,373.35,498.31
52.13727,371.62,500.90
52.15711,370.49,502.06
52.17823,374.39,502.05
52.19882,374.66,502.68
52.21715,373.48,500.09
52.23716,372.00,500.96
52.25809,371.66,499.61
52.27977,374.06,498.22
52.29890,374.25,495.28
52.31876,371.68,497.56
52.33785,372.51,496.41
52.35846,371.59,492.46
52.37941,372.59,496.21
52.39870,375.66,499.00
52.41851,372.52,499.01
52.43957,373.06,497.73
52.45859,372.49,498.03
52.47886,373.23,497.55
52.49959,374.93,498.54
52.51878,372.47,496.06
52.53951,373.57,495.70
52.55885,374.25,496.48
52.57799,376.48,494.57
52.59882,376.76,494.79
52.61941,374.77,499.05
52.64001,374.29,499.45
52.65922,374.67,502.94
52.67812,376.73,500.53
52.69795,374.19,498.41
52.71865,373.99,501.02
52.73835,374.84,499.78
52.75892,373.83,494.53
52.77957,373.93,495.38
52.79961,376.03,493.45
52.81984,374.53,495.62
52.83978,373.40,495.27
52.85987,376.29,497.44
52.87812,376.44,497.36
52.89888,376.16,498.34
52.91984,373.94,500.44
52.93931,375.44,499.67
52.95844,372.94,502.73
52.97955,374.34,502.44
52.99794,375.67,500.90
53.01903,373.05,498.94
53.03888,373.20,496.79
53.05846,376.34,496.91
53.07983,373.22,493.00
53.09903,375.21,492.97
53.11849,372.76,496.86
53.13846,375.22,500.53
53.15867,376.26,500.48
53.17901,376.09,501.38
53.19930,376.63,500.64
53.21897,377.40,502.22
53.23868,379.64,500.61
53.25840,379.81,501.05
53.27862,376.51,499.96
53.29914,377.57,499.57
53.31811,378.61,498.29
53.33904,375.87,495.00
53.35831,376.39,497.81
53.37949,374.86,498.97
53.39830,377.04,500.77
53.41830,377.22,501.92
53.43891,378.26,499.46
53.45921,377.85,500.01
53.47818,377.92,499.64
53.49917,378.50,500.44
53.51808,379.04,498.93
53.53948,378.80,494.15
53.55791,379.27,493.89
53.57944,377.34,493.57
53.59870,361.88,493.60
53.61896,341.04,491.40
53.63959,319.80,492.86
53.65841,295.92,492.39
53.67965,276.19,485.06
53.69879,261.27,473.48
53.71858,254.96,462.23
53.73904,246.80,455.98
53.75876,248.77,452.06
53.77781,250.13,444.49
53.79851,253.55,442.83
53.81945,259.77,440.74
53.83852,269.08,441.22
53.85917,277.13,441.81
53.87926,286.10,442.77
53.89929,294.91,448.65
53.91957,303.38,454.86
53.93858,311.82,459.73
53.95811,318.18,464.88
53.97807,326.68,471.56
53.99984,333.37,472.93
54.01849,338.48,476.93
54.03861,345.44,477.43
54.05913,352.06,479.16
54.07804,354.97,482.79
54.09903,358.38,483.17
54.11855,364.63,483.35
54.13888,367.71,483.78
54.15825,369.49,484.80
54.17886,370.94,491.33
54.19982,372.52,494.36
54.21882,371.71,496.12
54.23925,375.49,496.04
54.25819,376.94,497.65
54.27887,375.90,498.33
54.29922,377.35,498.21
54.31873,378.52,499.19
54.33845,377.06,497.75
54.35929,374.68,496.90
54.37802,375.10,498.66
54.39976,377.44,495.48
54.41953,378.91,497.04
54.43868,377.83,496.26
54.45947,379.14,501.60
54.47813,378.71,503.22
54.49857,382.06,504.24
54.51831,380.26,504.79
54.53955,384.02,508.57
54.55939,390.13,516.82
54.57853,406.65,529.00
54.59838,425.13,543.30
54.61975,449.43,550.80
54.63883,475.09,559.65
54.65818,500.93,561.35
54.67955,523.69,564.51
54.69782,533.86,561.50
54.71873,536.08,556.05
54.73985,527.00,554.11
54.75904,519.48,548.78
54.77807,508.04,544.84
54.79871,498.49,537.70
54.81809,487.99,535.12
54.83810,477.62,529.94
54.85860,468.27,525.44
54.87801,461.25,525.01
54.89953,455.52,521.55
54.91988,449.18,517.55
54.93914,444.10,516.51
54.96043,437.22,511.66
54.98078,428.48,508.49
55.00036,424.81,509.11
55.01983,420.39,511.47
55.04001,418.20,511.09
55.05979,414.58,508.10
55.08057,409.60,509.69
55.10084,405.77,510.53
55.12027,404.43,509.77
55.14165,405.00,509.75
55.16086,401.22,508.14
55.17999,400.58,505.81
55.20028,396.86,503.99
55.22044,394.58,503.47
55.24179,392.84,502.80
55.26159,393.32,502.58
55.28142,391.12,504.01
55.30241,391.44,503.51
55.32326,391.77,506.91
55.34303,388.22,507.07
55.36364,385.78,508.79
55.38488,382.78,506.51
55.40641,380.55,508.23
55.42756,379.17,506.13
55.44676,375.98,506.94
55.46817,375.72,504.67
55.48991,372.49,500.40
55.51021,373.75,499.90
55.53000,372.59,497.93
55.55242,373.50,497.98
55.57118,372.65,495.51
55.59234,370.66,500.81
55.61173,371.62,501.60
55.63299,372.07,501.78
55.65221,370.82,502.04
55.67339,371.68,504.84
55.69231,375.60,504.48
55.71251,372.66,504.79
55.73336,373.33,500.87
55.75283,372.77,499.63
55.77295,376.35,501.10
55.79340,375.84,499.43
55.81388,376.67,497.21
55.83385,375.68,497.13
55.85213,372.81,498.85
55.87237,371.74,497.36
55.89281,375.80,498.66
55.91250,374.02,500.71
55.93333,375.98,501.37
55.95203,376.93,503.10
55.97338,374.97,505.79
55.99298,373.48,506.72
56.01229,374.64,507.62
56.03206,376.88,504.23
56.05366,375.62,506.52
56.07219,378.26,504.35
56.09313,379.48,502.95
56.11313,378.64,502.93
56.13364,380.25,501.44
56.15458,377.90,498.94
56.17317,378.46,497.68
56.19401,379.52,495.84
56.21462,379.12,498.92
56.23343,377.50,500.20
56.25328,380.29,502.51
56.27377,377.75,504.09
56.29284,377.26,503.99
56.31459,380.19,505.74
56.33471,379.34,501.85
56.35392,379.31,505.17
56.37486,383.58,503.53
56.39472,382.23,504.19
56.41508,382.64,502.96
56.43382,382.01,500.07
56.45463,382.11,500.64
56.47583,384.16,498.38
56.49570,385.88,497.75
56.51584,386.64,498.65
56.53755,387.76,501.93
56.55774,387.75,503.55
56.57775,388.05,504.86
56.59736,388.18,506.77
56.61789,385.08,505.76
56.63832,387.37,506.99
56.65967,387.42,509.22
56.67844,386.36,508.86
56.69840,385.65,506.27
56.71842,385.73,508.90
56.73975,385.79,504.58
56.75824,384.86,504.62
56.77901,388.17,502.01
56.79902,385.45,501.26
56.81858,385.91,501.02
56.83936,388.23,502.11
56.85811,386.30,499.06
56.87907,385.75,504.11
56.89865,386.38,504.34
56.91869,384.21,507.80
56.93897,383.24,507.59
56.95795,384.68,508.62
56.97965,383.85,509.29
56.99972,384.46,510.36
57.01889,383.54,509.25
57.03778,383.61,507.67
57.06042,384.70,506.58
57.07935,382.50,508.98
57.09999,383.52,505.18
57.11973,381.81,504.51
57.14002,384.44,503.07
57.16004,379.22,502.76
57.18068,362.15,498.38
57.20018,341.41,497.85
57.21897,319.26,499.51
57.23938,299.14,499.75
57.26094,283.38,496.59
57.28138,269.60,493.08
57.30000,263.41,486.50
57.32132,259.41,475.47
57.34077,254.76,468.91
57.36188,255.05,462.69
57.38209,256.87,458.39
57.40363,260.41,453.87
57.42408,265.23,449.04
57.44328,269.56,450.29
57.46540,277.01,449.44
57.48608,284.18,447.10
57.50646,291.76,446.43
57.52721,299.61,450.04
57.54911,308.84,449.61
57.56947,318.30,454.33
57.58905,325.07,459.11
57.61033,332.11,461.02
57.62977,336.79,470.76
57.65102,343.30,473.00
57.67276,353.22,478.78
57.69146,355.58,483.67
57.71104,359.28,487.21
57.73157,364.81,492.83
57.75186,367.75,492.57
57.77254,370.53,496.91
57.79153,370.89,497.21
57.81243,374.05,497.48
57.83200,373.29,499.82
57.85257,376.37,500.06
57.87117,376.72,498.27
57.89171,381.09,500.26
57.91129,384.52,501.09
57.93248,386.61,498.03
57.95087,385.75,496.25
57.97099,386.06,495.03
57.99267,384.89,494.04
58.01243,385.78,493.78
58.03282,386.04,493.47
58.05284,388.66,498.50
58.07561,389.30,500.99
58.09485,385.99,503.43
58.11497,391.49,504.54
58.13487,396.40,506.15
58.15526,404.76,514.18
58.17482,423.23,528.87
58.19663,445.16,540.76
58.21510,473.51,554.22
58.23574,499.91,563.71
58.25594,519.78,570.75
58.27639,534.93,570.67
58.29540,536.34,567.80
58.31638,533.73,560.61
58.33651,526.91,555.29
58.35534,516.61,547.89
58.37575,507.27,538.22
58.39596,494.64,532.69
58.41573,480.03,528.20
58.43524,470.61,525.77
58.45608,460.63,527.13
58.47591,452.07,522.56
58.49647,443.02,519.19
58.51509,433.45,519.91
58.53537,429.90,517.44
58.55667,424.79,514.14
58.57647,418.21,515.65
58.59541,411.15,512.87
58.61540,407.92,511.45
58.63545,404.14,513.57
58.65489,399.26,510.15
58.67612,397.48,510.36
58.69476,393.00,509.20
58.71471,391.92,509.96
58.73588,391.14,510.69
58.75551,391.56,509.91
58.77625,389.79,510.41
58.79623,389.20,507.28
58.81531,391.25,506.16
58.83498,390.97,504.00
58.85501,391.38,502.70
58.87676,385.92,499.82
58.89637,384.26,499.37
58.91612,383.69,503.26
58.93638,379.92,503.39
58.95669,380.04,504.74
58.97631,381.44,507.58
58.99731,379.78,508.43
59.01734,380.94,509.06
59.03734,379.99,507.53
59.05778,378.24,506.39
59.07736,377.05,505.98
59.09653,379.58,506.08
59.11633,377.43,504.27
59.13752,378.32,504.67
59.15618,378.35,504.88
59.17648,377.86,504.38
59.19639,382.31,506.11
59.21641,378.27,505.82
