Program Time [s],data 0,data 1
118.61431,360.92,465.59
118.63307,365.14,466.57
118.65308,364.39,465.50
118.67273,366.21,468.10
118.69357,367.17,468.43
118.71246,365.79,469.29
118.73233,366.62,466.98
118.75239,364.91,469.86
118.77301,366.73,469.13
118.79247,369.74,476.69
118.81309,367.20,485.59
118.83338,370.68,488.36
118.85308,371.17,487.12
118.87204,369.83,486.39
118.89363,370.85,484.94
118.91201,371.62,481.79
118.93202,373.64,476.75
118.95355,371.80,472.84
118.97356,375.49,468.71
118.99232,372.38,466.38
119.01312,370.55,462.07
119.03332,366.03,458.60
119.05200,371.39,457.65
119.07341,374.00,460.74
119.09302,377.40,460.48
119.11203,379.07,463.04
119.13308,376.76,462.22
119.15358,384.92,464.63
119.17233,381.93,468.61
119.19222,380.90,470.27
119.21358,383.35,476.02
119.23384,379.79,473.96
119.25282,379.91,476.00
119.27323,379.23,478.52
119.29301,376.79,480.47
119.31247,380.35,475.02
119.33348,378.50,477.58
119.35313,380.19,479.90
119.37363,370.21,474.30
119.39327,356.57,463.63
119.41410,340.28,450.87
119.43304,322.41,440.67
119.45369,303.52,428.65
119.47426,288.26,419.42
119.49355,275.79,412.10
119.51370,263.72,403.83
119.53503,260.42,401.54
119.55397,260.36,399.26
119.57336,260.66,403.57
119.59366,261.85,404.59
119.61393,261.95,410.58
119.63493,269.37,415.00
119.65495,276.83,418.83
119.67481,284.50,422.34
119.69314,293.46,426.03
119.71487,300.78,432.10
119.73474,305.08,436.22
119.75338,315.79,439.96
119.77371,318.10,444.58
119.79320,325.58,451.45
119.81375,331.95,450.85
119.83345,336.45,453.73
119.85426,343.70,458.69
119.87495,344.27,461.14
119.89352,352.23,462.02
119.91317,354.56,461.46
119.93474,355.66,465.94
119.95330,356.79,462.60
119.97464,359.90,463.12
119.99332,358.79,463.84
120.01370,360.41,467.90
120.03317,363.31,465.91
120.05499,361.52,470.01
120.07456,363.07,469.18
120.09414,362.75,471.42
120.11450,362.59,470.31
120.13450,366.85,473.64
120.15485,366.84,471.68
120.17347,366.17,472.65
120.19392,369.42,475.91
120.21441,373.14,482.94
120.23360,386.88,494.96
120.25316,404.88,513.03
120.27499,422.40,534.59
120.29385,446.74,549.34
120.31445,471.56,560.20
120.33438,493.26,563.16
120.35311,513.02,562.34
120.37413,516.60,554.92
120.39443,515.38,545.68
120.41337,506.24,536.65
120.43404,499.16,525.34
120.45453,486.14,518.16
120.47413,476.12,507.70
120.49451,460.17,497.23
120.51375,454.81,489.22
120.53499,444.18,486.39
120.55394,434.84,480.96
120.57353,428.21,477.59
120.59431,421.99,470.99
120.61397,416.25,473.01
120.63324,410.86,469.93
120.65370,405.44,468.52
120.67419,399.35,467.17
120.69374,394.92,468.54
120.71493,390.89,468.30
120.73470,386.96,467.97
120.75456,385.21,464.01
120.77322,381.18,465.40
120.79309,377.57,468.19
120.81372,373.69,467.42
120.83358,375.70,472.50
120.85437,374.18,476.30
120.87302,372.82,479.09
120.89409,378.39,491.18
120.91360,376.24,495.95
120.93491,375.04,487.33
120.95466,378.17,489.31
120.97327,379.68,490.36
120.99401,376.68,474.93
121.01459,382.95,480.20
121.03462,387.92,482.82
121.05307,400.23,486.95
121.07340,398.78,478.90
121.09418,401.95,473.71
121.11304,400.85,465.90
121.13578,403.77,469.08
121.15491,408.61,461.18
121.17486,415.12,455.11
121.19319,405.35,447.22
121.21387,407.02,447.82
121.23363,396.02,440.82
121.25437,380.35,443.78
121.27367,390.97,458.57
121.29339,384.21,465.21
121.31439,379.54,463.44
121.33449,378.15,466.69
121.35459,369.30,467.60
121.37369,367.43,467.98
121.39338,362.32,469.58
121.41309,363.51,468.64
121.43468,359.84,469.42
121.45348,357.86,467.81
121.47379,353.14,466.03
121.49447,354.37,467.41
121.51377,353.30,468.47
121.53472,352.99,470.64
121.55408,354.36,473.11
121.57441,357.72,478.01
121.59379,356.72,475.37
121.61434,357.20,477.54
121.63354,358.09,476.43
121.65330,359.16,477.41
121.67372,360.16,479.41
121.69349,357.24,478.01
121.71332,361.69,475.73
121.73404,361.62,475.09
121.75360,360.73,473.03
121.77311,363.58,471.53
121.79452,367.01,472.74
121.81398,364.10,475.45
121.83447,362.63,474.28
121.85388,364.20,474.82
121.87359,363.91,474.10
121.89458,365.86,473.83
121.91306,364.73,475.07
121.93428,364.89,470.39
121.95369,365.88,470.52
121.97477,365.60,469.32
121.99317,362.93,467.59
122.01411,361.61,466.77
122.03321,361.15,464.76
122.05429,363.77,463.48
122.07362,360.88,466.16
122.09310,362.28,466.84
122.11343,362.34,468.48
122.13418,360.23,468.88
122.15426,361.35,468.62
122.17424,363.09,470.42
122.19436,359.90,468.42
122.21425,363.16,469.53
122.23383,361.89,468.18
122.25392,358.77,466.63
122.27320,361.43,467.03
122.29416,363.24,468.53
122.31464,360.29,469.07
122.33358,360.14,469.41
122.35454,362.50,467.65
122.37474,361.86,467.57
122.39346,362.10,469.93
122.41398,359.62,469.77
122.43425,361.27,471.19
122.45364,359.87,469.87
122.47417,361.95,468.06
122.49473,359.07,469.86
122.51360,359.58,467.66
122.53331,361.64,468.71
122.55500,357.33,469.91
122.57362,358.89,467.88
122.59358,357.35,470.82
122.61374,358.09,467.73
122.63461,359.92,468.34
122.65468,358.79,469.29
122.67383,359.70,469.90
122.69438,357.74,467.03
122.71303,356.09,467.52
122.73399,358.84,471.52
122.75498,359.42,470.50
122.77483,356.94,470.32
122.79439,355.83,474.53
122.81301,343.34,472.01
122.83476,325.98,468.79
122.85358,305.41,463.15
122.87317,289.81,453.54
122.89464,269.93,441.95
122.91504,254.65,425.40
122.93573,244.01,412.88
122.95468,234.07,400.71
122.97572,232.50,395.26
122.99426,231.68,389.84
123.01465,230.74,388.88
123.03600,236.75,393.14
123.05510,240.00,395.60
123.07506,248.05,402.10
123.09575,252.50,404.08
123.11460,260.27,411.93
123.13418,270.76,418.48
123.15412,275.14,422.48
123.17590,286.30,430.24
123.19501,292.93,436.66
123.21565,298.61,440.87
123.23401,305.64,446.18
123.25415,310.55,450.73
123.27570,318.95,455.38
123.29429,323.96,455.88
123.31575,327.63,459.99
123.33524,331.45,465.72
123.35581,331.85,467.00
123.37591,334.92,469.00
123.39543,336.85,469.95
123.41411,339.48,472.13
123.43495,344.31,469.63
123.45475,344.06,470.32
123.47539,346.96,469.60
123.49490,347.58,473.20
123.51505,349.75,470.16
123.53453,347.32,474.55
123.55505,352.98,480.89
123.57560,366.52,493.41
123.59544,384.79,515.97
123.61416,405.21,542.34
123.63467,426.15,559.72
123.65441,453.49,574.16
123.67517,477.40,590.99
123.69545,496.36,611.44
123.71471,513.19,634.46
123.73579,519.27,649.53
123.75535,519.17,654.09
123.77529,512.46,637.64
123.79559,501.47,615.01
123.81493,490.45,587.31
123.83464,474.11,556.89
123.85529,460.87,528.15
123.87410,446.96,503.92
123.89531,433.39,478.46
123.91507,419.28,459.66
123.93445,410.07,444.00
123.95577,402.31,432.74
123.97404,396.27,424.52
123.99474,388.51,420.48
124.01588,384.86,415.83
124.03533,377.81,417.64
124.05417,374.37,418.86
124.07511,372.46,420.23
124.09409,369.98,423.82
124.11572,369.83,424.60
124.13513,366.85,429.57
124.15612,365.40,435.84
124.17593,363.12,438.75
124.19606,364.54,441.12
124.21667,361.96,443.57
124.23588,363.04,445.54
124.25564,359.04,447.22
124.27674,361.47,453.33
124.29547,358.82,453.67
124.31562,358.81,456.44
124.33687,360.18,456.86
124.35532,358.99,459.42
124.37639,356.51,460.47
124.39548,358.68,465.68
124.41568,357.10,467.50
124.43627,357.51,469.94
124.45773,361.05,468.16
124.47657,357.66,472.61
124.49648,359.14,469.69
124.51717,360.04,471.93
124.53784,357.29,472.08
124.55680,359.38,472.44
124.57619,359.35,475.34
124.59756,359.17,475.17
124.61697,357.96,473.46
124.63635,360.59,476.73
124.65660,361.22,474.46
124.67666,361.58,472.89
124.69735,360.56,471.79
124.71696,360.45,472.57
124.73798,358.83,472.63
124.75770,359.38,468.87
124.77680,358.86,470.05
124.79764,357.77,472.43
124.81712,361.02,471.41
124.83794,358.20,470.49
124.85708,360.77,471.84
124.87750,361.14,470.29
124.89798,360.27,469.43
124.91712,361.72,471.72
124.93745,358.05,470.53
124.95717,361.97,471.84
124.97672,359.08,472.34
124.99778,361.75,472.11
125.01640,362.00,471.19
125.03685,358.59,469.64
125.05691,361.94,471.10
125.07714,358.42,472.34
125.09696,361.77,471.71
125.11733,360.29,471.69
125.13630,362.50,467.04
125.15727,360.99,467.52
125.17680,359.70,469.92
125.19660,363.18,466.55
125.21767,360.19,465.95
125.23630,361.64,467.59
125.25709,362.92,468.27
125.27629,362.76,468.27
125.29685,363.88,468.11
125.31784,361.41,469.60
125.33753,361.73,469.35
125.35682,361.61,468.29
125.37751,364.11,469.98
125.39621,364.41,466.91
125.41719,362.56,466.26
125.43632,364.75,465.83
125.45680,361.73,465.33
125.47611,362.55,468.18
125.49674,364.04,467.79
125.51785,362.00,464.35
125.53730,362.54,465.76
125.55788,363.42,464.37
125.57621,364.60,465.40
125.59630,363.40,463.99
125.61638,362.36,465.23
125.63680,362.56,465.48
125.65659,363.72,466.12
125.67795,365.63,465.67
125.69628,364.61,465.15
125.71633,362.75,465.32
125.73753,365.26,467.47
125.75706,361.61,464.46
125.77608,363.50,466.71
125.79600,363.46,465.27
125.81666,361.12,467.20
125.83791,364.78,466.38
125.85727,362.51,464.62
125.87605,361.68,464.63
125.89728,361.20,465.85
125.91664,360.17,464.49
125.93649,360.48,467.19
125.95707,360.12,465.19
125.97614,360.84,466.67
125.99622,361.71,468.21
126.01752,363.24,468.92
126.03617,362.09,467.63
126.05788,360.75,468.04
126.07721,361.74,468.51
126.09698,363.96,468.28
126.11729,363.11,468.44
126.13629,363.75,471.05
126.15696,363.21,467.39
126.17633,366.54,467.37
126.19742,365.37,468.62
126.21629,365.43,468.99
126.23785,367.97,466.06
126.25721,364.89,468.88
126.27794,367.09,468.45
126.29715,366.13,466.34
126.31705,364.79,467.87
126.33764,364.20,466.13
126.35757,365.44,469.31
126.37611,363.81,467.51
126.39604,363.27,471.25
126.41668,363.69,467.43
126.43654,363.73,470.32
126.45773,361.75,467.93
126.47733,364.19,465.97
126.49631,361.65,464.74
126.51633,363.48,466.37
126.53624,364.53,463.22
126.55661,366.32,463.30
126.57601,365.30,461.62
126.59683,365.89,462.50
126.61619,364.85,464.87
126.63638,365.29,463.29
126.65763,366.29,462.39
126.67697,369.22,461.53
126.69684,361.38,462.56
126.71604,343.42,454.66
126.73677,324.51,447.58
126.75798,303.80,437.83
126.77633,280.74,425.58
126.79679,265.62,417.66
126.81641,251.55,411.65
126.83796,244.33,406.62
126.85601,239.34,403.04
126.87787,237.38,404.23
126.89775,239.69,406.07
126.91796,243.68,404.97
126.93662,250.84,409.00
126.95779,260.25,409.32
126.97605,266.83,414.18
126.99787,276.12,417.11
127.01654,283.57,423.89
127.03634,292.06,426.55
127.05730,302.72,430.87
127.07719,310.36,435.57
127.09642,317.31,440.87
127.11643,323.98,445.60
127.13796,328.38,446.87
127.15646,336.00,452.17
127.17679,340.07,453.76
127.19645,344.27,456.25
127.21681,349.35,459.90
127.23742,349.74,460.17
127.25731,355.47,464.12
127.27762,357.52,463.25
127.29797,358.31,465.60
127.31643,361.23,464.23
127.33702,362.02,464.54
127.35619,363.44,466.14
127.37609,367.87,465.17
127.39720,366.40,465.85
127.41718,366.40,467.63
127.43730,369.59,462.95
127.45643,367.30,466.53
127.47769,368.59,467.62
127.49612,371.46,474.26
127.51754,381.00,486.75
127.53639,396.07,498.97
127.55784,412.63,514.81
127.57720,435.35,527.62
127.59715,456.32,540.81
127.61605,479.42,547.39
127.63686,497.88,546.27
127.65798,514.46,543.51
127.67713,517.90,536.35
127.69689,514.53,528.88
127.71689,507.81,521.15
127.73752,497.30,514.42
127.75711,490.02,509.66
127.77614,477.92,505.77
127.79711,464.99,499.20
127.81687,453.33,495.55
127.83611,444.31,493.48
127.85623,435.13,488.52
127.87749,430.32,486.07
127.89634,422.08,481.25
127.91750,417.15,479.31
127.93703,413.31,477.84
127.95676,407.14,478.23
127.97652,404.25,477.15
127.99715,401.84,473.27
128.01661,399.49,470.66
128.03721,394.47,468.90
128.05787,391.78,470.08
128.07667,388.44,467.75
128.09680,385.36,469.92
128.11790,381.46,469.57
128.13665,379.60,467.49
128.15706,380.16,468.77
128.17603,380.84,467.72
128.19695,379.80,468.89
128.21619,375.62,467.70
128.23643,378.61,465.86
128.25612,378.32,466.16
128.27701,377.13,467.70
128.29727,375.25,464.54
128.31655,377.55,464.30
128.33747,378.17,468.10
128.35752,374.58,467.89
128.37655,377.24,465.55
128.39754,372.86,466.12
128.41745,373.44,463.41
128.43766,375.31,463.74
128.45613,376.10,463.74
128.47737,373.87,462.13
128.49613,374.64,463.15
128.51647,372.97,463.11
128.53764,371.09,464.49
128.55655,374.21,466.22
128.57666,375.20,466.17
128.59787,375.05,465.32
128.61783,375.19,465.48
128.63767,377.52,466.96
128.65725,377.39,468.81
128.67685,378.65,469.74
128.69733,379.19,466.86
128.71673,378.60,467.21
128.73651,378.39,468.98
128.75686,375.66,467.10
128.77666,379.20,466.77
128.79629,376.78,465.02
128.81676,375.64,464.54
128.83783,377.27,468.04
128.85719,374.43,467.28
128.87704,374.95,465.85
128.89650,375.09,466.14
128.91611,374.40,465.77
128.93684,377.66,466.48
128.95737,378.95,465.38
128.97651,376.78,463.19
128.99649,379.04,466.55
129.01681,376.30,463.32
129.03656,378.30,463.43
129.05627,375.33,465.89
129.07758,377.71,465.09
129.09775,374.96,468.05
129.11797,374.72,467.96
129.13767,375.24,467.00
129.15607,375.17,469.25
129.17745,378.86,466.29
129.19741,376.29,467.08
129.21766,378.23,470.15
129.23782,375.87,467.22
129.25644,375.80,466.04
129.27600,378.14,468.68
129.29698,377.11,465.76
129.31648,374.31,466.43
129.33621,374.58,465.51
129.35699,377.77,467.41
129.37758,376.60,465.72
129.39689,376.78,468.54
129.41680,376.66,467.46
129.43719,375.96,468.14
129.45667,374.34,467.08
129.47612,375.10,466.66
129.49796,373.86,467.94
129.51647,376.67,465.40
129.53641,375.82,467.07
129.55738,377.66,464.71
129.57669,376.80,464.90
129.59720,377.36,465.67
129.61757,375.51,465.04
129.63613,375.19,467.62
129.65641,376.54,464.96
129.67777,376.60,463.54
129.69657,379.54,464.85
129.71763,375.97,463.77
129.73656,377.06,465.04
129.75798,377.63,465.16
129.77606,377.45,467.93
129.79658,376.92,467.99
129.81775,377.33,467.85
129.83717,375.20,466.80
129.85737,378.88,467.77
129.87790,379.51,467.98
129.89600,378.79,466.92
129.91727,378.84,468.31
129.93781,379.59,466.16
129.95672,378.77,466.72
129.97769,375.52,466.18
129.99690,376.89,465.98
130.01719,374.62,467.70
130.03720,375.54,466.90
130.05687,375.20,465.45
130.07704,377.54,467.22
130.09671,376.37,465.32
130.11770,375.48,468.50
130.13760,376.34,468.10
130.15739,377.27,468.58
130.17681,376.83,468.04
130.19736,379.60,467.31
130.21620,376.68,466.55
130.23690,373.78,468.12
130.25675,375.56,468.62
130.27635,374.47,469.43
130.29618,376.15,467.66
130.31650,377.35,467.56
130.33711,377.64,467.27
130.35627,375.70,467.01
130.37652,377.00,469.01
130.39655,377.83,468.02
130.41613,377.49,467.46
130.43611,375.75,467.30
130.45774,374.63,466.55
130.47776,377.01,467.78
130.49609,374.69,465.08
130.51697,373.30,467.07
130.53721,374.25,465.71
130.55669,374.22,466.05
130.57667,375.29,466.11
130.59742,376.61,467.87
130.61661,371.37,466.43
130.63847,356.24,462.95
130.65895,338.46,455.41
130.67890,314.97,453.74
130.69984,295.06,451.37
130.72012,277.04,448.77
130.74085,264.31,440.56
130.76044,256.09,436.33
130.78059,249.73,429.05
130.79978,250.13,424.93
130.81956,254.68,419.25
130.84018,259.57,415.99
130.86060,265.13,414.83
130.87904,272.16,412.10
130.90053,280.54,413.99
130.92077,290.02,414.58
130.93909,297.99,418.49
130.95993,305.92,422.57
130.97997,313.90,423.75
131.00100,322.24,428.51
131.01965,328.76,434.53
131.03995,332.56,440.63
131.05944,336.68,443.71
131.07948,341.09,447.68
131.09965,346.63,450.38
131.12082,351.11,451.15
131.14040,351.48,457.73
131.16066,355.84,459.74
131.17931,359.35,462.30
131.19914,361.98,464.62
131.22045,360.47,464.97
131.23913,362.18,467.22
131.25933,367.20,468.82
131.27935,366.85,469.94
131.30035,363.64,471.75
131.32011,365.34,469.50
131.34092,366.26,470.83
131.35962,368.29,472.96
131.38071,366.07,469.62
131.39920,366.83,472.43
131.42033,368.42,472.14
131.43977,371.01,471.64
131.45901,369.85,472.09
131.47993,369.94,470.23
131.50066,375.68,474.64
131.52159,386.81,482.48
131.54033,400.53,496.93
131.56080,423.10,509.95
131.58131,441.86,522.18
131.60087,466.22,531.71
131.62058,483.22,538.45
131.64139,498.26,546.00
131.66079,503.79,542.58
131.68050,503.44,539.65
131.70152,495.38,535.02
131.72024,488.44,529.51
131.74008,479.34,521.26
131.76199,468.94,514.70
131.78152,457.09,509.87
131.80065,446.84,502.02
131.82114,437.60,498.02
131.84104,428.14,494.92
131.86171,421.73,489.32
131.88022,413.14,489.50
131.90001,409.27,484.27
131.92135,402.92,482.72
131.94160,396.75,479.54
131.96133,394.74,481.26
131.98081,391.42,478.43
132.00037,380.87,472.95
132.02087,375.19,469.21
132.04005,371.35,468.23
132.06081,366.42,466.18
132.08167,361.67,465.62
132.10070,361.56,465.53
132.12060,362.20,464.07
132.14163,361.98,465.56
132.16165,363.56,465.09
132.18158,362.54,465.49
132.20110,363.77,467.55
132.22072,363.13,466.49
132.24131,363.83,470.78
132.26019,363.56,470.24
132.28200,363.15,470.28
132.30085,368.03,472.20
132.32152,376.17,480.56
132.34064,384.09,484.43
132.36102,388.37,487.39
132.38152,387.64,488.48
132.40230,388.62,488.75
132.42194,384.88,486.48
132.44152,383.97,486.54
132.46139,382.45,482.63
132.48230,379.28,482.06
132.50227,377.18,482.57
132.52299,377.36,481.63
132.54100,373.50,478.46
132.56112,371.88,477.10
132.58266,372.18,476.29
132.60285,372.36,474.92
132.62238,369.44,474.26
132.64262,369.81,472.88
132.66286,370.38,472.26
132.68171,369.50,470.33
132.70100,366.13,471.58
132.72127,366.30,468.90
132.74172,365.87,471.11
132.76178,363.17,469.87
132.78294,363.97,470.21
132.80109,363.15,467.46
132.82294,362.73,466.40
132.84224,363.47,466.42
132.86169,361.61,470.66
132.88184,361.72,470.09
132.90125,362.54,469.99
132.92188,359.57,471.98
132.94150,361.61,470.88
132.96179,360.36,469.30
132.98270,358.12,471.68
133.00220,358.13,470.80
133.02259,359.68,469.80
133.04250,361.40,469.22
133.06285,359.06,468.96
133.08224,361.11,472.68
133.10253,362.90,472.44
133.12229,361.73,473.53
133.14290,358.84,473.39
133.16233,361.44,470.66
133.18115,357.42,470.83
133.20145,359.70,468.99
133.22159,360.89,469.36
133.24166,359.25,473.01
133.26169,361.21,472.83
133.28209,356.21,472.54
133.30178,357.92,471.22
133.32206,356.30,470.71
133.34232,356.58,472.20
133.36232,355.06,471.97
133.38229,359.22,473.36
133.40151,358.55,471.76
133.42299,356.56,468.21
133.44289,358.38,467.35
133.46115,357.64,469.08
133.48269,358.10,469.80
133.50155,357.72,470.45
133.52270,354.66,470.42
133.54264,358.56,467.14
133.56117,357.50,468.62
133.58171,356.11,467.59
133.60237,354.98,469.01
133.62178,357.65,467.11
133.64184,354.68,466.86
133.66146,357.02,469.00
133.68235,356.22,470.98
133.70288,358.14,468.37
133.72271,356.93,470.57
133.74247,357.47,470.18
133.76129,359.62,469.43
133.78135,355.87,469.67
133.80141,355.95,467.72
133.82266,354.16,469.03
133.84122,355.71,467.69
133.86262,352.98,468.64
133.88138,352.74,469.30
133.90235,353.39,469.48
133.92224,343.89,464.28
133.94184,331.06,456.12
133.96199,311.94,454.12
133.98168,290.27,454.71
134.00168,271.34,458.45
134.02268,252.74,452.64
134.04200,242.03,445.50
134.06125,234.44,438.27
134.08110,233.63,425.61
134.10134,230.68,419.64
134.12160,235.29,412.89
134.14201,239.45,407.90
134.16193,244.85,407.96
134.18200,252.31,408.03
134.20179,260.06,410.34
134.22131,270.18,413.86
134.24222,279.92,414.70
134.26195,290.30,420.26
134.28105,297.24,425.05
134.30157,302.46,430.33
134.32180,307.90,431.39
134.34281,315.05,437.78
134.36110,322.64,438.29
134.38246,326.75,444.04
134.40266,332.42,448.70
134.42236,334.39,450.34
134.44262,338.95,453.68
134.46264,338.87,452.93
134.48158,341.96,458.71
134.50159,343.76,459.43
134.52213,345.91,462.38
134.54204,346.67,463.23
134.56227,347.32,465.63
134.58144,350.18,467.19
134.60283,351.91,466.88
134.62163,351.30,465.17
134.64118,353.12,466.89
134.66198,352.40,465.38
134.68134,353.69,467.67
134.70251,353.29,467.31
134.72206,354.55,466.47
134.74103,354.55,467.11
134.76109,353.03,463.31
134.78126,350.89,463.80
134.80264,353.56,465.20
134.82290,354.20,465.64
134.84216,354.72,465.34
134.86210,354.98,466.34
134.88226,356.12,467.77
134.90277,358.03,471.43
134.92136,364.54,482.98
134.94237,377.80,495.05
134.96107,391.87,512.21
134.98197,413.86,523.63
135.00255,438.76,533.88
135.02221,459.99,541.20
135.04114,484.68,541.44
135.06122,494.65,536.47
135.08178,494.82,532.48
135.10294,495.52,526.70
135.12156,488.05,518.30
135.14260,477.45,509.77
135.16217,468.36,503.30
135.18271,455.34,498.08
135.20117,444.51,494.52
135.22199,436.04,486.80
135.24130,426.26,485.08
135.26109,418.19,482.98
135.28148,409.75,479.48
135.30214,405.49,478.43
135.32346,398.10,478.98
135.34207,389.84,474.35
135.36332,387.29,480.47
135.38295,389.84,483.85
135.40252,389.63,486.75
135.42231,385.76,486.33
135.44224,382.84,487.18
135.46222,381.40,484.37
135.48280,378.54,483.95
135.50300,373.90,480.97
135.52225,374.39,476.99
135.54276,371.97,477.49
135.56213,371.92,474.23
135.58207,368.39,473.54
135.60348,365.20,472.51
135.62374,365.68,471.19
135.64264,364.75,470.95
135.66354,365.51,472.48
135.68373,361.50,468.27
135.70315,364.29,470.19
135.72354,361.76,469.20
135.74299,362.46,469.24
135.76204,358.10,470.98
135.78218,358.97,469.64
135.80290,358.17,467.09
135.82293,358.98,468.47
135.84461,356.47,466.48
135.86419,357.75,466.36
135.88496,358.14,466.70
135.90645,358.73,467.70
135.92730,359.17,466.93
135.94673,360.72,467.62
135.96671,361.24,467.80
135.98717,364.89,466.55
136.00707,364.51,467.76
136.02757,367.85,468.61
136.04753,367.06,465.91
136.06760,368.74,468.79
136.08866,369.69,466.58
136.10854,369.73,467.46
136.12809,371.03,468.39
136.14802,370.36,467.87
136.16804,369.15,469.87
136.18792,369.36,469.87
136.20821,370.26,471.87
136.22802,373.05,470.44
136.24878,370.00,472.57
136.26818,370.42,472.54
136.28976,370.25,471.48
136.30983,373.65,468.26
136.32882,374.68,469.24
136.34867,374.98,471.45
136.37087,375.38,467.41
136.38967,377.05,469.36
136.40966,377.34,469.57
136.42949,378.51,468.89
136.45043,376.23,469.03
136.46936,377.34,466.61
136.49086,376.31,468.83
136.51100,377.81,469.44
136.52972,378.42,468.23
136.54977,376.53,469.39
136.56997,376.30,469.39
136.59080,375.32,467.83
136.61059,376.42,469.51
136.63030,376.57,467.30
136.65065,377.14,467.65
136.67153,378.04,469.14
136.69011,376.31,468.72
136.71114,375.78,466.36
136.73127,378.13,466.52
136.75146,377.42,469.16
136.77147,377.82,467.16
136.79165,377.56,469.44
136.81221,376.64,472.16
136.83228,374.01,473.04
136.85340,374.93,470.52
136.87342,376.76,475.03
136.89288,377.64,471.22
136.91337,377.63,471.86
136.93398,372.78,472.95
136.95302,374.44,471.47
136.97300,373.88,470.66
136.99335,373.52,472.17
137.01300,372.54,472.87
137.03370,372.11,471.71
137.05317,371.50,473.04
137.07305,373.27,470.51
137.09402,374.44,470.49
137.11428,374.31,469.63
137.13309,371.21,471.82
137.15380,371.28,468.38
137.17499,372.87,468.00
137.19373,372.31,468.56
137.21465,370.66,468.93
137.23352,372.44,468.27
137.25367,372.57,467.79
137.27372,372.69,467.52
137.29528,370.86,469.32
137.31555,369.77,467.93
137.33468,371.61,469.16
137.35437,370.29,468.66
137.37564,371.57,465.57
137.39504,371.37,468.38
137.41597,367.46,468.93
137.43422,371.54,466.52
137.45440,368.59,467.46
137.47407,369.64,470.72
137.49553,370.41,467.99
137.51528,368.17,470.17
137.53571,366.39,472.37
137.55485,367.73,469.09
137.57544,366.25,469.41
137.59445,363.54,470.81
137.61630,362.67,467.85
137.63634,363.15,470.77
137.65633,361.93,470.42
137.67620,360.21,468.56
137.69699,358.98,470.67
137.71755,356.23,470.74
137.73683,357.43,467.69
137.75630,358.26,465.34
137.77621,354.73,467.33
137.79789,357.22,469.62
137.81607,356.23,468.31
137.83799,358.42,466.67
137.85763,356.77,470.40
137.87703,355.65,468.06
137.89610,358.46,469.83
137.91637,355.81,469.23
137.93749,355.58,467.95
137.95708,356.84,469.41
137.97697,357.27,468.94
137.99767,355.35,469.39
138.01759,356.50,470.79
138.03768,353.77,468.54
138.05730,356.89,468.61
138.07743,355.01,465.59
138.09775,357.90,466.20
138.11648,356.03,468.78
138.13642,354.90,465.14
138.15614,355.83,468.58
138.17692,354.63,467.46
138.19744,353.38,466.53
138.21603,355.66,464.43
138.23642,357.14,464.79
138.25735,355.73,465.18
138.27750,355.10,468.35
138.29716,353.01,466.53
138.31717,348.42,465.61
138.33830,329.65,460.24
138.35957,311.83,456.70
138.37831,289.50,454.70
138.39965,272.80,450.72
138.42029,256.53,436.80
138.44017,244.53,427.64
138.46088,239.48,414.00
138.47905,232.52,406.86
138.49915,231.23,397.58
138.52011,237.36,395.59
138.54007,239.08,393.80
138.56072,247.15,391.16
138.57969,253.40,391.51
138.60015,264.93,394.67
138.61929,270.65,402.05
138.63972,279.90,405.83
138.66014,285.98,414.15
138.68056,294.13,416.91
138.70058,300.48,424.18
138.71937,309.72,428.12
138.74059,312.25,435.95
138.75905,321.07,440.20
138.78066,323.84,441.85
138.79946,330.19,446.48
138.81941,333.79,450.20
138.83980,334.24,451.10
138.86046,338.43,453.30
138.87962,341.75,456.77
138.90080,344.89,458.03
138.91993,347.45,463.66
138.94086,349.75,464.60
138.95937,348.71,464.71
138.97993,351.66,463.79
139.00047,351.33,467.69
139.01954,353.38,464.48
139.03911,354.86,465.34
139.05959,355.31,464.46
139.08052,353.35,466.54
139.10039,353.27,465.21
139.12050,357.39,467.55
139.13941,357.60,467.40
139.16095,357.16,466.40
139.17963,355.33,467.25
139.20034,357.16,466.72
139.22032,358.52,471.89
139.24093,367.43,474.24
139.25906,376.16,481.05
139.27908,383.44,486.85
139.30002,395.46,493.08
139.32074,409.84,499.32
139.34035,429.66,506.79
139.35912,449.15,518.71
139.37914,466.18,526.00
139.40049,480.62,532.08
139.42003,488.10,533.26
139.44047,485.92,532.82
139.45991,481.52,525.76
139.48050,471.30,518.44
139.49964,461.53,513.66
139.51993,453.37,507.21
139.54032,441.61,501.24
139.56001,435.77,494.90
139.57918,423.97,493.24
139.60013,416.65,486.99
139.62007,408.92,485.91
139.63906,404.87,483.26
139.66029,397.50,481.37
139.67950,392.96,480.39
139.69991,387.63,478.68
139.71976,381.82,475.74
139.73958,380.57,472.34
139.76014,375.47,471.86
139.78000,374.14,470.45
139.80015,373.31,471.91
139.81918,369.66,469.20
139.84017,370.67,470.95
139.86077,371.17,467.86
139.88050,368.70,467.99
139.90059,369.03,470.79
139.92117,365.11,471.79
139.94181,364.19,469.89
139.96179,366.73,472.49
139.98059,364.23,472.85
140.00115,366.29,472.69
140.02273,365.30,472.33
140.04136,367.67,471.80
140.06273,366.48,467.23
140.08218,368.52,467.12
140.10157,369.22,468.76
140.12185,367.48,467.46
140.14173,366.95,467.41
140.16218,370.37,469.84
140.18216,367.23,470.21
140.20125,367.31,468.59
140.22130,365.73,467.92
140.24248,368.97,466.05
140.26147,368.17,466.70
140.28164,368.12,466.77
140.30202,368.66,466.42
140.32137,368.27,466.72
140.34248,370.71,465.35
140.36273,370.48,466.57
140.38190,368.64,469.34
140.40126,369.22,468.60
140.42191,368.49,465.85
140.44272,368.91,466.42
140.46238,370.41,468.76
140.48157,370.11,467.99
140.50247,372.48,466.68
140.52352,372.60,467.17
140.54252,372.48,467.58
140.56214,369.89,466.75
140.58334,371.23,466.91
140.60371,372.25,467.80
140.62393,373.86,468.06
140.64375,373.72,469.63
140.66268,374.11,472.00
140.68284,374.82,469.86
140.70330,372.97,469.56
140.72211,375.57,470.01
140.74329,371.67,466.44
140.76213,372.50,466.79
140.78370,373.03,468.31
140.80272,375.00,466.01
140.82294,375.15,467.21
140.84319,374.37,466.90
140.86359,373.29,467.64
140.88289,373.27,467.14
140.90398,375.99,468.79
140.92289,378.43,468.23
140.94361,376.73,467.18
140.96316,374.15,467.20
140.98584,373.29,467.40
141.00495,376.32,467.98
141.02548,372.54,469.43
141.04496,376.48,468.91
141.06573,374.55,469.95
141.08453,378.21,469.89
141.10555,376.75,471.22
141.12567,376.11,468.21
141.14586,374.43,467.99
141.16500,378.16,467.12
141.18455,375.04,467.87
141.20563,374.80,468.23
141.22508,374.59,469.37
141.24514,376.62,468.89
141.26552,376.72,469.60
141.28511,374.22,472.40
141.30556,374.12,470.34
141.32653,376.60,470.86
141.34713,375.26,471.51
141.36645,376.57,472.60
141.38709,373.79,471.47
141.40686,376.91,469.42
141.42684,376.85,469.60
141.44664,374.93,470.83
141.46698,375.53,473.13
141.48662,376.18,471.32
141.50746,372.83,472.58
141.52844,376.62,471.90
141.54787,373.21,473.05
141.56703,374.80,473.10
141.58854,373.14,471.64
141.60706,374.03,472.51
141.62722,374.34,473.51
141.64868,374.01,472.71
141.66777,371.93,473.44
141.68891,371.03,471.95
141.70891,369.69,473.67
141.72899,368.82,473.11
141.74879,369.70,470.90
141.76787,371.17,471.86
141.78807,368.84,471.26
141.80842,369.63,471.91
141.82876,368.32,471.88
141.84892,367.18,469.61
141.86873,360.86,469.28
141.88779,363.10,469.66
141.90883,360.20,466.99
141.92786,360.15,469.72
141.94874,362.39,470.06
141.96819,359.02,468.91
141.98744,362.54,469.23
142.00888,363.40,469.93
142.02797,362.44,469.84
142.04777,361.92,468.48
142.06886,363.19,469.35
142.08767,364.67,469.18
142.10842,363.19,470.52
142.12721,362.99,468.04
142.14726,364.81,470.05
142.16844,366.26,468.77
142.18906,362.93,470.91
142.20905,363.59,469.63
142.23021,363.28,469.74
142.25073,364.25,471.23
142.27111,365.64,470.63
142.29210,362.91,470.55
142.31330,360.22,468.48
142.33293,357.70,465.46
142.35307,359.36,466.74
142.37202,358.54,468.51
142.39305,358.03,467.89
142.41201,356.59,467.48
142.43358,357.20,469.32
142.45393,355.61,466.93
142.47222,356.86,466.38
142.49280,357.75,466.13
142.51394,357.34,468.08
142.53282,356.41,463.99
142.55285,353.76,463.32
142.57207,355.74,464.47
142.59250,356.51,462.52
142.61314,354.04,460.78
142.63364,357.00,461.61
142.65373,354.69,461.92
142.67270,354.10,461.05
142.69263,355.86,461.27
142.71333,353.98,459.82
142.73244,354.36,463.67
142.75234,353.14,463.62
142.77240,344.91,462.05
142.79303,330.03,453.61
142.81384,309.25,442.34
142.83364,290.68,436.69
142.85385,272.78,427.58
142.87326,263.42,418.06
142.89225,253.55,413.60
142.91320,247.18,406.57
142.93354,250.20,403.78
142.95377,250.19,403.60
142.97331,257.25,404.84
142.99414,260.67,405.04
143.01304,268.17,409.06
143.03409,277.33,413.33
143.05392,284.00,418.75
143.07474,291.88,423.40
143.09393,298.28,429.20
143.11319,307.64,433.69
143.13349,310.28,439.65
143.15392,316.72,442.46
143.17499,321.30,449.39
143.19699,328.73,449.19
143.21533,330.70,453.75
143.23734,335.20,455.41
143.25767,342.46,457.44
143.27838,345.01,457.71
143.29787,349.99,463.23
143.31785,354.09,463.86
143.33871,356.07,461.95
143.35828,360.06,464.59
143.37722,360.07,467.10
143.39748,361.31,465.46
143.41846,362.94,465.61
143.43849,363.60,466.06
143.45724,362.86,466.19
143.47876,365.84,465.87
143.49922,366.56,467.06
143.51828,366.86,466.88
143.53991,369.73,468.03
143.55970,369.07,471.46
143.58133,371.33,470.21
143.60135,372.97,470.97
143.62362,372.87,470.72
143.64273,371.61,471.74
143.66440,370.61,472.35
143.68301,370.27,469.91
143.70359,372.38,473.10
143.72219,371.46,472.47
143.74379,373.01,472.24
143.76319,373.32,471.58
143.78404,374.30,471.92
143.80444,374.56,475.24
143.82596,383.96,485.13
143.84694,397.44,497.86
143.86659,414.40,514.08
143.88779,435.50,530.11
143.90760,460.59,544.17
143.92939,479.67,551.29
143.94803,492.12,552.98
143.96953,493.34,550.94
143.98946,493.96,543.61
144.00923,486.23,537.78
144.02817,477.23,531.27
144.04940,466.16,523.22
144.06934,455.90,515.96
144.08858,447.07,510.05
144.10880,434.79,501.36
144.12991,424.10,498.25
144.14958,417.02,492.99
144.16827,406.88,488.52
144.18811,398.72,485.55
144.20860,396.70,483.58
144.22869,390.28,484.36
144.24850,386.26,482.04
144.26980,386.77,486.84
144.28937,389.79,486.69
144.30810,389.90,487.20
144.32900,385.64,485.49
144.34779,385.55,485.97
144.36882,381.72,482.32
144.38849,379.20,480.30
144.40843,375.34,480.67
144.42894,374.88,477.31
144.44989,369.94,478.32
144.46954,367.59,474.77
144.48937,366.44,476.40
144.50937,366.57,475.33
144.52831,364.38,472.87
144.54922,361.13,472.64
144.56934,359.11,470.51
144.58917,359.37,469.47
144.60829,359.02,468.94
144.62928,358.82,471.58
144.64747,357.17,470.78
144.66844,358.60,470.71
144.69000,356.12,467.70
144.70852,355.58,467.93
144.72949,356.79,472.01
144.74845,354.66,470.70
144.76808,354.78,471.44
144.78842,356.97,470.20
144.80946,354.30,472.13
144.82935,355.30,473.56
144.84903,354.81,472.11
144.86875,356.70,472.52
144.88898,354.55,470.91
144.90938,355.07,472.26
144.92791,357.61,473.45
144.94895,354.07,470.22
144.96833,356.79,472.76
144.98967,354.65,472.84
145.00808,355.76,472.13
145.02894,355.12,471.24
145.04921,358.61,468.15
145.06869,356.00,468.84
145.08878,355.95,467.88
145.10894,356.74,468.07
145.12916,357.29,468.68
145.14967,353.75,466.71
145.16923,354.45,465.69
145.19030,356.23,466.93
145.20965,354.65,467.98
145.23035,357.80,467.69
145.24937,355.75,464.38
145.27053,354.69,466.96
145.28949,354.99,467.26
145.31063,358.15,466.66
145.32980,356.09,466.73
145.34977,357.59,469.97
145.36969,354.80,468.50
145.38909,356.48,469.44
145.41064,354.47,471.26
145.43275,355.54,470.50
145.45117,355.05,468.90
145.47047,357.87,470.18
145.49158,358.11,469.55
145.51128,357.12,469.24
145.53047,356.49,469.01
145.55036,354.91,467.51
145.57184,355.48,471.12
145.59120,357.54,471.58
145.61199,355.47,471.16
145.63109,356.80,468.57
145.65200,360.02,467.96
145.67270,360.81,469.29
145.69338,359.46,469.84
145.71277,359.69,471.40
145.73290,359.14,471.31
145.75487,359.64,469.51
145.77361,361.55,469.88
145.79436,362.86,469.11
145.81570,366.49,469.99
145.83529,363.69,468.30
145.85443,367.88,467.74
145.87430,367.64,469.62
145.89695,370.74,467.82
145.91653,369.05,467.25
145.93590,371.56,466.62
145.95690,371.56,466.99
145.97615,371.15,466.98
145.99742,370.86,468.69
146.01789,373.18,469.38
146.03716,371.55,468.10
146.05709,373.69,468.99
146.07888,374.22,468.31
146.09959,373.42,469.08
146.12077,373.51,467.34
146.14032,372.52,471.07
146.15936,373.19,472.29
146.18092,371.52,472.18
146.19902,373.78,471.24
146.22016,371.64,469.62
146.24133,373.37,469.42
146.26157,372.90,467.71
146.28206,372.99,470.10
146.30386,368.65,467.28
146.32156,369.05,468.29
146.34391,369.02,466.90
146.36297,369.69,467.04
146.38330,367.53,464.84
146.40284,366.31,464.94
146.42381,363.01,466.36
146.44314,364.38,465.56
146.46400,362.99,467.84
146.48493,363.85,464.91
146.50442,363.06,465.05
146.52463,357.56,463.88
146.54584,345.28,462.50
146.56540,322.80,459.68
146.58559,305.00,457.11
146.60410,283.45,454.13
146.62500,266.38,450.52
146.64475,249.60,444.93
146.66368,241.30,435.16
146.68411,235.13,427.56
146.70565,235.18,423.58
146.72451,233.97,414.61
146.74645,239.71,412.17
146.76707,243.35,405.76
146.78589,249.32,402.62
146.80688,259.66,404.30
146.82710,265.83,401.76
146.84615,273.46,406.05
146.86691,281.23,410.05
146.88688,290.14,412.61
146.90745,298.27,417.62
146.92758,303.56,423.17
146.94634,310.72,425.23
146.96715,315.90,430.72
146.98618,322.36,436.38
147.00793,325.36,441.96
147.02782,329.81,445.95
147.04630,334.74,447.43
147.06602,334.46,452.75
147.08820,337.39,454.26
147.10720,343.09,456.26
147.12777,341.26,457.76
147.14773,344.15,457.82
147.16892,348.04,458.16
147.18799,346.46,462.34
147.20708,347.97,462.61
147.22713,347.63,460.60
147.24793,349.64,461.10
147.26614,352.30,463.53
147.28619,351.13,461.92
147.30756,351.12,464.63
147.32765,352.25,464.50
147.34647,352.14,466.12
147.36688,353.31,467.07
147.38773,354.02,464.46
147.40723,352.13,463.82
147.42714,356.36,466.94
147.44633,368.75,477.27
147.46792,380.58,490.61
147.48825,400.31,508.76
147.50793,418.04,520.83
147.52781,435.33,532.80
147.54770,450.70,541.24
147.56873,467.56,549.01
147.58806,480.15,547.62
147.60832,493.23,547.48
147.62793,493.27,542.20
147.64878,491.04,533.59
147.66780,486.58,524.35
147.68843,478.14,513.70
147.70787,466.16,503.63
147.72655,454.90,498.07
147.74774,444.33,492.72
147.76655,433.96,485.16
147.78662,425.97,481.49
147.80888,417.84,480.43
147.82961,410.55,475.86
147.85016,404.04,474.55
147.87113,401.72,474.35
147.89246,397.56,472.16
147.91150,393.73,471.29
147.93220,391.44,470.00
147.95180,389.78,470.05
147.97271,386.79,468.46
147.99237,381.70,468.70
148.01177,378.66,468.69
148.03005,379.02,467.69
148.05103,377.53,468.33
148.07180,376.13,467.21
148.09247,377.24,468.36
148.11308,376.50,466.94
148.13434,376.17,466.54
148.15486,378.38,469.11
148.17414,378.49,468.49
148.19403,380.18,468.57
148.21383,379.08,470.50
148.23528,377.55,470.49
148.25509,377.52,472.41
148.27446,375.65,468.94
148.29486,377.30,469.65
148.31536,375.62,470.65
148.33566,376.24,470.08
148.35687,376.31,468.68
148.37809,374.31,470.86
148.40028,373.36,470.42
148.42052,367.78,469.48
148.44244,365.60,471.28
148.46274,363.29,468.44
148.48095,363.05,468.51
148.50283,362.20,470.01
148.52184,364.23,469.52
148.54118,364.05,471.65
148.56183,363.75,467.68
148.58022,361.49,468.63
148.60160,361.45,469.40
148.62044,359.09,467.56
148.64219,356.62,469.05
148.66175,357.31,467.71
148.68227,356.42,470.85
148.70335,357.18,469.65
148.72318,356.65,468.02
148.74357,355.92,466.23
148.76353,355.03,467.01
148.78369,357.16,466.52
148.80376,356.68,467.78
148.82381,356.76,465.02
148.84411,357.78,465.04
148.86451,355.42,461.32
148.88678,357.58,458.25
148.90568,357.89,451.76
148.92667,356.89,451.33
148.94692,355.80,451.69
148.96546,357.22,451.05
148.98579,355.74,450.46
149.00601,357.42,450.12
149.02524,356.09,452.02
149.04767,355.84,454.85
149.06548,358.47,454.21
149.08776,356.74,456.48
149.10634,357.65,455.83
149.12643,358.19,457.54
149.14651,357.68,458.44
149.16990,361.16,458.37
149.18999,363.15,458.84
149.20865,362.13,457.66
149.22958,362.15,461.35
149.24750,361.80,460.06
149.26897,365.35,463.46
149.28879,363.17,463.88
149.30866,363.31,462.31
149.32703,366.77,463.24
149.34928,365.40,466.41
149.36837,366.84,466.12
149.38937,367.93,465.42
149.40832,366.80,466.93
149.42727,367.24,466.30
149.44808,368.02,464.82
149.46763,365.74,465.64
149.48832,366.87,466.67
149.50777,366.37,466.79
149.52821,366.94,465.11
149.54888,366.29,464.37
149.56852,366.17,464.60
149.58736,368.75,468.04
149.60799,370.21,464.24
149.62948,366.01,452.47
149.64853,361.98,439.10
149.66966,354.60,429.01
149.68889,346.73,421.18
149.70952,344.65,418.50
149.72948,344.64,417.10
149.74807,343.16,416.55
149.76912,345.06,418.10
149.78840,345.58,424.06
149.80905,348.94,429.24
149.82781,353.32,431.87
149.84887,354.09,438.61
149.86701,355.65,442.12
149.88739,361.36,447.05
149.90704,360.48,451.70
149.92744,361.45,457.08
149.94798,366.51,460.35
149.96843,365.09,463.67
149.98876,368.76,463.58
150.00864,370.65,467.28
150.02923,371.34,468.16
150.04818,368.73,469.78
150.06969,368.24,474.57
150.08917,368.45,474.24
150.10850,368.42,476.93
150.12889,368.65,479.36
150.14895,369.50,479.15
150.16847,368.25,479.94
150.18967,368.38,480.20
150.20920,369.51,481.31
150.22945,370.90,482.88
150.24814,371.52,485.61
150.26935,372.73,494.06
150.28943,371.57,505.24
150.30911,377.73,524.21
150.32860,375.65,545.93
150.35141,379.59,562.37
150.37227,379.75,570.88
150.39122,378.99,560.88
150.41205,379.17,545.27
150.43408,376.01,525.62
150.45373,373.93,501.04
150.47314,376.07,485.34
150.49318,374.68,468.84
150.51433,373.59,452.44
150.53369,375.45,444.12
150.55468,370.98,435.18
150.57375,370.26,429.61
150.59249,372.10,427.08
150.61249,370.93,427.63
150.63466,367.44,427.38
150.65505,369.88,427.70
150.67528,367.73,432.55
150.69554,371.48,433.43
150.71510,369.89,435.01
150.73531,370.34,439.53
150.75688,368.31,445.15
150.77797,367.80,446.82
150.79958,368.80,451.85
150.81964,367.29,453.76
150.83986,368.52,453.94
150.86200,366.45,457.80
150.88209,367.69,458.60
150.90226,369.44,462.43
150.92303,367.83,460.61
150.94589,364.54,465.25
150.96422,361.43,459.26
150.98538,362.59,451.71
151.00696,362.54,451.98
151.02846,357.42,452.04
151.04960,356.88,449.79
151.06954,350.82,452.60
151.08939,355.84,454.38
151.10935,354.87,457.60
151.13009,355.17,460.45
151.15157,356.36,461.63
151.17097,358.52,462.71
151.19063,361.29,466.27
151.21144,364.10,467.59
151.23132,362.74,471.74
151.25302,367.90,472.12
151.27274,369.15,470.62
151.29282,371.08,474.33
151.31121,370.08,472.54
151.33229,370.12,475.53
151.35246,367.86,474.89
151.37400,371.99,474.11
151.39417,370.86,473.76
151.41474,371.95,472.34
151.43442,372.07,474.75
151.45566,367.19,474.67
151.47476,366.13,474.25
151.49401,365.14,473.71
151.51500,367.67,475.67
151.53542,366.45,476.25
151.55491,367.75,477.16
151.57614,368.84,476.62
151.59528,365.10,476.03
151.61436,365.80,476.29
151.63635,364.76,477.84
151.65554,366.36,476.55
151.67549,366.87,473.50
151.69627,364.42,474.54
151.71684,366.45,473.26
151.73501,365.15,473.22
151.75673,363.92,471.43
151.77730,366.92,471.03
151.79744,365.28,473.58
151.81584,367.10,471.46
151.83678,368.81,482.35
151.85662,369.80,493.40
151.87762,373.84,496.33
151.89632,373.27,498.62
151.91837,375.17,497.46
151.93753,372.26,498.65
151.95748,373.45,496.43
151.97994,370.47,489.97
151.99925,370.42,487.15
152.01770,369.36,483.84
152.03817,366.67,482.36
152.05891,364.26,479.96
152.07790,363.25,480.11
152.09965,365.51,478.28
152.12060,364.10,475.47
152.13874,361.40,475.63
152.16086,360.81,474.04
152.17964,360.77,475.64
152.19931,361.50,474.59
152.21907,363.94,474.90
152.23885,363.43,472.78
152.25950,359.84,470.95
152.28205,362.12,471.67
152.30191,361.62,464.48
152.32151,355.54,446.59
152.34258,352.76,430.34
152.36174,347.90,423.61
152.38263,349.34,418.68
152.40151,345.95,417.63
152.42243,350.25,422.22
152.44182,351.41,424.32
152.46341,353.63,429.91
152.48441,352.60,432.94
152.50481,351.39,438.91
152.52577,354.76,443.22
152.54575,358.23,443.64
152.56470,358.38,446.60
152.58475,362.16,459.64
152.60497,368.39,480.25
152.62581,377.62,500.22
152.64463,381.17,508.82
152.66580,384.20,508.89
152.68430,388.97,507.25
152.70591,387.64,504.49
152.72581,389.80,498.42
152.74782,390.53,498.12
152.76619,389.68,495.08
152.78693,390.28,489.87
152.80889,384.58,485.24
152.82842,386.10,482.23
152.84889,382.00,480.74
152.86846,380.48,478.61
152.88859,382.13,478.04
152.90741,378.99,477.81
152.92811,376.57,476.07
152.94794,377.36,477.35
152.96897,376.22,474.70
152.98704,377.53,474.84
153.00813,373.68,472.80
153.02734,369.95,466.99
153.04792,366.82,466.33
153.06862,361.74,462.30
153.08716,361.92,460.84
153.10996,361.11,461.13
153.12931,359.75,460.64
153.14977,355.33,459.63
153.16926,359.06,461.46
153.18862,359.49,458.37
153.20909,358.55,460.78
153.22990,357.56,461.26
153.24812,355.80,462.57
153.26992,357.68,465.65
153.28961,360.14,464.14
153.31095,355.97,467.42
153.33211,360.41,465.92
153.35207,357.95,467.83
153.37312,359.42,469.67
153.39219,361.23,471.08
153.41391,363.03,472.21
153.43338,362.46,473.36
153.45251,359.30,475.05
153.47290,360.97,474.10
153.49379,362.62,473.11
153.51246,362.34,471.94
153.53318,363.79,473.54
153.55359,364.03,469.79
153.57319,360.84,471.46
153.59429,362.97,469.10
153.61429,362.87,470.24
153.63409,363.69,471.31
153.65318,367.29,472.35
153.67450,365.87,469.69
153.69362,368.09,472.17
153.71328,368.72,482.61
153.73459,372.06,488.56
153.75307,372.84,493.74
153.77374,374.58,494.37
153.79494,370.94,496.41
153.81348,369.11,492.45
153.83434,369.07,489.72
153.85549,369.55,489.60
153.87401,369.04,485.08
153.89402,369.33,484.37
153.91639,373.19,486.02
153.93645,372.40,484.51
153.95687,370.82,480.38
153.97594,366.95,480.96
153.99579,368.49,478.37
154.01569,364.62,478.52
154.03694,363.43,479.28
154.05780,363.23,479.00
154.07628,365.03,478.66
154.09721,359.93,479.67
154.11561,356.02,477.39
154.13525,351.55,473.24
154.15626,351.03,474.35
154.17612,350.16,472.42
154.19541,349.79,471.93
154.21628,350.08,472.02
154.23524,350.68,473.15
154.25658,352.51,475.11
154.27622,350.79,475.27
154.29623,353.67,474.63
154.31697,352.01,473.91
154.33673,353.07,478.59
154.35777,354.54,479.12
154.37663,358.22,482.06
154.39575,358.68,483.47
154.41596,357.94,479.38
154.43529,355.98,476.83
154.45610,357.03,477.69
154.47507,368.22,476.04
154.49534,376.91,478.55
154.51520,387.33,478.00
154.53588,398.48,480.26
154.55730,399.14,473.77
154.57622,394.92,474.23
154.59575,398.91,473.86
154.61686,394.58,470.57
154.63614,391.43,473.21
154.65699,391.90,469.19
154.67544,388.20,466.72
154.69649,384.68,471.38
154.71623,383.87,466.76
154.73669,384.81,465.64
154.75698,382.74,463.48
154.77544,376.71,462.06
154.79523,372.65,462.20
154.81576,372.20,461.07
154.83639,369.94,462.38
154.85521,369.75,462.68
154.87736,366.93,465.40
154.89550,364.76,470.14
154.91619,365.82,469.43
154.93696,363.15,468.78
154.95558,362.88,468.17
154.97655,367.53,468.45
154.99597,366.80,469.04
155.01540,366.52,467.11
155.03680,363.56,468.10
155.05671,363.26,468.12
155.07704,361.11,467.37
155.09522,362.54,471.86
155.11546,363.32,471.62
155.13624,362.70,472.96
155.15556,361.87,473.16
155.17630,364.08,475.25
155.19547,363.70,475.09
155.21694,362.43,478.22
155.23576,364.47,474.87
155.25550,362.61,476.67
155.27642,360.40,477.03
155.29635,360.00,477.31
155.31780,358.14,475.99
155.33525,359.02,476.67
155.35524,356.32,477.64
155.37560,357.61,474.97
155.39596,359.64,474.03
155.41656,358.80,474.40
155.43702,363.09,473.11
155.45654,361.67,473.55
155.47601,361.49,471.68
155.49590,361.39,466.82
155.51650,362.16,465.88
155.53663,358.44,467.63
155.55603,360.14,468.27
155.57624,359.27,468.86
155.59637,359.07,468.25
155.61616,360.41,468.39
155.63696,360.81,464.71
155.65787,361.93,465.19
155.67740,362.03,464.42
155.69695,363.56,463.43
155.71800,363.89,466.74
155.73610,363.05,467.20
155.75714,363.42,464.83
155.77624,361.53,467.32
155.79618,360.11,463.71
155.81763,360.72,464.37
155.83775,361.40,467.10
155.85675,360.80,467.31
155.87607,361.80,466.52
155.89696,364.24,470.56
155.91895,366.74,467.37
155.93748,364.52,468.96
155.95877,368.25,465.63
155.97900,367.75,467.80
155.99956,366.57,467.52
156.01879,367.11,465.65
