Program Time [s],data 0,data 1
49.61515,457.41,568.43
49.63607,454.29,566.90
49.65452,454.34,565.05
49.67570,454.33,567.01
49.69569,457.43,566.99
49.71531,455.69,564.45
49.73483,451.79,563.37
49.75467,455.52,564.68
49.77483,453.41,565.02
49.79549,456.37,564.98
49.81586,454.18,561.02
49.83462,454.52,562.64
49.85597,456.80,561.45
49.87633,454.78,558.00
49.89516,454.32,560.57
49.91618,452.76,559.64
49.93636,454.50,560.57
49.95516,455.50,561.45
49.97457,454.21,560.69
49.99547,453.69,559.14
50.01643,453.05,560.21
50.03569,452.04,560.03
50.05624,452.83,558.32
50.07575,449.02,559.62
50.09602,452.11,558.37
50.11616,450.48,559.02
50.13612,453.47,556.37
50.15689,452.12,558.42
50.17610,451.97,555.43
50.19612,454.79,557.51
50.21718,451.80,556.38
50.23648,452.64,558.36
50.25720,453.04,555.95
50.27728,454.37,560.34
50.29705,449.74,559.20
50.31666,452.60,559.56
50.33580,450.68,559.28
50.35596,449.42,560.33
50.37566,449.84,557.69
50.39675,454.82,558.38
50.41574,451.50,556.64
50.43631,450.40,559.51
50.45595,451.37,557.06
50.47601,451.00,558.16
50.49533,439.74,555.37
50.51546,427.39,546.53
50.53735,408.90,544.38
50.55603,391.89,536.07
50.57561,376.11,529.93
50.59617,356.69,519.48
50.61718,348.09,513.57
50.63547,334.91,506.99
50.65725,331.93,501.03
50.67547,329.61,496.11
50.69800,329.41,494.70
50.71750,331.92,497.15
50.73775,336.92,497.62
50.75657,341.13,500.40
50.77796,350.81,504.35
50.79664,358.38,509.20
50.81824,366.34,514.83
50.83729,372.29,519.22
50.85705,382.30,524.04
50.87753,388.32,526.11
50.89673,394.16,530.23
50.91782,399.71,536.47
50.93830,405.74,536.82
50.95785,410.06,540.10
50.97749,418.37,542.73
50.99691,420.44,545.32
51.01629,423.16,547.65
51.03736,428.26,549.83
51.05754,427.86,551.40
51.07777,429.88,554.25
51.09692,434.97,557.14
51.11706,436.32,557.86
51.13779,440.59,559.32
51.15757,440.45,557.42
51.17717,442.37,557.49
51.19689,442.52,558.50
51.21648,442.56,552.24
51.23686,443.36,550.45
51.25637,443.16,548.55
51.27793,445.60,547.92
51.29682,446.91,545.42
51.31633,445.00,546.70
51.33728,446.87,546.05
51.35637,453.74,550.51
51.37761,464.98,561.62
51.39683,482.70,573.09
51.41818,503.98,584.61
51.43650,525.40,594.38
51.45760,549.82,607.45
51.47753,568.10,619.33
51.49887,579.36,624.33
51.51879,585.18,623.84
51.53995,581.53,620.37
51.55966,573.88,618.36
51.57894,565.19,612.72
51.59867,553.81,602.03
51.61917,543.77,597.06
51.63818,534.81,592.95
51.65914,522.53,587.71
51.67890,511.46,584.85
51.70056,505.01,577.34
51.72079,494.71,574.98
51.74009,486.75,574.15
51.75933,483.10,571.05
51.78092,475.00,569.33
51.80071,473.09,565.11
51.82164,466.82,563.14
51.84127,460.88,562.59
51.86013,457.77,564.25
51.88044,454.37,560.85
51.90089,452.10,562.74
51.92148,451.47,558.51
51.94147,448.33,562.05
51.96066,447.81,563.02
51.98218,447.11,564.17
52.00030,443.78,569.79
52.02125,445.14,570.55
52.04177,444.04,570.40
52.06204,439.09,569.71
52.08203,439.37,572.31
52.10030,439.16,568.96
52.12084,439.58,567.68
52.14057,440.24,568.87
52.16137,437.56,567.23
52.18131,438.84,568.55
52.20105,439.82,568.66
52.22050,441.37,564.68
52.24061,440.11,564.62
52.26035,439.27,562.36
52.28099,439.37,561.78
52.30105,437.30,560.56
52.32208,436.87,559.77
52.34222,438.08,559.54
52.36127,439.93,561.71
52.38067,439.20,559.42
52.40197,440.91,559.92
52.42209,439.45,560.64
52.44201,440.82,560.37
52.46187,439.78,560.88
52.48154,437.82,558.00
52.50199,440.33,558.91
52.52092,439.58,555.29
52.54200,439.36,557.50
52.56213,440.92,554.64
52.58212,437.87,553.12
52.60149,436.75,554.63
52.62086,438.12,555.50
52.64184,438.23,553.49
52.66229,436.28,555.61
52.68083,436.85,553.83
52.70021,436.10,555.00
52.72099,437.19,557.94
52.74228,439.36,557.35
52.76204,435.36,555.20
52.78230,436.28,555.49
52.80089,434.90,555.73
52.82075,438.75,556.70
52.84158,436.63,557.82
52.86189,437.88,552.72
52.88061,438.31,555.74
52.90213,438.70,553.45
52.92080,437.37,556.03
52.94087,438.01,557.09
52.96202,438.20,556.55
52.98033,440.01,557.28
53.00106,438.41,554.42
53.02123,437.45,559.26
53.04065,436.71,555.89
53.06135,438.87,558.23
53.08126,436.80,558.37
53.10132,436.44,559.43
53.12049,438.07,557.21
53.14033,437.58,560.76
53.16201,438.56,557.44
53.18108,437.95,557.08
53.20154,435.93,556.72
53.22122,439.52,558.07
53.24077,438.93,556.32
53.26089,437.51,558.30
53.28043,436.84,555.15
53.30122,438.17,557.95
53.32140,439.07,554.40
53.34188,440.04,557.09
53.36173,440.54,557.22
53.38194,442.04,556.55
53.40063,442.85,555.86
53.42046,442.17,554.86
53.44032,442.70,556.40
53.46119,439.94,556.17
53.48152,441.40,556.39
53.50177,437.98,551.90
53.52166,440.73,553.67
53.54114,438.47,552.13
53.56113,437.88,553.35
53.58119,438.34,552.45
53.60042,438.36,548.37
53.62195,437.63,548.35
53.64210,438.13,545.27
53.66075,440.08,545.02
53.68079,440.19,544.85
53.70119,437.66,546.60
53.72192,438.01,545.47
53.74184,438.45,546.08
53.76110,438.26,548.17
53.78015,436.30,550.92
53.80195,437.11,549.45
53.82119,438.94,549.42
53.84198,436.90,552.42
53.86138,437.22,554.30
53.88119,437.45,554.71
53.90131,437.31,556.63
53.92292,436.54,555.77
53.94141,438.89,555.16
53.96218,437.43,554.62
53.98154,438.44,552.22
54.00251,439.03,555.49
54.02234,437.72,555.78
54.04287,436.78,556.11
54.06139,439.13,552.66
54.08319,438.92,552.00
54.10302,434.41,552.00
54.12218,427.23,549.20
54.14283,411.88,545.25
54.16155,394.81,538.94
54.18195,375.61,531.51
54.20289,358.72,522.80
54.22306,347.61,516.05
54.24160,336.18,510.19
54.26335,328.31,502.83
54.28268,322.46,498.37
54.30147,323.49,494.83
54.32193,326.14,490.94
54.34275,330.05,494.10
54.36197,335.37,498.17
54.38400,341.44,504.34
54.40416,350.92,509.06
54.42419,358.29,515.63
54.44385,362.81,523.84
54.46382,370.47,527.16
54.48277,376.79,530.25
54.50264,385.84,534.69
54.52261,390.89,540.37
54.54287,397.03,540.57
54.56373,404.36,546.14
54.58229,410.34,545.04
54.60358,412.48,543.74
54.62423,416.66,548.94
54.64364,422.68,546.85
54.66331,425.70,549.98
54.68387,426.00,552.46
54.70246,427.74,554.00
54.72264,428.09,553.66
54.74271,433.68,554.69
54.76248,432.98,553.05
54.78392,433.52,554.75
54.80229,435.94,555.59
54.82307,434.74,553.80
54.84213,437.51,556.30
54.86296,439.40,557.30
54.88332,436.93,557.34
54.90306,439.84,555.67
54.92291,440.17,556.99
54.94362,439.85,559.19
54.96358,439.85,557.62
54.98410,439.74,558.73
55.00242,440.53,558.09
55.02240,440.76,556.14
55.04276,439.89,555.39
55.06406,440.88,557.44
55.08395,439.63,554.84
55.10340,445.18,557.77
55.12350,452.78,564.24
55.14290,466.82,572.45
55.16337,486.93,589.72
55.18284,510.08,602.14
55.20242,532.29,619.39
55.22241,556.39,631.54
55.24260,575.33,638.38
55.26413,586.87,638.57
55.28238,589.98,631.53
55.30332,586.05,626.40
55.32345,577.55,617.00
55.34335,570.99,612.48
55.36345,557.35,603.06
55.38440,546.77,597.04
55.40252,535.28,591.09
55.42303,526.06,588.42
55.44273,516.63,580.94
55.46400,507.98,580.07
55.48388,499.06,574.79
55.50409,492.64,573.80
55.52360,486.36,571.95
55.54305,479.64,566.73
55.56280,472.70,570.22
55.58253,468.66,567.72
55.60275,467.06,566.56
55.62311,462.70,563.12
55.64384,457.24,565.31
55.66313,457.37,561.47
55.68260,452.41,560.52
55.70223,453.42,560.32
55.72270,448.58,561.15
55.74323,448.06,559.54
55.76357,445.73,557.80
55.78472,448.02,559.62
55.80404,448.77,557.48
55.82489,447.33,554.52
55.84486,448.21,553.71
55.86534,447.18,553.98
55.88340,445.49,554.81
55.90413,446.38,553.25
55.92486,446.81,556.64
55.94387,445.56,555.62
55.96348,447.27,557.86
55.98479,445.66,558.68
56.00407,447.30,556.35
56.02380,443.75,556.22
56.04383,446.94,559.20
56.06329,447.25,556.01
56.08487,446.85,558.32
56.10474,448.09,555.20
56.12378,448.05,554.25
56.14507,447.93,556.75
56.16355,448.64,554.29
56.18438,448.89,556.56
56.20358,450.08,555.22
56.22339,450.11,555.28
56.24480,447.15,550.62
56.26470,449.47,548.54
56.28498,446.73,545.27
56.30452,448.69,545.85
56.32371,447.72,546.41
56.34451,447.81,544.91
56.36514,447.63,545.51
56.38390,446.33,548.85
56.40376,448.42,550.50
56.42445,445.91,552.33
56.44394,447.29,552.01
56.46365,446.61,553.56
56.48365,445.77,555.74
56.50344,445.51,555.13
56.52362,445.84,555.27
56.54501,445.81,557.43
56.56412,446.57,558.45
56.58338,447.34,556.36
56.60462,447.95,559.39
56.62518,446.67,557.24
56.64456,449.79,556.49
56.66378,448.93,558.44
56.68493,446.66,560.16
56.70405,446.84,557.19
56.72451,447.98,559.78
56.74490,445.78,559.23
56.76425,445.24,561.23
56.78461,446.83,559.92
56.80352,443.52,561.89
56.82502,445.73,563.43
56.84399,444.69,565.21
56.86422,445.02,570.16
56.88332,444.53,570.34
56.90498,446.57,568.93
56.92470,444.53,567.91
56.94407,445.97,569.11
56.96505,446.40,567.34
56.98444,444.58,565.58
57.00492,444.64,565.32
57.02376,445.47,564.86
57.04386,446.08,562.94
57.06463,447.07,564.48
57.08366,443.98,561.00
57.10424,444.27,563.36
57.12367,444.00,558.94
57.14407,446.61,559.80
57.16484,446.92,557.23
57.18505,443.57,556.25
57.20471,444.81,555.63
57.22413,445.79,558.37
57.24389,443.44,557.15
57.26451,446.20,557.70
57.28437,446.53,554.21
57.30330,448.82,555.91
57.32319,448.77,556.59
57.34497,449.77,555.58
57.36339,447.62,555.59
57.38389,448.36,556.88
57.40328,449.65,553.14
57.42462,447.78,552.67
57.44511,449.23,553.35
57.46312,449.26,553.61
57.48447,450.31,551.16
57.50603,447.57,550.76
57.52568,450.40,551.30
57.54542,452.36,553.47
57.56704,453.91,550.09
57.58562,451.73,549.02
57.60569,453.99,553.45
57.62550,455.03,550.55
57.64646,451.71,552.04
57.66724,453.36,551.83
57.68764,455.38,551.11
57.70734,456.51,551.65
57.72969,456.39,553.23
57.74917,453.95,556.24
57.76904,455.71,556.77
57.78969,454.88,555.09
57.80858,455.56,557.16
57.82869,455.67,557.52
57.84960,456.12,557.11
57.87015,456.60,555.42
57.88922,453.94,553.90
57.90965,455.17,552.22
57.92968,458.85,553.59
57.94935,456.18,553.14
57.96918,455.68,552.43
57.98916,456.13,555.20
58.01016,453.97,554.19
58.02819,454.80,554.65
58.04838,456.37,552.93
58.06809,455.34,555.54
58.08816,457.18,552.90
58.10858,459.63,553.27
58.12973,458.38,553.45
58.14941,458.15,555.01
58.16862,458.57,555.17
58.18942,460.21,557.12
58.20967,453.36,558.44
58.22915,441.35,555.74
58.24894,423.59,556.28
58.26899,405.09,558.75
58.29012,386.46,557.41
58.30992,368.59,550.95
58.32824,356.63,540.69
58.34950,345.46,531.01
58.36822,340.28,515.54
58.38861,338.73,497.58
58.40916,336.42,486.19
58.42848,340.72,479.92
58.44973,344.81,476.28
58.46988,350.50,477.70
58.48843,358.95,478.51
58.50996,366.62,485.16
58.52900,372.40,487.69
58.54989,380.06,494.75
58.56961,386.61,501.27
58.58814,398.49,508.70
58.60819,403.77,514.49
58.62983,410.15,518.53
58.64971,416.67,522.27
58.66875,421.34,528.01
58.68976,424.66,531.11
58.70886,432.63,533.51
58.72885,432.81,536.81
58.74974,435.77,541.80
58.76966,440.67,543.54
58.78826,441.52,546.58
58.80875,443.00,546.69
58.82967,442.75,548.05
58.84939,445.00,549.22
58.86822,447.37,550.60
58.88852,451.13,550.92
58.90865,448.97,553.34
58.92841,449.26,552.44
58.94965,453.24,551.86
58.96825,453.10,554.57
58.98962,455.24,555.95
59.00915,456.21,552.00
59.02997,455.05,553.55
59.04911,456.34,551.07
59.06852,457.78,548.41
59.08834,457.39,550.12
59.10969,460.83,545.68
59.12868,469.91,551.34
59.14918,479.10,559.93
59.16871,495.69,575.01
59.18849,514.29,588.07
59.20900,539.06,601.04
59.22918,562.73,615.71
59.24856,584.13,625.25
59.26932,598.88,628.11
59.29003,607.52,628.34
59.30908,605.43,623.11
59.32924,598.92,615.38
59.34850,591.57,610.94
59.36975,580.61,604.01
59.38984,566.09,595.68
59.40887,557.68,591.09
59.42987,544.53,586.31
59.44862,534.56,581.37
59.46961,525.38,579.92
59.48941,516.54,577.22
59.51009,506.78,572.06
59.52849,503.40,570.28
59.54872,498.30,571.00
59.56942,490.73,568.28
59.58982,485.90,565.82
59.60836,485.11,564.41
59.62889,480.31,562.21
59.64831,479.85,561.35
59.66888,477.35,563.26
59.68973,473.05,560.75
59.70982,471.49,560.78
59.72949,468.28,560.09
59.74915,466.59,561.98
59.76834,465.02,560.61
59.78999,464.96,562.17
59.80991,464.19,561.38
59.82950,460.65,559.32
59.84943,460.92,561.63
59.86956,460.36,565.22
59.88855,460.79,568.17
59.90986,459.77,570.08
59.92905,462.88,571.32
59.94958,461.42,570.27
59.96861,458.64,569.54
59.98917,460.23,572.87
60.00959,460.10,573.03
60.03073,459.72,569.31
60.05105,458.79,570.71
60.07102,458.33,570.69
60.09001,458.28,567.59
60.10978,460.79,567.84
60.12972,458.47,568.35
60.15056,460.54,566.56
60.16950,458.94,567.52
60.18984,459.27,564.73
60.21105,458.58,564.70
60.22906,457.21,565.35
60.25019,457.42,564.64
60.27100,457.38,560.50
60.28948,457.34,561.71
60.30985,455.75,563.13
60.32992,455.27,561.45
60.35036,459.06,561.57
60.37049,457.65,560.82
60.38972,458.19,561.61
60.41026,459.59,559.03
60.43021,456.78,559.50
60.45051,457.05,559.76
60.47120,457.77,562.16
60.49126,457.21,561.42
60.51101,454.79,558.62
60.53077,454.72,559.89
60.55110,456.29,561.28
60.57090,454.32,561.21
60.59106,453.56,559.21
60.61025,457.12,557.66
60.62979,457.60,557.42
60.64956,457.37,556.29
60.67056,457.58,557.52
60.68988,455.29,554.94
60.70927,457.24,558.34
60.73056,457.78,557.01
60.75133,457.62,556.55
60.77010,455.84,556.29
60.79115,454.44,556.28
60.81138,453.15,555.92
60.83092,452.17,556.70
60.85109,452.00,556.51
60.87106,455.85,554.94
60.89172,457.70,557.03
60.91062,456.15,556.49
60.93142,457.74,558.57
60.95063,458.27,557.32
60.97115,458.80,558.07
60.99112,457.10,558.21
61.01173,455.38,557.46
61.03214,452.31,555.74
61.05124,452.04,557.04
61.07266,454.59,557.35
61.09176,450.56,556.97
61.11204,451.21,555.12
61.13155,451.20,557.57
61.15121,448.41,558.34
61.17281,449.77,555.70
61.19150,450.28,557.94
61.21278,449.77,556.23
61.23197,450.28,557.01
61.25186,448.72,560.07
61.27239,449.42,556.54
61.29120,450.35,557.87
61.31111,447.44,557.73
61.33232,447.81,556.38
61.35140,450.60,557.15
61.37229,448.31,556.56
61.39252,450.17,555.91
61.41201,447.53,556.71
61.43125,448.61,557.36
61.45199,450.86,556.40
61.47165,452.09,557.50
61.49214,451.08,556.98
61.51168,449.18,554.67
61.53241,448.69,556.27
61.55308,449.59,555.84
61.57235,449.20,556.31
61.59192,449.79,557.99
61.61230,450.65,557.83
61.63255,451.31,557.24
61.65145,448.50,558.63
61.67223,450.63,557.12
61.69230,450.48,557.80
61.71245,447.48,559.99
61.73200,438.73,560.22
61.75179,425.67,560.89
61.77315,404.35,559.26
61.79297,385.05,557.14
61.81225,365.83,552.87
61.83122,349.30,543.00
61.85214,338.83,532.86
61.87252,332.84,520.63
61.89191,328.46,512.07
61.91141,326.38,501.01
61.93130,326.70,493.78
61.95187,327.97,488.75
61.97287,336.18,487.92
61.99250,340.00,487.42
62.01227,349.36,488.99
62.03111,354.80,493.39
62.05260,366.17,499.63
62.07140,373.40,502.43
62.09219,383.03,510.25
62.11127,388.60,516.90
62.13255,397.86,519.45
62.15203,403.31,524.29
62.17102,410.51,529.25
62.19189,415.11,530.59
62.21284,418.82,536.98
62.23229,421.55,539.34
62.25192,423.74,539.34
62.27306,430.58,543.66
62.29166,432.74,543.57
62.31278,436.59,546.70
62.33205,439.74,541.72
62.35106,440.28,543.30
62.37202,440.13,541.11
62.39189,441.80,540.76
62.41220,442.94,542.81
62.43245,446.78,543.47
62.45116,446.61,545.91
62.47247,442.66,544.04
62.49149,444.40,548.13
62.51125,448.92,548.33
62.53135,457.87,557.55
62.55167,474.34,567.19
62.57264,490.51,579.75
62.59168,516.78,590.87
62.61132,536.72,602.81
62.63238,559.36,610.14
62.65278,582.77,622.02
62.67122,592.84,625.55
62.69127,598.05,626.80
62.71254,598.53,620.49
62.73158,590.94,615.98
62.75221,581.05,610.59
62.77199,569.94,604.69
62.79104,559.29,595.54
62.81116,546.96,591.93
62.83207,535.99,588.41
62.85254,525.06,581.10
62.87155,514.54,580.42
62.89113,505.15,573.29
62.91148,497.63,572.05
62.93259,491.98,567.39
62.95233,484.69,565.98
62.97250,481.99,564.61
62.99186,475.68,560.58
63.01268,474.08,560.44
63.03236,468.34,561.38
63.05124,463.98,561.61
63.07252,463.77,559.12
63.09288,459.06,556.92
63.11166,459.88,560.44
63.13099,456.02,557.39
63.15253,455.54,561.20
63.17202,454.90,558.83
63.19147,455.28,561.65
63.21316,452.58,562.65
63.23229,453.01,566.29
63.25158,453.03,568.44
63.27236,450.36,568.70
63.29277,451.45,568.16
63.31284,447.04,566.90
63.33269,449.43,566.19
63.35260,445.42,567.90
63.37207,447.54,566.65
63.39131,443.65,565.50
63.41254,443.68,566.41
63.43128,445.47,564.37
63.45104,448.87,565.89
63.47113,448.19,565.43
63.49280,448.41,563.36
63.51257,446.08,562.36
63.53125,450.19,560.37
63.55221,448.98,562.90
63.57173,447.71,561.09
63.59230,446.95,561.59
63.61274,445.88,560.91
63.63261,445.99,559.87
63.65122,445.20,559.37
63.67131,446.09,559.83
63.69253,446.99,559.98
63.71136,448.86,559.04
63.73126,446.50,559.02
63.75175,447.09,560.63
63.77217,446.32,559.11
63.79125,447.76,558.51
63.81228,447.98,559.40
63.83212,446.94,558.26
63.85129,446.48,557.93
63.87232,447.41,559.90
63.89108,448.11,557.38
63.91262,447.57,557.62
63.93292,445.58,558.70
63.95119,445.78,556.32
63.97198,446.79,556.40
63.99176,445.50,558.20
64.01143,446.77,557.71
64.03139,447.61,556.87
64.05265,448.21,557.71
64.07185,449.11,559.52
64.09265,447.06,557.44
64.11283,446.44,558.76
64.13339,444.98,558.52
64.15333,444.22,558.72
64.17338,445.21,560.51
64.19454,442.84,560.46
64.21447,442.45,560.23
64.23421,441.23,559.48
64.25505,443.26,559.57
64.27504,444.55,559.10
64.29408,440.43,560.60
64.31497,440.83,557.13
64.33574,441.69,557.52
64.35554,440.13,558.88
64.37440,439.51,557.94
64.39564,439.49,555.90
64.41542,440.23,557.42
64.43597,439.70,557.73
64.45472,439.65,559.26
64.47447,439.98,557.56
64.49547,438.28,559.80
64.51430,439.60,558.26
64.53461,437.78,558.25
64.55505,437.01,556.14
64.57412,439.03,557.22
64.59493,440.37,558.50
64.61451,437.85,558.51
64.63536,438.34,557.60
64.65581,436.46,557.92
64.67547,436.69,559.51
64.69391,438.28,561.48
64.71417,437.91,558.39
64.73518,440.49,560.32
64.75529,437.07,560.44
64.77426,440.19,559.17
64.79553,439.04,558.93
64.81562,441.55,557.74
64.83584,441.81,559.36
64.85538,438.86,557.58
64.87663,439.29,558.15
64.89620,439.10,557.49
64.91703,439.59,557.06
64.93650,441.50,558.57
64.95729,439.21,555.07
64.97713,440.01,557.63
64.99788,440.49,555.95
65.01875,440.96,553.41
65.03789,433.80,549.58
65.05872,421.19,544.57
65.07857,403.90,538.91
65.09740,382.14,533.21
65.11827,363.97,526.98
65.13777,347.73,526.23
65.15708,336.26,517.91
65.17695,327.24,512.43
65.19872,322.15,509.43
65.21844,319.13,506.06
65.23890,319.45,501.92
65.25762,321.71,500.18
65.27765,327.53,497.37
65.29888,332.19,497.03
65.31844,340.37,500.55
65.33732,349.05,502.87
65.35776,355.46,506.74
65.37745,362.37,508.24
65.39816,369.47,515.14
65.41818,380.32,518.20
65.43775,384.70,522.02
65.45775,391.90,524.21
65.47805,399.27,529.28
65.49725,405.19,533.63
65.51770,410.92,534.76
65.53695,413.44,536.00
65.55704,417.79,538.89
65.57791,420.51,541.79
65.59765,422.90,546.19
65.61862,424.35,545.50
65.63860,426.98,545.26
65.65726,427.63,548.48
65.67721,439.81,555.95
65.69734,461.79,567.55
65.71825,487.71,583.77
65.73792,516.11,600.77
65.75820,542.56,614.57
65.77722,569.57,621.48
65.79775,583.90,624.80
65.81746,593.52,620.49
65.83740,593.50,614.18
65.85885,586.72,607.83
65.87842,578.66,603.80
65.89888,567.98,598.14
65.91831,557.20,592.44
65.93751,543.62,584.84
65.95779,534.84,581.15
65.97733,523.11,577.99
65.99928,511.84,576.62
66.01925,502.88,574.53
66.03919,494.56,572.41
66.05872,489.28,571.51
66.07915,486.19,566.37
66.09814,480.10,567.74
66.11783,475.55,564.37
66.13869,471.64,562.95
66.15883,467.82,562.48
66.17927,463.26,563.89
66.19943,461.44,561.25
66.21941,456.50,560.54
66.23870,456.35,561.53
66.25913,453.52,558.37
66.27933,450.28,559.80
66.29949,449.03,558.31
66.31842,450.57,558.20
66.33808,447.75,557.27
66.35820,449.61,555.06
66.37971,447.46,556.32
66.39806,448.97,556.05
66.41832,446.40,554.51
66.43792,446.82,557.47
66.45975,444.44,556.72
66.47896,445.21,554.92
66.49915,442.84,553.95
66.51979,444.82,555.54
66.53908,447.60,552.79
66.55966,447.96,553.83
66.57846,446.94,557.39
66.59924,445.18,557.90
66.61910,446.92,557.40
66.63853,447.54,558.11
66.65915,446.59,557.98
66.67948,443.82,556.56
66.69886,446.40,554.84
66.71908,443.85,553.26
66.73960,445.59,556.01
66.75889,445.18,556.63
66.77889,444.92,556.61
66.79868,443.88,555.18
66.81922,446.19,552.53
66.83849,444.20,555.39
66.85819,444.38,552.76
66.87903,445.93,553.40
66.89793,446.30,556.06
66.91914,443.69,553.22
66.93814,445.69,553.18
66.95950,445.23,554.14
66.97896,442.97,554.76
66.99975,447.16,553.51
67.01893,446.33,556.19
67.03937,445.60,555.95
67.05810,443.18,556.50
67.07824,442.18,556.06
67.09905,442.75,556.41
67.11922,446.83,555.42
67.13822,446.83,558.29
67.15859,445.84,556.88
67.17885,447.37,557.88
67.19899,449.93,556.06
67.21979,450.78,556.00
67.23948,450.11,557.71
67.25915,448.41,557.55
67.27886,446.98,556.82
67.29934,447.53,557.63
67.31824,443.63,558.62
67.33804,444.70,559.80
67.35790,444.37,559.16
67.37845,447.68,556.66
67.39867,444.69,558.31
67.41979,447.57,555.11
67.43963,446.41,556.13
67.45938,447.93,555.87
67.47826,447.80,557.55
67.49890,446.30,554.80
67.51869,446.69,554.87
67.53802,444.53,552.39
67.55805,443.79,550.66
67.57776,445.49,547.70
67.59896,442.06,548.29
67.61843,442.41,546.15
67.63999,444.71,544.84
67.65818,446.37,544.84
67.67977,446.60,548.64
67.69921,446.43,549.45
67.71872,447.63,546.91
67.73821,445.22,549.44
67.75888,445.21,549.54
67.77879,446.38,550.57
67.79965,442.77,550.98
67.81943,445.57,549.59
67.83817,442.97,552.67
67.85816,446.18,552.49
67.87802,445.46,553.45
67.89982,443.14,553.76
67.91794,445.26,554.53
67.93848,444.16,555.04
67.95855,443.38,553.62
67.97967,442.26,553.93
67.99987,444.33,555.50
68.01821,444.88,552.98
68.03978,444.53,551.77
68.05982,445.76,554.39
68.07833,445.13,550.92
68.09867,443.60,553.27
68.11838,444.90,554.20
68.13792,447.09,552.65
68.15881,446.28,554.26
68.17891,445.41,552.31
68.19985,445.61,554.22
68.21965,446.23,554.39
68.23853,445.21,553.16
68.25806,443.17,553.28
68.27935,444.92,553.01
68.29900,443.93,554.41
68.31975,443.79,552.24
68.33903,442.64,554.01
68.35916,443.08,554.10
68.37888,444.36,554.18
68.39861,444.15,553.50
68.41953,444.17,553.00
68.43846,447.27,553.54
68.45949,439.30,551.53
68.47987,422.96,546.85
68.49821,400.74,540.57
68.51855,384.21,540.84
68.53998,361.53,538.40
68.55969,345.50,530.71
68.57881,334.74,522.78
68.59820,323.47,514.36
68.61906,319.05,507.21
68.63945,321.02,501.18
68.65824,323.05,495.07
68.67904,325.78,493.39
68.69908,331.47,498.74
68.71849,337.65,501.71
68.73906,344.47,505.18
68.75939,354.94,511.56
68.77984,362.44,517.97
68.79825,370.20,522.10
68.81973,376.45,529.10
68.83993,384.00,532.29
68.85827,391.12,533.49
68.87816,398.14,537.36
68.89982,403.96,540.16
68.91937,407.76,542.68
68.93913,414.07,545.00
68.95802,417.03,546.88
68.97847,423.58,549.95
68.99897,424.73,551.12
69.01836,425.18,550.05
69.03913,427.71,551.24
69.05879,429.10,552.24
69.07818,435.35,554.00
69.09815,433.02,552.01
69.11826,434.08,552.33
69.13835,436.97,552.62
69.15924,439.09,553.92
69.17905,437.72,550.96
69.19863,439.98,553.68
69.21805,443.52,552.61
69.23844,449.41,557.16
69.25907,465.79,559.22
69.27904,484.94,567.63
69.29861,507.61,575.85
69.31834,533.71,588.93
69.33894,562.45,598.90
69.35879,580.92,605.83
69.37942,597.20,610.20
69.39870,599.71,611.31
69.41906,593.25,612.24
69.43988,584.52,609.90
69.45811,577.01,605.21
69.47816,565.76,600.79
69.49783,555.47,595.33
69.51933,541.74,589.71
69.53861,532.16,586.32
69.55822,524.16,584.89
69.57783,512.36,582.59
69.59905,504.96,577.92
69.61901,495.95,578.01
69.64073,489.20,573.03
69.65957,485.24,571.95
69.67885,480.15,568.13
69.69910,474.14,567.89
69.71887,473.90,566.48
69.73966,470.87,564.85
69.75963,467.99,566.02
69.77957,464.17,563.29
69.79982,461.91,561.31
69.81941,461.40,561.31
69.84071,458.48,562.52
69.85956,457.54,563.36
69.88019,455.42,559.57
69.89952,453.80,558.46
69.92068,451.75,560.69
69.93898,453.34,560.13
69.96040,453.86,560.88
69.97998,454.91,560.70
70.00032,454.06,560.08
70.01896,453.48,559.23
70.03935,451.28,558.03
70.06065,451.80,557.20
70.08068,453.38,558.31
70.09904,453.35,557.98
70.11995,451.89,554.98
70.14032,451.31,557.60
70.16085,450.18,553.32
70.17933,448.90,554.57
70.20023,449.25,555.92
70.22020,448.74,553.43
70.24017,450.91,553.98
70.26061,449.63,555.49
70.28072,452.38,554.29
70.30074,452.99,554.35
70.32042,452.79,555.95
70.34159,456.54,555.11
70.36130,455.03,555.72
70.38007,455.44,557.01
70.40035,457.52,555.50
70.42048,457.74,553.44
70.44129,458.21,553.39
70.46025,457.58,553.90
70.48125,456.66,554.82
70.50107,454.00,555.15
70.52082,456.25,554.98
70.54024,452.54,556.83
70.56070,454.77,554.52
70.58019,453.37,554.33
70.60201,455.80,554.42
70.62139,454.16,556.85
70.64267,455.57,554.25
70.66099,453.02,556.79
70.68222,454.51,556.19
70.70236,454.67,555.55
70.72275,453.17,555.16
70.74118,452.95,556.63
70.76091,454.59,555.81
70.78103,454.13,557.27
70.80271,453.45,554.93
70.82231,456.37,553.50
70.84140,455.09,553.28
70.86138,457.50,554.72
70.88218,458.00,554.63
70.90098,456.61,554.57
70.92186,456.75,557.11
70.94166,455.36,557.08
70.96192,456.95,554.81
70.98117,454.89,554.40
71.00289,454.69,556.89
71.02096,455.42,557.40
71.04174,451.70,554.85
71.06188,452.94,556.35
71.08215,453.10,555.88
71.10219,456.71,554.76
71.12143,453.62,555.40
71.14172,453.76,556.84
71.16221,456.27,556.40
71.18148,456.46,559.66
71.20234,456.13,557.55
71.22152,456.96,556.00
71.24114,456.93,557.62
71.26156,460.36,557.20
71.28200,460.45,557.01
71.30117,458.41,558.10
71.32200,457.02,558.98
71.34252,459.66,560.09
71.36245,458.40,557.94
71.38144,457.34,556.41
71.40131,458.30,559.18
71.42200,457.99,557.32
71.44259,456.07,556.37
71.46174,455.12,559.45
71.48098,455.12,556.74
71.50153,458.65,558.40
71.52244,457.54,558.28
71.54133,458.95,557.92
71.56255,458.14,554.80
71.58092,457.66,554.03
71.60162,460.48,553.62
71.62245,458.69,552.78
71.64102,458.66,555.11
71.66191,458.98,554.15
71.68214,459.06,555.54
71.70116,458.90,557.97
71.72162,457.83,556.83
71.74112,458.22,558.51
71.76126,459.56,556.17
71.78177,458.79,555.30
71.80231,462.60,555.89
71.82234,460.62,555.15
71.84099,460.68,557.59
71.86277,460.69,555.49
71.88169,461.22,557.15
71.90170,458.31,557.00
71.92184,459.24,559.53
71.94083,460.84,555.09
71.96109,460.88,554.52
71.98199,460.64,554.79
72.00236,460.41,553.89
72.02142,457.47,549.60
72.04276,445.61,544.80
72.06113,429.21,535.22
72.08173,408.94,529.43
72.10095,389.29,524.50
72.12278,370.85,517.76
72.14220,354.76,512.63
72.16204,342.32,507.07
72.18252,334.98,502.55
72.20228,329.76,499.13
72.22081,327.68,500.30
72.24135,330.33,501.54
72.26112,335.33,504.55
72.28144,340.80,506.97
72.30187,348.75,509.44
72.32184,356.02,513.05
72.34254,368.12,517.57
72.36157,375.67,518.51
72.38214,384.95,526.06
72.40270,394.83,527.81
72.42228,400.62,532.00
72.44171,409.65,532.59
72.46241,413.43,535.84
72.48187,420.62,538.36
72.50163,425.11,539.10
72.52230,432.33,541.88
72.54260,434.44,542.72
72.56198,439.91,545.38
72.58092,440.07,547.60
72.60118,443.20,547.19
72.62082,441.90,550.05
72.64105,446.07,551.00
72.66184,447.39,554.01
72.68097,450.65,553.84
72.70103,452.10,555.21
72.72063,452.91,555.13
72.74217,449.53,555.67
72.76185,450.84,558.88
72.78112,453.80,555.85
72.80252,457.59,555.45
72.82227,455.58,556.68
72.84155,456.13,555.26
72.86175,454.10,556.47
72.88256,458.53,559.53
72.90240,469.09,563.96
72.92098,491.13,569.04
72.94191,515.58,581.57
72.96254,538.23,591.48
72.98280,563.42,598.81
73.00124,586.87,602.48
73.02187,600.78,609.72
73.04145,602.86,608.22
73.06123,597.58,603.92
73.08155,592.21,600.63
73.10161,582.41,593.70
73.12193,572.64,592.13
73.14185,565.57,588.44
73.16216,550.95,583.53
73.18193,542.21,582.02
73.20089,532.40,577.64
73.22206,523.52,576.01
73.24237,515.30,570.90
73.26277,510.40,572.22
73.28104,502.87,571.22
73.30178,497.05,565.69
73.32226,489.70,565.65
73.34144,488.94,566.31
73.36155,482.41,564.38
73.38085,480.75,563.19
73.40081,477.54,562.35
73.42093,473.05,559.39
73.44109,471.78,561.84
73.46213,467.49,559.10
73.48268,466.22,560.61
73.50127,466.10,558.81
73.52259,463.61,558.72
73.54197,464.88,557.84
73.56106,464.51,558.48
73.58246,462.58,558.34
73.60173,460.00,559.06
73.62268,461.83,558.56
73.64239,462.17,558.57
73.66101,459.66,558.32
73.68140,457.16,559.43
73.70206,457.28,560.65
73.72266,457.05,559.78
73.74223,458.53,560.74
73.76125,457.80,558.81
73.78176,459.60,561.81
73.80279,458.98,560.12
73.82113,459.04,560.38
73.84160,458.87,558.85
73.86077,461.74,558.77
73.88126,461.20,559.74
73.90217,459.82,558.85
73.92140,459.80,559.69
73.94279,461.35,559.81
73.96252,460.70,559.84
73.98080,461.77,557.49
74.00130,461.03,560.86
74.02268,458.75,559.92
74.04121,461.20,560.91
74.06249,460.70,561.60
74.08091,462.26,561.21
74.10148,460.20,561.04
74.12139,459.57,562.76
74.14267,461.65,561.84
74.16166,460.90,563.42
74.18151,458.92,562.21
74.20071,464.46,563.49
74.22143,464.76,564.67
74.24258,468.42,563.78
74.26077,470.11,563.02
74.28134,470.37,563.69
74.30231,468.61,563.90
74.32157,471.19,564.85
74.34243,468.32,562.10
74.36102,468.96,561.84
74.38217,467.32,562.52
74.40267,463.24,562.35
74.42174,463.87,561.01
74.44245,463.79,562.04
74.46177,461.78,560.94
74.48255,461.76,558.82
74.50179,462.26,560.32
74.52099,461.05,559.88
74.54155,460.50,557.70
74.56115,463.35,558.10
74.58212,462.98,559.30
74.60094,459.83,558.69
74.62074,460.61,556.35
74.64234,461.20,559.70
74.66188,459.90,555.33
74.68140,459.76,550.62
74.70198,461.68,550.26
74.72113,461.45,549.94
74.74172,460.70,549.72
74.76246,462.34,546.68
74.78154,458.39,548.51
74.80091,460.97,547.99
74.82189,458.17,547.23
74.84094,460.77,546.77
74.86152,462.12,548.73
74.88150,461.01,549.68
74.90179,461.86,550.00
74.92229,462.65,550.04
74.94144,461.75,553.21
74.96206,461.72,553.77
74.98196,463.28,554.90
75.00081,461.00,553.48
75.02097,458.79,555.95
75.04261,458.61,555.98
75.06150,459.63,557.13
75.08241,461.68,558.28
75.10246,461.74,555.66
75.12099,460.30,555.15
75.14157,462.71,556.02
75.16187,463.32,557.75
75.18075,462.04,558.79
75.20159,462.49,558.87
75.22203,461.47,556.73
75.24139,460.38,556.77
75.26269,459.63,557.85
75.28362,460.07,555.90
75.30174,461.30,557.05
75.32221,462.74,556.65
75.34170,462.27,555.26
75.36263,464.72,555.26
75.38268,463.85,557.15
75.40317,460.08,556.92
75.42184,461.22,555.87
75.44187,461.73,556.06
75.46344,457.64,557.94
75.48194,459.56,556.53
75.50237,459.37,556.23
75.52356,458.87,556.74
75.54292,455.84,559.19
75.56348,458.50,558.34
75.58185,456.79,555.91
75.60312,458.62,557.36
75.62183,458.42,554.89
75.64258,458.87,555.32
75.66183,457.87,557.15
75.68328,456.12,555.64
75.70191,456.25,556.41
75.72240,454.05,554.44
75.74192,456.67,555.70
75.76309,458.16,555.56
75.78273,457.53,553.84
75.80201,457.54,556.83
75.82329,458.98,553.84
75.84255,461.31,556.49
75.86331,458.67,556.10
75.88210,461.27,555.69
75.90297,457.80,556.22
75.92358,458.70,556.02
75.94336,458.98,558.90
75.96195,457.52,560.38
75.98234,458.72,557.38
76.00284,456.87,560.00
76.02165,458.58,560.11
76.04252,458.11,558.06
76.06205,456.14,559.48
76.08346,457.21,558.51
76.10179,456.34,559.91
76.12367,455.02,559.52
76.14261,457.33,559.61
76.16214,457.27,563.07
76.18245,459.02,563.62
76.20206,459.44,566.65
76.22336,458.33,567.90
76.24188,457.10,567.42
76.26375,456.21,567.18
76.28348,456.46,565.44
76.30202,456.98,563.68
76.32205,453.56,562.73
76.34233,455.57,563.64
76.36181,456.93,565.69
76.38205,457.21,567.96
76.40226,457.24,566.68
76.42274,454.78,566.48
76.44288,457.30,567.69
76.46324,456.11,567.29
76.48353,457.24,566.35
76.50339,453.87,565.08
76.52195,456.57,564.71
76.54259,457.49,564.40
76.56200,457.44,564.87
76.58187,457.30,562.64
76.60194,456.74,561.04
76.62298,455.76,561.03
76.64262,454.86,560.70
76.66336,457.77,559.50
76.68254,454.29,561.03
76.70238,453.44,558.99
76.72296,454.10,559.11
76.74304,455.73,558.87
76.76260,455.22,560.75
76.78271,450.76,560.91
76.80218,431.98,562.33
76.82278,409.21,563.41
76.84251,386.88,567.20
76.86181,364.02,567.89
76.88353,343.29,564.32
76.90233,332.71,557.66
76.92316,327.87,551.84
76.94186,323.38,541.02
76.96196,321.93,533.73
76.98230,325.62,528.73
77.00368,331.51,520.85
77.02246,337.98,518.11
77.04251,342.46,515.03
77.06221,355.92,510.42
77.08174,362.10,509.80
77.10179,370.97,509.57
77.12230,381.44,511.56
77.14251,386.65,513.85
77.16252,395.15,519.51
77.18299,403.49,522.44
77.20224,409.16,526.31
77.22182,415.00,527.73
77.24225,422.62,530.15
77.26199,425.80,533.61
77.28221,429.28,536.49
77.30262,431.90,541.61
77.32208,437.83,541.20
77.34361,440.62,542.33
77.36314,441.72,543.82
77.38311,443.74,546.19
77.40319,443.10,548.80
77.42212,443.54,550.16
77.44328,448.80,551.65
77.46169,458.25,554.20
77.48264,474.66,563.78
77.50200,499.25,571.20
77.52279,526.46,583.03
77.54357,556.58,589.89
77.56313,581.50,598.12
77.58335,601.68,606.35
77.60337,612.46,606.79
77.62313,610.52,608.05
77.64203,607.39,604.02
77.66244,595.32,600.62
77.68193,584.52,596.06
77.70229,571.41,589.85
77.72281,562.29,585.90
77.74328,550.88,581.23
77.76233,539.03,580.22
77.78255,529.43,575.15
77.80242,518.22,572.83
77.82270,512.12,569.53
77.84214,505.52,569.88
77.86153,498.27,565.04
77.88293,492.80,563.69
77.90302,489.05,562.98
77.92326,482.32,562.70
77.94191,478.12,559.92
77.96287,473.51,560.69
77.98233,473.89,561.62
78.00188,467.35,560.68
78.02299,464.90,557.64
78.04245,466.68,560.78
78.06318,461.30,557.55
78.08162,462.48,556.62
78.10277,458.24,559.26
78.12199,458.89,557.68
78.14303,460.38,557.48
78.16217,457.43,560.21
78.18293,457.36,557.83
78.20348,457.50,560.51
78.22315,454.49,560.67
78.24247,455.06,559.84
78.26233,458.08,560.99
78.28322,454.91,561.27
78.30248,459.28,560.85
78.32189,457.59,559.52
78.34226,455.98,559.04
78.36294,455.75,561.35
78.38198,458.31,558.09
78.40233,455.99,559.20
78.42192,454.39,558.85
78.44192,454.01,560.39
78.46263,455.34,560.16
78.48275,454.96,561.13
78.50323,456.08,561.59
78.52245,458.48,561.25
78.54349,456.77,560.56
78.56330,456.79,557.23
78.58177,456.51,558.12
78.60263,456.50,558.04
78.62261,454.90,557.75
78.64236,453.00,556.08
78.66200,456.76,559.38
78.68211,453.46,560.67
78.70357,453.97,560.89
78.72276,455.28,559.98
78.74172,454.91,562.13
78.76265,454.48,559.56
78.78198,453.92,558.73
78.80260,456.05,559.58
78.82190,454.56,562.17
78.84161,455.05,559.64
78.86162,454.34,561.30
78.88245,453.80,559.05
78.90308,453.38,559.55
78.92324,452.48,558.92
78.94271,451.68,558.34
78.96168,454.40,558.76
78.98232,454.32,558.10
79.00229,455.61,556.67
79.02182,453.32,559.77
79.04271,456.62,559.32
79.06308,453.58,556.78
79.08267,455.72,558.84
79.10256,454.95,556.47
79.12281,452.84,559.76
79.14282,453.39,558.10
79.16203,451.33,559.44
79.18338,453.12,558.91
79.20324,455.38,560.36
79.22240,452.65,557.62
79.24331,456.11,558.24
79.26344,455.18,560.54
79.28219,454.65,557.91
79.30234,457.84,556.80
79.32338,455.78,557.10
79.34243,454.68,557.72
79.36358,455.63,556.08
79.38238,456.73,555.68
79.40317,453.26,555.50
79.42274,454.71,554.01
79.44350,452.18,558.20
79.46327,452.74,557.42
79.48205,453.97,554.74
79.50248,452.12,557.49
79.52239,452.19,555.38
79.54352,454.38,556.90
79.56152,455.90,555.45
79.58382,452.37,557.72
79.60377,454.85,557.85
79.62360,451.87,556.57
79.64327,453.99,556.02
79.66278,451.96,553.72
79.68310,453.98,553.24
79.70320,453.30,557.52
79.72365,455.43,555.59
79.74301,457.20,556.50
79.76282,453.62,555.88
79.78308,454.50,557.90
79.80371,454.30,559.18
79.82449,451.49,557.73
79.84445,454.07,554.85
79.86340,451.74,556.15
79.88359,452.73,556.63
79.90384,454.52,558.77
79.92413,453.77,558.25
79.94523,452.68,555.63
79.96394,453.79,558.47
79.98576,450.02,555.38
80.00576,449.05,558.35
80.02557,449.29,558.46
80.04496,450.33,558.92
80.06525,449.24,555.90
80.08533,447.13,558.36
80.10563,450.21,556.32
80.12509,448.43,557.30
80.14665,447.91,554.72
80.16661,449.22,556.57
80.18489,450.44,558.16
80.20656,447.87,558.03
80.22470,449.16,556.11
80.24588,449.69,557.33
80.26620,445.57,556.34
80.28743,445.41,555.75
80.30740,443.59,557.36
80.32592,444.17,557.44
80.34682,441.87,559.56
80.36738,441.74,557.95
80.38707,440.66,558.24
80.40600,442.24,557.74
80.42732,442.08,559.03
80.44653,442.13,556.72
80.46783,442.89,557.57
80.48709,441.67,554.77
80.50705,440.76,556.36
80.52652,442.05,554.17
80.54747,441.71,552.75
80.56675,442.44,552.89
80.58804,442.92,552.51
80.60849,442.96,554.43
80.62717,441.72,554.97
80.64725,440.59,552.81
80.66717,440.59,553.56
80.68803,437.92,553.28
80.70855,438.27,553.95
80.72844,437.27,552.17
80.74708,438.75,554.55
80.76685,440.72,556.19
80.78837,438.79,554.70
80.80815,439.49,555.85
80.82695,439.29,554.41
80.84749,431.88,552.03
80.86858,414.42,548.38
80.88828,396.29,547.06
80.90825,374.97,545.19
80.92723,357.19,546.05
80.94707,337.06,542.43
80.96733,325.37,537.49
80.98845,318.99,531.91
81.00756,316.51,526.22
81.02709,314.86,522.77
81.04791,315.81,520.93
81.06666,322.95,517.44
81.08748,325.12,517.27
81.10766,332.95,513.49
81.12787,341.38,513.62
81.14720,348.90,514.28
81.16706,353.67,513.58
81.18762,363.11,516.34
81.20755,370.06,518.64
81.22754,379.57,521.83
81.24736,383.31,524.25
81.26759,390.73,526.17
81.28840,398.81,533.21
81.30768,401.93,532.30
81.32695,408.36,536.64
81.34770,411.67,540.94
81.36790,417.94,543.61
81.38831,418.99,542.51
81.40838,423.26,544.75
81.42791,423.88,545.13
81.44811,429.66,548.25
81.46870,447.06,550.12
81.48855,466.75,552.76
81.50793,492.90,559.45
81.52920,514.81,568.41
81.54796,540.22,576.70
81.56893,558.34,585.04
81.58956,576.41,597.05
81.60804,584.26,602.09
81.62826,587.32,607.26
81.64796,583.95,604.08
81.66876,575.98,600.17
81.68822,569.05,598.13
81.70850,555.61,594.08
81.72820,543.39,590.07
81.74786,532.49,582.62
81.76956,522.83,582.12
81.78803,511.64,577.50
81.80905,501.76,573.40
81.82774,492.96,569.50
81.84926,487.73,570.80
81.86758,480.05,567.68
81.88799,475.25,565.59
81.90894,466.59,562.17
81.92801,462.04,560.89
81.95027,457.38,559.06
81.96945,454.00,558.30
81.98844,452.26,558.73
82.01049,451.12,555.63
82.02883,449.59,554.03
82.04895,447.69,553.17
82.06900,446.42,552.19
82.08929,442.97,552.47
82.11075,441.99,554.84
82.12868,439.37,553.75
82.14939,439.48,555.24
82.16906,440.32,556.35
82.18875,440.68,554.33
82.20991,439.43,553.54
82.22857,441.58,553.68
82.25056,436.96,556.33
82.26971,439.02,556.45
82.28948,436.02,553.00
82.30894,434.32,553.77
82.32857,437.15,553.37
82.34936,435.39,554.91
82.36965,438.40,555.05
82.38976,437.13,555.19
82.40954,437.18,553.54
82.42910,439.12,553.88
82.44998,438.21,554.72
82.47001,437.45,554.09
82.48871,437.08,550.95
82.50955,440.50,551.95
82.52946,439.15,550.16
82.54904,438.53,553.11
82.56904,440.05,551.55
82.58901,439.47,553.81
82.60892,440.13,553.50
82.62886,439.64,552.27
82.64901,441.29,554.58
82.67053,439.94,553.67
82.68988,436.93,556.60
82.70967,439.57,555.95
82.72871,438.58,553.73
82.74959,438.44,556.69
82.76877,437.86,553.44
82.79043,439.43,557.36
82.80987,438.93,553.74
82.83021,436.54,554.50
82.85031,437.00,556.48
82.86903,438.00,553.61
82.89043,437.57,555.99
82.90956,438.63,555.01
82.92946,439.31,556.43
82.94931,439.67,555.77
82.96877,436.96,552.99
82.99027,436.87,553.10
83.00936,440.48,553.89
83.02916,440.24,552.93
83.04911,438.94,554.66
83.06987,435.84,555.77
83.08997,436.64,555.59
83.11040,436.93,556.96
83.12950,437.40,556.39
83.14955,437.93,556.61
83.16888,437.64,556.70
83.19017,439.44,555.07
83.20871,436.65,556.27
83.22867,436.86,553.10
83.24922,437.55,555.71
83.26907,437.15,552.72
83.28960,438.50,551.98
83.31006,438.62,554.20
83.32917,441.09,553.36
83.35036,440.81,553.70
83.37054,437.84,552.99
83.38981,440.58,553.01
83.40984,438.25,552.05
83.43020,440.16,554.14
83.44967,438.78,551.48
83.46956,440.15,550.77
83.48875,441.77,552.85
83.50933,442.81,551.17
83.52969,440.38,552.83
83.55045,439.45,552.25
83.57119,440.02,550.58
83.59034,438.32,552.81
83.60997,440.64,554.17
83.63074,439.98,553.85
83.65057,440.82,552.26
83.66984,441.18,551.12
83.68984,440.21,551.74
83.71136,440.38,553.49
83.73058,442.02,552.07
83.75107,440.27,552.43
83.77063,442.32,553.30
83.79046,441.85,552.05
83.81040,439.84,553.51
83.83025,442.24,553.84
83.85053,439.72,551.77
83.87090,443.14,552.43
83.88992,441.75,552.17
83.91032,440.99,551.68
83.93064,441.62,553.84
83.95057,441.22,549.99
83.97133,441.46,553.12
83.99000,439.80,550.40
84.01064,438.13,553.54
84.03071,439.10,553.11
84.05111,441.27,552.83
84.07038,440.21,553.59
84.09081,437.74,553.69
84.10981,440.23,555.76
84.13144,438.88,555.70
84.14987,438.30,554.81
84.17092,440.30,553.91
84.19145,439.32,554.59
84.20972,441.24,552.12
84.23102,439.27,552.44
84.25140,442.77,552.68
84.27124,441.25,551.64
84.29010,441.59,551.33
84.31043,443.12,554.18
84.33111,440.41,551.32
84.34961,439.90,554.73
84.36964,435.53,554.44
84.39140,425.81,554.62
84.41135,410.19,553.39
84.43057,396.43,548.57
84.45030,381.88,550.05
84.47114,369.42,539.70
84.48985,357.96,533.70
84.51114,350.37,526.23
84.52962,344.59,518.21
84.55138,341.72,513.92
84.57016,336.75,510.30
84.59091,336.47,508.17
84.60968,338.68,506.83
84.63017,342.02,506.66
84.65156,340.90,509.83
84.67094,343.59,513.62
84.69125,348.61,513.85
84.71137,352.45,515.94
84.72962,357.27,521.51
84.74999,359.05,523.32
84.77000,365.49,529.01
84.78987,372.64,531.48
84.81035,377.54,532.31
84.82993,386.79,535.51
84.84979,394.38,536.01
84.87035,396.68,535.65
84.89068,405.00,537.95
84.90962,410.58,542.52
84.93103,413.04,542.10
84.95086,416.43,545.25
84.96975,419.67,547.29
84.99135,421.53,548.41
85.01066,423.95,547.54
85.03078,426.69,548.42
85.05139,425.96,550.62
85.07032,430.98,551.78
85.09003,430.57,551.55
85.10995,435.94,554.62
85.13010,437.43,552.25
85.14992,435.85,552.13
85.17107,436.89,553.00
85.19136,442.63,554.25
85.20994,454.90,557.75
85.23076,472.71,563.23
85.25091,489.85,566.76
85.27029,513.57,575.58
85.29121,539.27,577.45
85.30964,557.17,581.66
85.32941,570.81,583.55
85.35139,582.94,589.21
85.37076,590.74,590.06
85.38968,587.69,592.94
85.41043,584.01,592.89
85.43070,572.69,589.91
85.45114,563.14,590.70
85.46951,549.51,585.41
85.49025,539.91,582.74
85.50945,525.41,579.23
85.53107,515.59,576.06
85.54963,506.78,574.45
85.56973,497.29,568.51
85.59125,492.98,568.34
85.61096,486.39,564.39
85.63051,477.90,565.98
85.65037,473.84,563.35
85.67146,470.35,560.97
85.68998,467.99,560.54
85.70963,463.85,561.13
85.73029,459.24,560.79
85.74959,458.47,558.72
85.77045,455.87,558.08
85.79092,454.71,556.76
85.81129,452.68,558.31
85.83096,451.15,558.29
85.85107,450.71,557.66
85.87148,445.75,557.85
85.89046,448.18,560.04
85.91065,446.52,560.64
85.93044,443.78,558.53
85.94992,443.28,558.87
85.97081,447.37,558.41
85.99202,444.92,559.19
86.01173,447.66,556.46
86.03164,445.70,559.12
86.05140,447.76,556.84
86.07106,445.37,555.65
86.09173,445.81,556.76
86.11166,444.83,556.56
86.13097,445.56,557.56
86.15129,447.65,556.20
86.17115,447.23,554.31
86.19045,447.20,555.54
86.21164,446.78,554.47
86.23073,445.35,556.13
86.25099,444.18,556.56
86.27154,442.67,556.32
86.29071,445.77,555.82
86.31075,445.92,555.90
86.33198,446.33,554.40
86.35098,445.95,555.24
86.37062,443.98,553.64
86.39129,446.84,555.81
86.41190,445.96,553.25
86.43078,444.56,554.02
86.45135,444.97,556.42
86.47083,445.44,555.87
86.49217,446.82,553.69
86.51333,444.07,556.03
86.53279,446.96,558.08
86.55308,446.97,559.05
86.57249,446.67,556.66
86.59280,448.59,558.86
86.61411,448.17,555.65
86.63328,449.48,555.90
86.65282,450.77,559.06
86.67273,451.16,557.95
86.69235,451.07,559.07
86.71414,450.96,558.74
86.73413,453.84,559.64
86.75253,456.10,557.20
86.77318,455.23,559.56
86.79440,453.80,558.45
86.81357,456.64,555.85
86.83397,454.07,553.85
86.85311,453.94,555.44
86.87328,455.55,556.22
86.89385,454.19,557.23
86.91308,454.37,558.59
86.93543,455.12,556.83
86.95435,454.69,557.78
86.97427,454.40,556.24
86.99358,457.37,555.15
87.01536,457.14,554.54
87.03446,456.36,556.36
87.05486,460.01,558.37
87.07487,459.03,556.44
87.09448,460.72,554.17
87.11525,457.65,557.91
87.13463,459.06,556.10
87.15564,457.21,555.84
87.17574,457.20,555.82
87.19567,460.09,557.17
87.21625,459.31,556.87
87.23630,458.78,557.31
87.25624,458.54,555.40
87.27508,460.08,557.42
87.29642,461.48,558.06
87.31558,459.55,558.28
87.33460,458.40,557.05
87.35476,455.90,557.28
87.37576,454.75,559.25
87.39447,458.03,559.07
87.41519,459.05,554.83
87.43512,457.63,557.49
87.45469,458.99,557.52
87.47542,460.40,557.55
87.49475,460.61,553.87
87.51599,457.13,557.53
87.53598,459.50,557.06
87.55654,460.14,555.11
87.57457,458.94,555.64
87.59553,460.36,555.92
87.61461,457.15,555.49
87.63631,457.57,553.89
87.65545,459.18,554.86
87.67566,460.81,556.88
87.69550,462.29,557.35
87.71488,463.33,556.53
87.73502,459.19,558.90
87.75550,458.89,558.55
87.77536,458.29,556.98
87.79547,458.44,557.24
87.81641,461.04,556.62
87.83527,458.45,555.88
87.85622,458.79,557.58
87.87525,456.93,554.55
87.89618,458.74,554.41
87.91690,458.96,555.98
87.93739,457.73,557.28
87.95652,457.25,560.32
87.97732,459.15,561.34
87.99563,454.58,558.10
88.01572,457.22,558.96
88.03674,456.55,560.11
88.05642,458.80,561.18
88.07683,455.60,562.05
88.09577,458.42,558.61
88.11719,457.68,561.10
88.13663,457.25,557.65
88.15628,457.41,556.71
88.17611,456.93,557.33
88.19650,460.50,559.43
88.21680,459.48,555.79
88.23630,451.91,555.74
88.25716,433.41,556.30
88.27699,416.89,558.56
88.29632,392.57,560.80
88.31610,370.61,562.75
88.33743,353.09,564.02
88.35685,339.21,560.66
88.37552,331.39,556.02
88.39648,326.35,551.85
88.41571,324.62,543.15
88.43674,324.47,535.80
88.45711,329.60,533.64
88.47739,334.44,526.46
88.49755,343.83,522.68
88.51576,348.71,523.74
88.53713,358.32,520.72
88.55724,369.11,521.57
88.57715,374.93,523.38
88.59680,385.06,522.04
88.61532,391.33,523.58
88.63673,397.86,528.97
88.65724,404.72,528.13
88.67622,412.64,533.98
88.69584,417.38,535.41
88.71721,423.45,539.27
88.73621,429.80,540.09
88.75575,435.87,543.18
88.77738,437.99,543.38
88.79558,440.38,545.94
88.81605,441.52,545.27
88.83627,442.52,547.65
88.85566,446.56,547.55
88.87690,446.02,548.16
88.89595,448.00,552.32
88.91570,450.28,550.81
88.93574,454.63,557.25
88.95611,462.77,560.28
88.97658,479.19,571.03
88.99695,500.05,583.94
89.01682,523.03,590.66
89.03695,544.12,596.50
89.05615,563.91,600.09
89.07732,584.55,598.38
89.09532,598.11,595.17
89.11568,610.49,591.76
89.13606,612.75,589.96
89.15595,610.95,582.12
89.17551,598.71,580.02
89.19582,589.46,578.31
89.21542,579.76,573.46
89.23554,566.78,572.05
89.25675,558.19,568.44
89.27653,545.24,565.36
89.29623,536.71,562.25
89.31638,526.75,561.39
89.33719,518.31,561.76
89.35613,510.20,557.90
89.37546,504.34,559.22
89.39651,498.85,557.59
89.41604,492.01,554.25
89.43621,487.66,555.44
89.45655,482.83,554.83
89.47629,475.99,556.12
89.49651,473.42,557.74
89.51708,472.51,558.34
89.53646,468.50,557.01
89.55554,469.48,553.55
89.57550,465.28,554.06
89.59615,465.49,553.56
89.61613,465.36,557.35
89.63635,462.19,559.11
89.65598,461.61,558.62
89.67705,460.89,557.33
89.69697,461.92,557.09
89.71730,462.17,560.30
89.73654,462.05,559.30
89.75556,459.36,558.87
89.77714,459.79,561.50
89.79698,458.56,558.81
89.81621,456.95,560.05
89.83676,457.90,558.98
89.85626,456.84,560.09
89.87623,458.35,558.90
89.89719,455.48,559.36
89.91695,456.52,562.17
89.93727,455.65,562.95
89.95562,458.14,561.38
89.97567,456.05,561.72
89.99583,457.42,562.71
90.01743,456.22,560.61
90.03687,456.17,563.51
90.05656,458.35,561.93
90.07737,458.84,562.88
90.09578,457.76,560.46
90.11652,455.98,559.98
90.13719,457.03,561.45
90.15733,458.19,561.19
90.17686,457.61,561.03
90.19684,458.83,560.92
90.21679,457.83,559.34
90.23707,456.52,560.19
90.25733,456.61,560.48
90.27889,456.68,559.06
90.29851,454.90,561.29
90.31809,453.56,558.99
90.33938,454.54,561.34
90.35918,453.56,561.35
90.37940,455.11,557.57
90.39742,453.49,561.00
90.41850,452.93,563.16
90.43849,455.50,559.90
90.45881,452.29,559.93
90.47912,450.40,562.00
90.49841,450.05,562.93
90.51715,451.53,561.99
90.53893,450.66,560.50
90.55867,450.81,561.10
90.57917,450.02,562.71
90.59867,449.66,562.20
90.61887,451.21,564.85
90.63872,451.48,552.81
90.65920,445.31,533.61
90.67851,440.19,517.83
90.69905,440.48,509.66
90.71862,438.45,507.19
90.73854,438.80,506.25
90.75984,437.68,508.34
90.77825,437.84,510.91
90.79835,439.40,518.39
90.81971,441.59,524.27
90.83856,440.67,526.76
90.86019,438.66,534.37
90.87988,439.20,538.73
90.90008,442.89,544.50
90.91890,443.93,550.83
90.93898,446.93,553.23
90.95987,446.50,557.69
90.98093,446.54,558.80
91.00013,447.37,558.39
91.01995,445.41,558.08
91.04128,448.74,556.39
91.05989,448.03,557.29
91.07968,448.07,557.40
91.10052,447.89,556.57
91.12087,446.78,558.05
91.14108,445.38,561.23
91.15954,446.44,561.12
91.18025,443.13,564.71
91.20053,444.93,566.77
91.22078,444.29,564.45
91.24200,442.21,565.21
91.26119,442.42,566.82
91.28353,445.24,570.64
91.30202,442.47,570.12
91.32194,442.11,570.54
91.34269,441.72,569.89
91.36267,441.17,572.26
91.38305,436.86,571.33
91.40194,439.97,571.65
91.42226,439.44,573.63
91.44164,444.11,572.67
91.46248,443.94,571.37
91.48302,447.76,569.32
91.50151,445.76,565.20
91.52240,445.31,566.22
91.54203,444.83,566.03
91.56317,453.58,566.26
