Program Time [s],data 0,data 1
6.43818,425.31,555.52
6.45947,426.22,560.21
6.47914,424.71,561.29
6.49861,424.84,562.84
6.51959,424.05,565.36
6.54127,425.44,569.11
6.56219,425.53,575.02
6.58320,428.29,578.46
6.60274,426.71,581.70
6.62247,427.92,581.74
6.64214,428.92,583.27
6.66326,432.43,580.17
6.68517,434.42,578.89
6.70508,435.06,574.24
6.72523,439.33,576.73
6.74460,440.07,575.63
6.76367,441.51,573.37
6.78399,440.84,574.91
6.80545,440.11,576.14
6.82500,443.26,578.64
6.84574,443.91,578.15
6.86501,442.78,579.70
6.88595,443.60,579.32
6.90619,442.84,581.82
6.92670,441.32,583.29
6.94645,442.25,582.38
6.96727,441.98,582.73
6.98785,439.44,579.30
7.00880,438.47,579.39
7.02929,441.13,579.29
7.05100,440.66,580.59
7.06998,437.13,576.93
7.09039,437.14,576.38
7.11047,434.42,576.40
7.13070,435.58,580.34
7.15110,434.35,577.81
7.17111,432.50,575.78
7.19046,432.14,576.22
7.21074,431.61,578.15
7.23119,434.44,577.92
7.25107,433.61,578.89
7.27121,426.24,578.76
7.28993,411.31,577.02
7.30965,393.24,574.49
7.33083,370.77,570.82
7.35064,347.37,564.45
7.37155,326.03,560.88
7.39060,310.45,547.40
7.41180,297.09,535.28
7.43066,289.15,524.72
7.45217,286.71,517.86
7.47043,288.81,507.57
7.49139,292.15,505.73
7.51208,298.42,501.63
7.53078,307.23,500.12
7.55187,312.39,503.99
7.57179,320.92,503.92
7.59237,332.84,508.33
7.61095,342.55,513.46
7.63058,352.60,519.70
7.65116,358.13,522.92
7.67144,369.24,527.65
7.69054,374.25,533.45
7.71225,382.37,539.69
7.73168,390.70,545.32
7.75230,393.40,548.72
7.77156,398.00,547.84
7.79170,401.80,554.17
7.81194,406.42,555.64
7.83163,408.44,556.55
7.85120,410.07,560.63
7.87199,415.49,562.20
7.89073,417.76,564.87
7.91187,417.33,565.35
7.93142,420.98,565.16
7.95096,420.68,565.55
7.97092,420.85,564.99
7.99206,425.04,566.10
8.01160,425.39,570.76
8.03202,423.37,570.87
8.05296,430.14,576.97
8.07405,440.25,581.61
8.09377,464.63,588.19
8.11412,487.04,601.84
8.13363,514.97,612.41
8.15382,543.57,620.31
8.17370,569.12,628.92
8.19493,588.58,634.52
8.21504,603.18,637.43
8.23517,602.30,635.34
8.25508,597.05,630.13
8.27388,590.86,627.74
8.29513,576.65,620.07
8.31363,562.83,613.16
8.33509,549.11,610.84
8.35371,538.37,607.41
8.37522,521.05,599.09
8.39406,511.94,595.54
8.41390,500.79,595.36
8.43350,489.67,592.99
8.45461,480.91,588.05
8.47487,475.98,586.63
8.49569,466.04,582.45
8.51586,461.92,581.42
8.53620,454.86,580.64
8.55545,451.05,577.91
8.57624,449.59,578.65
8.59440,443.83,577.62
8.61649,443.77,572.54
8.63557,439.42,572.87
8.65462,439.22,572.58
8.67573,435.26,572.03
8.69584,435.85,572.19
8.71612,434.64,572.00
8.73623,431.66,569.76
8.75630,432.13,569.57
8.77608,429.01,569.79
8.79635,431.82,568.86
8.81490,428.01,571.79
8.83612,425.54,571.26
8.85550,421.97,568.13
8.87550,421.68,568.71
8.89547,417.99,569.52
8.91547,420.54,569.82
8.93502,419.89,566.87
8.95467,417.61,565.83
8.97518,416.44,561.93
8.99574,415.62,559.83
9.01550,414.93,561.44
9.03508,414.28,560.11
9.05476,413.08,560.29
9.07490,415.81,558.36
9.09571,414.68,559.12
9.11460,415.89,558.87
9.13644,419.73,558.96
9.15461,421.63,562.16
9.17575,421.70,562.47
9.19623,421.06,562.20
9.21549,421.46,565.07
9.23477,424.62,563.02
9.25610,422.83,564.00
9.27611,425.06,565.24
9.29481,423.30,566.95
9.31515,424.51,569.24
9.33459,424.35,566.27
9.35604,424.33,566.85
9.37543,424.49,567.15
9.39520,422.69,567.24
9.41553,423.08,567.39
9.43521,422.66,570.36
9.45636,423.47,567.49
9.47521,423.22,570.50
9.49616,423.35,568.81
9.51632,424.02,569.57
9.53579,422.18,570.36
9.55606,424.26,568.99
9.57503,425.98,569.52
9.59576,423.15,568.54
9.61592,425.62,569.68
9.63661,424.51,570.23
9.65612,422.45,568.88
9.67653,423.76,570.59
9.69557,427.64,569.44
9.71642,424.95,572.65
9.73604,425.62,570.90
9.75474,426.49,569.63
9.77499,425.03,570.61
9.79653,423.77,569.65
9.81537,424.46,570.73
9.83629,424.55,572.69
9.85504,425.33,573.14
9.87640,427.02,571.39
9.89471,425.54,573.27
9.91579,427.38,571.94
9.93530,429.40,574.86
9.95498,428.96,572.13
9.97584,424.80,573.11
9.99558,426.44,572.42
10.01645,427.97,574.41
10.03530,424.92,570.04
10.05575,426.80,572.01
10.07590,424.96,569.79
10.09482,425.56,572.81
10.11559,428.40,571.62
10.13467,428.77,569.18
10.15472,429.11,569.82
10.17533,427.08,567.62
10.19543,426.80,569.08
10.21558,428.02,569.22
10.23639,426.52,569.14
10.25540,427.18,571.34
10.27530,427.73,570.35
10.29534,426.44,572.21
10.31596,426.77,570.41
10.33612,429.55,572.57
10.35719,429.33,571.86
10.37656,427.65,572.64
10.39629,429.85,572.26
10.41709,429.39,572.83
10.43618,434.51,571.39
10.45551,433.75,569.60
10.47738,434.44,568.96
10.49676,434.25,569.46
10.51581,435.43,567.81
10.53638,435.50,569.00
10.55613,435.85,568.75
10.57706,435.34,570.28
10.59727,433.99,570.20
10.61669,434.61,567.95
10.63695,433.46,567.62
10.65620,430.00,569.41
10.67595,432.05,566.56
10.69615,432.54,566.71
10.71602,434.79,565.82
10.73695,433.91,566.76
10.75632,434.84,567.03
10.77612,430.58,568.04
10.79717,419.98,568.32
10.81581,403.12,567.79
10.83674,381.27,564.83
10.85568,364.37,567.92
10.87716,342.73,566.47
10.89568,330.01,568.14
10.91579,317.64,560.73
10.93586,310.60,556.63
10.95572,306.49,549.64
10.97642,305.61,545.08
10.99592,307.76,535.90
11.01571,310.71,531.55
11.03746,315.38,525.54
11.05737,323.86,524.92
11.07547,329.05,524.18
11.09609,339.19,526.37
11.11707,349.76,524.23
11.13613,356.33,530.24
11.15729,367.52,531.56
11.17644,376.18,533.93
11.19561,382.42,538.23
11.21570,390.89,541.48
11.23643,396.23,547.50
11.25673,398.78,550.01
11.27701,405.64,548.07
11.29737,409.49,551.11
11.31731,414.87,555.40
11.33640,417.66,556.17
11.35707,418.63,560.55
11.37683,422.78,562.85
11.39590,425.51,563.27
11.41593,428.66,562.30
11.43701,430.17,562.69
11.45711,433.11,564.00
11.47577,435.06,563.92
11.49673,433.94,565.75
11.51747,433.79,565.30
11.53661,433.70,567.53
11.55599,434.01,566.61
11.57630,434.23,568.03
11.59601,432.98,568.63
11.61659,433.25,569.26
11.63644,437.02,571.71
11.65665,446.61,579.18
11.67658,462.29,588.65
11.69592,486.38,602.86
11.71608,514.25,610.07
11.73577,541.45,613.45
11.75751,566.52,613.95
11.77711,585.82,611.94
11.79580,600.09,605.61
11.81565,600.35,602.11
11.83619,596.00,596.81
11.85695,587.66,595.71
11.87710,577.03,589.05
11.89658,568.75,586.42
11.91673,555.21,583.89
11.93629,540.81,585.16
11.95695,529.76,581.74
11.97614,519.57,581.60
11.99561,509.73,579.60
12.01549,503.90,580.94
12.03637,494.14,577.68
12.05588,485.36,576.29
12.07665,479.72,577.24
12.09736,473.60,576.05
12.11708,469.12,575.44
12.13705,467.30,578.54
12.15551,459.86,577.67
12.17696,457.87,575.18
12.19722,454.47,577.52
12.21589,452.78,577.76
12.23626,450.43,573.88
12.25708,451.34,577.06
12.27603,447.07,575.93
12.29561,449.48,574.97
12.31710,447.49,573.36
12.33567,447.41,574.88
12.35615,448.73,575.38
12.37643,448.77,574.81
12.39591,445.17,573.64
12.41647,445.41,575.16
12.43682,448.58,574.78
12.45748,445.65,574.99
12.47601,444.74,576.72
12.49610,443.31,574.13
12.51735,446.64,573.81
12.53595,444.00,574.19
12.55683,446.83,575.64
12.57583,446.27,575.74
12.59617,447.06,575.52
12.61690,448.19,574.15
12.63606,445.27,574.06
12.65592,446.58,575.40
12.67599,443.91,574.40
12.69583,442.69,572.26
12.71599,445.14,575.17
12.73695,442.86,574.70
12.75553,444.90,574.06
12.77739,443.12,575.17
12.79749,442.64,573.22
12.81549,443.45,571.81
12.83624,443.26,572.39
12.85702,443.55,574.39
12.87695,444.38,574.41
12.89658,444.66,573.52
12.91559,445.00,574.95
12.93732,446.10,575.16
12.95600,445.96,577.75
12.97713,444.08,574.54
12.99678,442.61,576.81
13.01634,445.83,576.70
13.03673,442.40,577.20
13.05668,443.52,575.75
13.07594,442.53,574.38
13.09679,444.99,576.08
13.11587,442.21,577.30
13.13620,443.63,574.79
13.15712,442.92,577.75
13.17598,442.81,575.61
13.19605,442.98,574.22
13.21747,442.96,573.15
13.23632,442.97,573.38
13.25607,445.45,575.95
13.27720,442.99,575.56
13.29604,444.71,576.07
13.31728,443.93,573.78
13.33618,442.10,575.01
13.35625,443.38,575.38
13.37642,442.50,574.59
13.39738,443.10,573.82
13.41565,445.77,573.10
13.43671,445.22,573.19
13.45706,444.50,575.83
13.47587,448.37,572.09
13.49737,444.41,575.72
13.51711,443.85,572.34
13.53720,445.89,571.65
13.55653,444.37,573.28
13.57623,445.20,573.57
13.59712,443.09,573.55
13.61647,444.49,570.57
13.63713,443.93,572.88
13.65707,442.39,573.44
13.67719,440.33,570.61
13.69586,443.02,574.10
13.71736,444.14,571.97
13.73684,445.30,572.46
13.75571,442.73,573.86
13.77576,444.75,571.87
13.79585,444.72,572.86
13.81579,440.63,571.96
13.83572,442.72,573.17
13.85696,440.57,572.63
13.87653,440.39,575.26
13.89639,441.64,575.98
13.91678,444.33,575.44
13.93677,443.05,575.13
13.95722,442.99,574.59
13.97554,441.67,576.57
13.99657,439.34,577.30
14.01742,439.71,575.53
14.03642,441.24,577.19
14.05566,440.48,577.59
14.07717,441.03,576.16
14.09744,443.65,573.94
14.11708,440.68,576.22
14.13642,441.39,574.23
14.15655,442.95,577.32
14.17806,442.24,577.27
14.19783,442.49,578.60
14.21720,441.57,576.59
14.23769,444.00,575.72
14.25672,441.44,578.44
14.27686,440.16,576.69
14.29777,442.49,575.86
14.31823,441.87,575.70
14.33695,444.84,577.43
14.35812,443.56,578.49
14.37647,444.50,579.12
14.39711,442.57,577.96
14.41780,442.88,576.36
14.43778,442.28,577.59
14.45742,444.56,577.51
14.47832,442.03,576.45
14.49811,445.03,575.57
14.51697,442.26,576.53
14.53712,442.91,576.31
14.55702,442.12,574.90
14.57682,443.90,575.59
14.59811,446.48,574.98
14.61713,445.83,577.50
14.63802,443.24,576.93
14.65686,444.55,577.16
14.67740,442.74,577.21
14.69741,441.88,573.51
14.71658,440.23,576.10
14.73667,439.31,576.04
14.75679,441.87,576.89
14.77803,439.59,576.61
14.79795,438.25,574.23
14.81797,439.66,575.37
14.83791,440.24,573.96
14.85728,442.08,576.41
14.87805,442.54,576.22
14.89736,442.90,574.83
14.91676,441.76,574.28
14.93777,443.36,574.57
14.95784,441.68,574.44
14.97722,439.85,575.01
14.99678,440.12,573.39
15.01677,435.02,574.20
15.03658,421.62,572.37
15.05788,402.35,570.11
15.07803,380.67,562.94
15.09815,360.10,559.61
15.11819,339.53,553.46
15.13698,325.29,544.20
15.15798,310.25,535.24
15.17677,303.79,528.05
15.19686,301.58,523.09
15.21727,300.87,521.69
15.23776,300.36,523.78
15.25676,307.56,525.62
15.27755,314.60,528.53
15.29662,323.06,532.46
15.31667,332.15,533.69
15.33651,339.01,538.67
15.35778,345.58,541.77
15.37764,353.33,547.11
15.39815,362.42,548.14
15.41735,370.47,550.25
15.43705,381.15,554.70
15.45716,387.65,556.81
15.47700,392.83,559.92
15.49807,399.01,561.08
15.51848,407.01,564.27
15.53675,411.13,567.51
15.55807,413.18,567.65
15.57718,419.20,568.95
15.59786,419.56,571.56
15.61788,425.21,570.10
15.63840,424.62,575.05
15.65771,428.16,574.50
15.67826,428.26,575.59
15.69970,428.09,572.93
15.71931,430.53,572.95
15.73935,430.30,574.59
15.75906,430.21,574.54
15.77965,431.38,575.24
15.79933,432.39,576.04
15.81928,430.02,577.98
15.83849,434.98,577.66
15.85939,435.76,581.95
15.87953,437.83,587.18
15.90006,443.30,591.96
15.92001,453.63,595.93
15.93940,468.11,598.07
15.95921,483.82,602.15
15.97902,505.57,607.41
15.99887,531.01,610.10
16.02041,558.71,606.09
16.03853,578.25,604.88
16.05941,597.53,603.89
16.07997,603.33,602.84
16.09939,600.56,598.37
16.11891,590.94,597.22
16.13908,578.81,598.57
16.16029,567.30,596.52
16.17915,553.59,596.00
16.19842,542.74,592.20
16.21997,528.61,591.68
16.23942,516.28,589.08
16.25962,507.06,587.60
16.27936,498.20,589.26
16.29850,486.77,589.19
16.31957,479.65,587.41
16.33946,474.91,584.80
16.35961,465.88,584.85
16.38012,464.62,584.15
16.40038,464.39,589.75
16.41832,465.94,595.89
16.44019,463.73,596.26
16.45994,459.95,594.61
16.47850,458.72,590.78
16.49996,452.42,591.33
16.51863,450.85,587.39
16.53879,450.42,585.49
16.55957,446.18,584.77
16.57931,444.28,585.14
16.59894,442.66,581.22
16.61872,440.21,582.01
16.63885,438.58,579.19
16.65997,439.40,580.41
16.68003,436.56,578.50
16.69996,435.45,576.24
16.71888,435.83,578.33
16.74001,433.25,577.09
16.75869,433.18,577.38
16.77990,435.10,578.23
16.79858,433.75,576.23
16.82021,434.83,575.93
16.83961,431.12,578.76
16.85923,432.53,576.94
16.88021,434.59,574.46
16.89936,433.96,574.01
16.91963,433.71,577.81
16.93858,431.41,577.52
16.95969,433.86,575.40
16.97838,432.20,577.31
17.00004,430.98,578.15
17.01933,430.95,576.31
17.03895,427.83,576.80
17.06023,427.62,575.14
17.07918,430.27,578.43
17.09918,429.43,576.65
17.12060,427.72,576.28
17.13938,429.66,577.41
17.16056,430.78,578.19
17.18097,427.52,577.36
17.20101,428.88,579.10
17.22009,430.81,576.16
17.24133,429.24,577.86
17.25955,429.06,577.14
17.27979,428.50,577.29
17.30018,427.38,577.43
17.31954,426.43,577.40
17.34106,429.03,577.43
17.35939,426.87,575.94
17.37957,426.98,575.89
17.40057,427.58,574.58
17.42072,428.59,575.01
17.44094,425.31,575.99
17.46014,427.32,574.24
17.48116,424.27,574.31
17.49977,423.43,578.55
17.52070,426.82,576.59
17.54125,425.64,576.61
17.56004,424.53,576.46
17.58121,425.15,575.61
17.59990,428.25,575.94
17.62032,425.18,574.74
17.64042,426.59,576.29
17.66081,423.79,577.09
17.68126,423.12,577.64
17.70030,422.51,578.90
17.72105,426.04,577.99
17.74130,424.99,577.97
17.76061,423.69,578.79
17.78074,425.16,577.97
17.80005,424.77,575.93
17.81963,421.78,577.37
17.84084,423.33,577.56
17.86053,425.49,576.99
17.87940,423.78,578.74
17.89939,422.93,574.48
17.92115,425.30,576.00
17.94035,423.03,573.90
17.96006,423.91,574.35
17.98054,419.88,573.86
18.00005,421.03,573.72
18.02156,421.67,575.77
18.04194,421.92,573.68
18.06215,422.79,575.94
18.08216,420.96,575.88
18.10108,421.23,574.44
18.12188,422.05,576.10
18.14070,425.28,577.12
18.16064,423.16,577.34
18.18189,423.00,579.49
18.20176,425.24,577.25
18.22223,425.08,578.28
18.24269,427.87,579.71
18.26217,428.30,579.65
18.28242,426.05,578.44
18.30182,427.85,575.67
18.32223,427.80,572.14
18.34260,425.40,574.60
18.36215,426.89,572.60
18.38276,427.04,574.03
18.40146,424.67,572.19
18.42298,426.01,571.72
18.44164,426.59,572.07
18.46152,426.51,572.02
18.48294,425.70,573.45
18.50253,427.99,571.13
18.52310,425.73,571.56
18.54312,426.22,570.97
18.56293,426.19,570.37
18.58308,426.50,572.26
18.60263,424.69,572.63
18.62228,427.73,574.04
18.64167,425.56,572.21
18.66313,426.80,571.43
18.68173,428.91,571.80
18.70267,428.13,574.73
18.72134,428.56,571.40
18.74188,427.64,570.15
18.76244,426.39,572.73
18.78264,429.09,571.20
18.80210,426.05,571.89
18.82148,429.01,573.88
18.84227,429.27,574.07
18.86162,427.15,572.54
18.88319,424.97,571.13
18.90273,425.64,571.34
18.92144,417.61,573.65
18.94182,402.60,569.77
18.96301,378.80,570.92
18.98194,353.87,572.82
19.00145,330.94,568.90
19.02179,312.97,558.90
19.04236,300.07,553.06
19.06241,291.06,543.48
19.08303,284.29,532.38
19.10308,284.12,525.19
19.12300,286.58,520.98
19.14187,291.07,520.51
19.16189,296.56,520.91
19.18258,304.33,520.26
19.20251,312.06,522.58
19.22269,321.44,522.84
19.24279,331.07,526.98
19.26426,343.10,529.98
19.28335,351.76,533.38
19.30296,360.50,538.40
19.32299,371.75,540.63
19.34324,377.63,545.06
19.36384,386.02,548.96
19.38318,392.77,551.92
19.40272,398.12,555.97
19.42307,401.13,557.08
19.44251,407.35,560.85
19.46265,410.85,560.43
19.48305,413.72,561.50
19.50419,416.30,565.00
19.52319,420.31,565.62
19.54372,421.26,568.35
19.56303,421.73,570.55
19.58288,422.63,568.63
19.60220,425.19,571.53
19.62373,428.05,571.68
19.64356,426.20,570.96
19.66280,428.60,570.58
19.68248,431.17,571.59
19.70267,427.60,572.76
19.72325,428.31,571.97
19.74294,428.83,575.43
19.76241,430.28,575.82
19.78352,430.36,572.63
19.80327,428.63,574.68
19.82341,441.38,575.78
19.84276,462.80,586.63
19.86372,490.88,592.55
19.88345,519.49,598.54
19.90321,554.68,606.12
19.92358,582.31,610.45
19.94348,600.78,618.38
19.96434,606.24,616.84
19.98306,606.42,617.32
20.00230,598.76,617.01
20.02306,585.57,612.92
20.04372,574.93,609.61
20.06252,561.32,606.43
20.08264,546.84,600.00
20.10314,534.21,599.06
20.12344,522.50,595.36
20.14282,510.65,593.46
20.16428,502.90,589.97
20.18370,492.57,590.03
20.20214,485.95,588.70
20.22364,474.66,586.63
20.24273,470.47,586.40
20.26258,466.18,584.78
20.28328,460.15,583.86
20.30351,459.23,580.81
20.32354,453.48,579.72
20.34412,452.41,580.22
20.36406,448.23,580.35
20.38293,447.32,577.29
20.40406,443.12,579.44
20.42401,444.22,577.01
20.44289,442.74,576.22
20.46331,442.06,574.65
20.48334,437.99,574.76
20.50313,439.88,576.15
20.52282,439.25,573.73
20.54363,437.98,576.62
20.56353,435.28,577.15
20.58255,437.49,574.74
20.60283,437.33,574.73
20.62238,437.89,574.90
20.64265,434.93,577.39
20.66360,436.96,574.55
20.68366,435.38,576.38
20.70344,434.14,577.55
20.72373,437.38,575.59
20.74339,434.81,577.58
20.76404,436.73,575.74
20.78253,439.18,573.72
20.80391,438.43,577.02
20.82254,434.47,572.95
20.84281,433.79,572.26
20.86382,435.93,574.36
20.88245,434.59,573.53
20.90318,432.86,573.64
20.92390,435.04,572.33
20.94299,435.30,573.57
20.96380,435.67,575.43
20.98343,437.22,574.98
21.00275,436.10,575.89
21.02270,433.49,575.79
21.04296,435.24,577.68
21.06424,435.30,575.97
21.08396,433.76,577.10
21.10305,435.28,577.36
21.12369,434.52,575.41
21.14403,435.51,575.30
21.16376,435.20,576.15
21.18340,436.68,577.19
21.20381,434.26,575.20
21.22331,435.73,575.15
21.24360,438.31,576.92
21.26283,438.60,576.76
21.28317,438.55,575.72
21.30381,438.39,575.53
21.32459,439.94,576.40
21.34460,439.73,576.85
21.36421,437.65,574.46
21.38441,438.43,574.78
21.40466,439.79,573.90
21.42436,441.35,571.45
21.44529,439.14,571.97
21.46440,442.24,570.50
21.48509,443.49,573.43
21.50527,440.30,573.86
21.52524,439.39,569.95
21.54505,439.05,572.14
21.56382,442.56,572.45
21.58395,442.23,573.16
21.60429,439.92,574.42
21.62374,440.47,572.89
21.64511,443.24,571.47
21.66343,443.18,572.15
21.68499,442.06,573.28
21.70467,441.47,571.43
21.72486,440.32,571.90
21.74332,438.53,572.78
21.76407,441.00,572.64
21.78398,440.36,573.03
21.80452,441.02,574.27
21.82478,440.42,573.83
21.84515,441.00,573.35
21.86352,440.49,576.41
21.88439,442.06,575.69
21.90366,440.22,575.48
21.92418,440.27,575.32
21.94516,440.86,573.62
21.96482,443.27,571.85
21.98363,441.92,574.06
22.00395,439.69,572.82
22.02353,438.46,572.70
22.04511,439.29,571.35
22.06465,438.76,573.66
22.08599,440.75,574.47
22.10464,438.76,572.97
22.12605,439.09,572.07
22.14494,440.88,573.15
22.16537,438.94,573.58
22.18609,439.35,573.69
22.20477,442.18,571.45
22.22514,440.94,574.61
22.24584,441.10,572.90
22.26469,442.79,574.94
22.28447,442.23,574.60
22.30463,441.01,573.42
22.32450,442.55,573.73
22.34561,442.81,576.09
22.36553,442.80,573.17
22.38575,443.53,573.38
22.40610,442.65,573.02
22.42430,441.67,575.99
22.44565,441.17,575.64
22.46507,439.37,577.32
22.48467,440.62,574.37
22.50429,441.49,574.59
22.52581,439.36,574.58
22.54549,443.61,575.02
22.56530,443.04,574.98
22.58572,440.34,572.19
22.60602,442.63,572.79
22.62597,441.18,573.72
22.64642,438.55,574.31
22.66536,440.68,571.02
22.68719,440.98,572.78
22.70535,440.09,570.64
22.72581,439.73,571.07
22.74677,430.03,569.51
22.76523,411.47,569.25
22.78715,389.00,569.05
22.80682,363.26,570.11
22.82553,339.51,568.74
22.84611,320.41,563.99
22.86548,308.41,562.74
22.88666,298.85,555.20
22.90626,294.74,549.86
22.92754,297.78,544.58
22.94813,299.09,538.64
22.96635,301.86,534.30
22.98828,311.94,531.30
23.00789,317.24,528.24
23.02652,327.03,526.93
23.04641,336.15,531.03
23.06778,343.81,530.83
23.08782,354.92,534.22
23.10625,363.68,534.22
23.12731,369.22,537.45
23.14730,379.38,541.51
23.16632,385.98,546.19
23.18620,393.74,549.47
23.20812,395.29,552.28
23.22710,401.31,557.87
23.24823,405.24,557.85
23.26771,412.33,562.55
23.28772,414.19,566.13
23.30706,416.75,569.22
23.32721,422.36,570.11
23.34765,421.31,573.70
23.36895,425.96,574.99
23.38913,423.08,575.28
23.40949,426.49,577.49
23.42901,426.16,576.95
23.44939,424.70,576.85
23.46910,428.13,579.17
23.48987,428.20,575.86
23.51016,430.38,579.28
23.52818,428.59,578.74
23.54871,427.32,578.63
23.56900,428.16,580.23
23.58865,428.94,577.98
23.60867,428.35,579.44
23.62880,428.64,577.50
23.64934,431.17,577.29
23.66933,429.73,582.28
23.68910,441.51,586.33
23.70931,457.52,592.21
23.72928,482.13,602.25
23.74909,509.91,612.23
23.76863,540.31,622.76
23.78867,570.53,628.79
23.80847,592.76,634.01
23.82892,603.06,636.35
23.84983,602.76,633.36
23.86957,599.79,626.64
23.88894,588.24,621.84
23.90935,576.84,616.47
23.92851,564.18,612.21
23.94942,546.92,606.61
23.96970,536.40,602.52
23.99021,520.30,597.64
24.00926,511.14,592.89
24.02952,500.85,591.40
24.04994,488.48,587.29
24.07001,479.63,580.44
24.09103,475.83,580.72
24.11078,466.58,575.58
24.12917,462.99,576.56
24.15076,457.74,573.74
24.17125,452.21,573.97
24.19023,449.91,574.89
24.21103,443.86,573.03
24.23091,440.98,572.04
24.25064,441.42,571.67
24.27067,436.46,571.55
24.29019,434.25,571.12
24.31135,432.60,569.40
24.33127,430.95,570.36
24.35206,429.50,570.65
24.37183,428.63,570.07
24.39159,428.58,572.20
24.41177,426.96,572.57
24.43123,428.24,571.50
24.45070,429.01,571.67
24.47201,424.89,574.70
24.49110,425.13,575.00
24.51168,427.57,574.97
24.53179,426.32,574.11
24.55007,426.59,575.40
24.57118,427.29,573.69
24.59096,426.46,570.57
24.61152,427.81,573.02
24.63089,429.11,570.43
24.65130,425.35,572.08
24.67099,425.75,573.24
24.69197,426.61,572.57
24.71076,424.90,573.13
24.73001,424.25,573.08
24.75182,426.82,569.22
24.77178,425.36,571.87
24.79083,424.77,571.77
24.81057,428.13,568.56
24.83144,427.05,570.64
24.85206,427.40,572.52
24.87109,426.11,571.08
24.89135,427.32,568.86
24.91114,427.56,569.15
24.93144,426.31,570.06
24.95180,426.13,571.02
24.97030,427.75,570.66
24.99092,426.96,570.88
25.01052,428.98,570.96
25.03058,428.90,569.74
25.05071,429.07,569.94
25.07130,430.28,570.54
25.09018,426.91,572.99
25.11123,425.77,569.36
25.13196,424.24,571.55
25.15122,423.79,571.04
25.17209,424.24,568.38
25.19041,426.95,571.58
25.21080,427.17,569.57
25.23037,427.59,571.00
25.25182,429.51,569.28
25.27087,429.01,571.76
25.29089,426.28,571.17
25.31075,428.84,571.20
25.33219,428.64,570.06
25.35146,426.91,572.69
25.37144,427.07,572.77
25.39171,424.17,570.39
25.41101,426.24,571.77
25.43053,426.61,573.95
25.45093,428.18,572.85
25.47032,428.28,570.41
25.49123,424.71,572.05
25.51111,425.27,570.24
25.53021,427.22,574.01
25.55090,426.56,575.24
25.57097,425.85,573.92
25.59059,425.84,575.77
25.61167,425.19,574.71
25.63171,428.54,576.25
25.65032,427.39,575.14
25.67144,426.79,575.18
25.69318,427.12,575.50
25.71231,426.81,576.25
25.73187,426.29,573.57
25.75154,429.13,574.72
25.77140,427.12,577.94
25.79296,429.19,577.62
25.81251,428.27,574.08
25.83163,429.32,574.63
25.85101,428.71,574.33
25.87210,426.21,574.80
25.89236,429.44,575.47
25.91130,429.23,573.81
25.93291,428.19,571.87
25.95115,428.83,572.72
25.97198,426.37,572.46
25.99285,428.77,574.45
26.01287,427.80,572.47
26.03232,425.32,574.50
26.05145,424.98,571.91
26.07237,427.80,573.61
26.09264,427.66,574.64
26.11208,428.86,570.31
26.13284,428.42,573.19
26.15150,426.01,571.31
26.17280,425.58,572.35
26.19284,428.51,571.00
26.21250,427.20,572.49
26.23118,428.42,573.15
26.25255,429.54,572.54
26.27301,428.79,573.33
26.29391,426.71,571.86
26.31325,427.42,572.11
26.33406,429.89,571.32
26.35232,427.89,571.63
26.37224,417.20,568.13
26.39298,396.27,564.74
26.41379,368.34,558.41
26.43375,346.71,556.06
26.45250,326.34,554.09
26.47264,313.83,554.91
26.49312,301.21,550.71
26.51400,293.26,544.05
26.53213,289.93,543.19
26.55340,293.96,536.90
26.57227,298.86,533.97
26.59416,304.05,533.85
26.61347,312.96,530.75
26.63238,319.10,529.79
26.65396,330.31,530.23
26.67239,341.37,530.95
26.69317,348.51,535.92
26.71394,358.08,537.30
26.73280,367.74,539.44
26.75393,373.47,541.63
26.77310,381.60,548.30
26.79289,387.17,549.12
26.81299,394.24,553.45
26.83281,399.61,555.47
26.85197,404.44,560.57
26.87319,407.93,563.19
26.89339,414.94,562.38
26.91408,416.62,562.58
26.93255,418.76,566.15
26.95219,421.33,564.53
26.97213,425.05,567.76
26.99346,426.87,568.41
27.01218,426.33,570.17
27.03378,425.37,569.22
27.05421,427.86,568.25
27.07432,431.59,570.12
27.09478,432.58,572.11
27.11401,432.14,571.78
27.13337,433.96,571.36
27.15331,434.61,573.28
27.17328,435.81,575.63
27.19323,437.66,572.39
27.21451,437.85,574.71
27.23503,437.85,572.85
27.25349,439.03,576.30
27.27407,439.53,573.06
27.29356,439.94,576.43
27.31473,441.43,577.60
27.33407,440.22,577.98
27.35400,442.11,575.54
27.37492,443.80,578.24
27.39455,441.42,577.57
27.41467,443.19,577.22
27.43397,442.73,575.44
27.45319,442.37,579.28
27.47354,441.75,578.42
27.49438,440.22,578.12
27.51426,440.51,578.98
27.53368,442.55,576.83
27.55343,441.80,576.56
27.57495,440.69,574.84
27.59367,440.93,574.10
27.61426,443.95,576.23
27.63449,448.73,582.59
27.65468,453.64,586.52
27.67333,459.70,593.13
27.69426,466.53,604.97
27.71398,481.47,616.02
27.73426,501.01,620.18
27.75430,525.38,627.27
27.77448,551.95,633.78
27.79311,570.90,638.62
27.81320,588.10,638.29
27.83320,595.18,633.47
27.85461,593.26,627.96
27.87320,588.15,620.26
27.89433,579.58,615.86
27.91352,569.62,607.30
27.93460,556.11,603.35
27.95578,545.30,599.35
27.97548,531.41,592.22
27.99521,520.16,591.91
28.01481,513.56,585.66
28.03481,505.11,584.31
28.05601,496.33,584.87
28.07426,488.38,581.43
28.09419,481.27,582.65
28.11569,476.59,578.44
28.13473,473.51,578.91
28.15444,467.51,580.47
28.17571,465.55,580.33
28.19460,461.68,578.57
28.21472,458.14,577.23
28.23462,458.11,578.33
28.25450,455.27,575.54
28.27544,454.00,577.37
28.29472,451.14,578.47
28.31556,449.63,575.60
28.33480,444.98,577.59
28.35417,447.73,576.90
28.37547,445.22,580.01
28.39543,444.22,580.28
28.41548,445.00,578.89
28.43574,445.00,578.92
28.45692,443.00,577.88
28.47679,442.10,577.63
28.49596,443.18,580.68
28.51667,444.23,580.86
28.53527,445.05,578.47
28.55636,442.17,580.15
28.57508,441.06,578.70
28.59549,441.80,580.46
28.61535,443.14,576.99
28.63633,440.46,577.36
28.65562,440.98,579.07
28.67579,439.47,580.37
28.69613,442.68,577.47
28.71662,439.56,578.73
28.73659,438.26,581.73
28.75511,439.46,580.46
28.77547,439.00,579.49
28.79619,441.42,581.70
28.81602,437.35,581.01
28.83683,438.70,583.93
28.85796,438.36,583.68
28.87638,438.39,583.40
28.89796,436.75,581.73
28.91596,440.02,580.69
28.93615,439.71,582.79
28.95789,437.48,582.60
28.97676,434.86,579.95
28.99729,433.61,579.02
29.01728,434.68,580.45
29.03799,435.84,577.34
29.05644,433.61,580.80
29.07635,433.99,578.82
29.09723,433.49,576.78
29.11623,435.29,576.16
29.13671,435.42,578.36
29.15639,435.98,578.72
29.17660,437.07,576.86
29.19668,437.85,576.85
29.21651,435.72,577.29
29.23717,434.84,576.31
29.25738,435.29,577.92
29.27673,435.63,575.86
29.29733,439.96,578.12
29.31766,438.87,577.38
29.33881,437.19,575.89
29.35783,435.69,575.30
29.37870,435.32,577.41
29.39834,436.74,576.00
29.41855,434.67,575.83
29.43901,437.67,577.58
29.45866,433.52,575.13
29.47901,432.54,575.94
29.49937,435.66,577.52
29.52011,432.12,579.19
29.53980,433.63,578.01
29.55938,433.32,576.54
29.57927,430.92,578.92
29.59872,432.97,580.35
29.61986,429.61,580.01
29.63922,432.94,578.67
29.65951,432.33,579.74
29.68004,429.49,581.55
29.69814,431.13,578.13
29.71960,431.06,579.98
29.73800,429.17,582.53
29.75944,431.66,580.25
29.77979,430.40,584.17
29.79817,432.41,581.26
29.81849,430.82,582.58
29.83832,428.45,582.41
29.85908,430.28,583.36
29.87926,431.78,583.69
29.89966,429.82,582.60
29.91904,430.60,583.34
29.94009,430.69,582.26
29.95900,430.59,582.29
29.97895,431.40,583.74
29.99809,432.67,582.21
30.01963,433.63,583.21
30.03908,433.10,584.91
30.05846,433.00,583.53
30.07851,433.73,579.53
30.10001,430.51,579.12
30.11818,430.42,579.72
30.13869,430.37,581.82
30.15861,431.97,580.43
30.17972,432.94,580.17
30.19852,430.71,579.58
30.21908,430.73,579.57
30.23854,431.13,581.58
30.25815,432.10,578.69
30.27971,430.13,582.74
30.29869,428.75,580.92
30.31975,428.58,582.10
30.33966,429.50,583.63
30.35869,429.16,583.65
30.37988,415.40,583.57
30.39860,398.73,576.51
30.41802,372.89,572.14
30.43900,349.10,567.71
30.45946,330.02,560.60
30.47839,314.52,553.41
30.49955,301.63,547.44
30.51871,293.17,543.08
30.53853,291.11,537.74
30.55792,293.47,536.09
30.57893,295.72,531.91
30.59988,302.11,530.62
30.61860,309.42,530.87
30.63812,314.77,531.68
30.65862,325.42,534.63
30.67928,332.96,533.09
30.69807,341.81,538.26
30.71949,350.39,541.40
30.73967,359.25,544.52
30.75886,366.42,547.53
30.77924,371.89,547.64
30.79930,381.91,550.93
30.82028,386.27,555.91
30.83943,389.87,557.82
30.85908,396.04,560.82
30.87986,399.83,562.14
30.89849,401.11,563.27
30.92046,406.99,565.12
30.93903,408.49,565.94
30.96048,409.18,569.03
30.97970,412.90,569.98
30.99972,411.12,570.92
31.01913,413.90,575.23
31.04106,413.95,574.91
31.06055,415.60,576.21
31.08064,415.47,576.48
31.10041,418.65,574.23
31.11922,418.88,578.56
31.14049,419.75,578.82
31.15920,421.13,577.91
31.17911,419.29,582.64
31.19972,420.29,582.60
31.22073,420.81,582.92
31.23954,419.72,581.69
31.25945,422.26,582.86
31.28057,423.26,580.62
31.29957,420.99,581.90
31.31951,420.28,582.98
31.33966,424.33,584.36
31.35965,423.88,586.25
31.38060,432.11,596.04
31.40017,445.30,620.41
31.42193,464.96,649.61
31.43992,488.99,677.84
31.46247,514.85,702.02
31.48264,539.34,715.06
31.50084,562.42,709.96
31.52197,577.25,694.54
31.54155,587.91,670.13
31.56189,594.62,651.43
31.58216,589.47,628.87
31.60196,577.84,610.29
31.62178,566.40,597.20
31.64093,550.93,583.84
31.66154,539.52,573.71
31.68268,528.43,565.43
31.70255,516.44,559.36
31.72226,506.43,557.42
31.74302,493.52,552.15
31.76226,486.28,553.68
31.78217,479.71,553.05
31.80283,468.91,550.74
31.82182,463.75,552.98
31.84256,457.38,555.30
31.86371,455.80,556.42
31.88321,450.66,555.03
31.90358,447.02,558.64
31.92378,444.34,556.80
31.94379,439.81,558.35
31.96359,440.32,561.30
31.98318,438.68,562.84
32.00336,438.94,561.11
32.02297,434.99,563.97
32.04297,434.73,564.15
32.06381,432.44,562.54
32.08294,431.25,561.78
32.10229,434.42,566.16
32.12356,432.38,566.48
32.14304,431.28,566.71
32.16208,429.68,565.66
32.18270,430.71,569.49
32.20223,432.20,570.82
32.22221,430.92,568.00
32.24232,430.23,570.26
32.26366,429.75,570.16
32.28238,430.58,571.55
32.30232,430.25,569.76
32.32248,431.06,569.84
32.34304,429.61,572.47
32.36252,428.59,571.84
32.38321,431.05,571.16
32.40378,429.05,571.74
32.42389,427.37,570.33
32.44375,427.50,569.22
32.46209,424.78,569.30
32.48311,425.69,568.16
32.50363,426.47,567.09
32.52299,426.92,566.33
32.54277,425.30,567.03
32.56229,425.73,566.55
32.58363,424.95,566.65
32.60389,427.11,567.50
32.62306,425.15,567.97
32.64323,429.19,569.22
32.66201,428.65,567.36
32.68353,427.87,566.15
32.70309,430.35,567.29
32.72318,430.06,565.00
32.74291,430.43,568.91
32.76241,429.38,567.77
32.78242,428.53,567.51
32.80267,428.16,565.09
32.82233,428.67,568.24
32.84206,426.77,569.08
32.86359,428.86,566.90
32.88211,430.75,566.43
32.90243,431.80,568.10
32.92370,430.91,568.49
32.94318,428.05,569.85
32.96306,431.07,569.05
32.98260,431.37,569.82
33.00239,429.35,570.61
33.02223,430.33,567.61
33.04287,428.47,570.89
33.06283,428.58,568.17
33.08363,427.23,570.84
33.10241,429.68,571.96
33.12293,428.27,573.24
33.14392,428.86,573.32
33.16383,428.26,572.81
33.18317,427.55,572.50
33.20212,428.07,571.72
33.22235,430.24,572.00
33.24189,428.98,572.29
33.26302,432.40,572.89
33.28266,432.50,572.39
33.30239,433.25,569.20
33.32228,431.57,572.17
33.34274,432.90,569.44
33.36320,430.26,569.74
33.38226,429.76,570.81
33.40289,432.23,570.18
33.42325,431.85,574.74
33.44194,430.32,575.22
33.46386,432.32,575.72
33.48267,431.93,574.76
33.50266,432.54,573.27
33.52321,432.23,574.88
33.54381,431.55,575.06
33.56240,432.37,573.53
33.58357,431.22,573.80
33.60353,430.59,571.74
33.62360,431.17,572.79
33.64203,429.78,571.58
33.66309,431.31,572.52
33.68244,432.77,572.13
33.70177,430.35,571.53
33.72197,433.04,575.17
33.74286,431.86,573.32
33.76194,430.33,572.32
33.78294,432.25,572.58
33.80200,433.53,572.32
33.82378,430.62,574.42
33.84216,430.74,571.56
33.86360,433.34,573.15
33.88220,431.81,572.02
33.90303,432.58,571.13
33.92356,433.97,569.47
33.94283,433.39,570.28
33.96378,435.78,571.67
33.98297,434.07,569.30
34.00473,434.79,569.83
34.02305,434.76,571.09
34.04396,434.22,570.28
34.06448,433.85,568.75
34.08329,436.06,569.65
34.10467,434.49,571.50
34.12374,433.77,569.53
34.14481,432.44,569.45
34.16469,433.07,568.75
34.18320,432.35,567.68
34.20348,435.25,567.95
34.22364,435.43,568.36
34.24419,437.23,569.51
34.26478,436.97,570.31
34.28429,436.67,567.52
34.30353,436.67,568.02
34.32381,436.96,568.63
34.34306,437.06,566.57
34.36492,440.02,565.47
34.38307,439.23,569.08
34.40330,437.24,567.21
34.42337,437.42,567.55
34.44440,441.25,563.86
34.46380,438.66,564.89
34.48350,438.70,563.89
34.50346,432.12,565.43
34.52341,414.00,559.84
34.54354,387.32,557.11
34.56479,363.43,554.47
34.58379,341.86,555.37
34.60478,321.43,546.83
34.62476,308.00,538.33
34.64415,297.71,532.97
34.66377,294.93,524.39
34.68471,295.07,523.08
34.70331,297.62,522.65
34.72374,301.44,522.34
34.74444,309.94,521.95
34.76350,315.51,524.28
34.78276,323.80,524.64
34.80468,333.12,527.58
34.82336,344.01,531.16
34.84404,351.08,532.71
34.86285,358.49,537.56
34.88335,368.94,538.58
34.90325,376.86,544.13
34.92411,384.55,548.80
34.94367,393.22,550.47
34.96304,396.39,551.45
34.98337,404.73,553.27
35.00413,407.12,555.58
35.02326,410.98,558.02
35.04330,417.41,558.90
35.06376,420.98,561.21
35.08316,421.37,562.04
35.10309,424.85,563.92
35.12394,426.90,562.00
35.14343,426.38,562.09
35.16322,426.76,563.73
35.18313,429.55,565.74
35.20416,429.61,563.65
35.22425,430.77,564.39
35.24342,435.81,566.23
35.26367,437.26,562.88
35.28458,438.65,561.88
35.30460,439.64,560.27
35.32395,438.35,557.56
35.34455,439.02,558.74
35.36370,438.69,556.78
35.38428,438.06,558.24
35.40328,436.95,557.20
35.42484,438.86,557.80
35.44454,437.39,561.86
35.46362,436.53,562.97
35.48467,437.27,562.97
35.50344,439.92,566.85
35.52391,441.30,566.51
35.54365,441.16,567.75
35.56377,442.82,570.75
35.58354,442.24,571.19
35.60423,440.73,572.45
35.62464,443.57,569.36
35.64295,444.19,573.34
35.66305,454.71,581.61
35.68349,474.96,590.88
35.70455,500.42,605.56
35.72373,529.22,615.64
35.74474,564.08,625.23
35.76345,590.49,633.01
35.78283,611.76,633.06
35.80353,620.47,632.62
35.82396,620.25,632.69
35.84322,611.51,628.12
35.86370,601.17,620.84
35.88403,586.67,612.83
35.90443,573.89,605.21
35.92413,560.55,600.29
35.94439,545.96,596.01
35.96377,534.05,590.87
35.98373,522.70,588.46
36.00390,516.31,585.65
36.02395,507.75,581.18
36.04475,498.42,580.41
36.06302,490.29,577.05
36.08376,487.29,573.81
36.10468,480.09,572.97
36.12451,476.15,573.62
36.14464,469.45,568.31
36.16297,468.56,568.56
36.18283,466.97,567.74
36.20368,460.03,567.61
36.22367,459.73,566.07
36.24330,456.91,567.00
36.26381,453.29,566.00
36.28426,454.79,565.66
36.30342,453.50,566.94
36.32319,450.05,566.00
36.34334,447.64,562.94
36.36584,449.01,562.99
36.38413,445.40,563.04
36.40463,445.40,567.23
36.42550,444.51,564.73
36.44416,448.56,566.04
36.46513,444.04,566.01
36.48474,443.50,567.05
36.50432,442.67,564.68
36.52391,442.72,567.42
36.54665,442.19,564.07
36.56618,442.53,565.61
36.58664,442.06,562.50
36.60633,439.60,562.60
36.62698,439.45,561.90
36.64542,440.71,563.59
36.66680,439.36,559.94
36.68624,439.92,561.11
36.70559,441.15,561.76
36.72557,442.06,561.97
36.74606,442.25,559.28
36.76691,439.10,560.53
36.78613,440.38,561.19
36.80608,442.76,561.30
36.82675,440.63,560.51
36.84516,441.62,562.73
36.86613,442.87,561.63
36.88652,441.45,564.88
36.90565,440.06,562.43
36.92656,440.74,564.39
36.94729,443.15,562.54
36.96751,442.59,564.73
36.98721,442.38,565.47
37.00749,440.88,563.66
37.02630,438.36,568.47
37.04658,439.49,567.71
37.06725,438.44,569.37
37.08872,438.54,567.73
37.10812,439.33,569.32
37.12816,438.93,569.85
37.14780,438.23,570.52
37.16771,436.23,568.38
37.18797,436.32,569.99
37.20734,433.95,571.44
37.22717,435.58,571.22
37.24841,435.51,571.53
37.26756,433.67,570.46
37.28952,433.91,569.54
37.30812,433.13,571.36
37.32838,433.19,571.47
37.34787,434.60,575.10
37.36818,432.32,575.52
37.38925,435.06,575.28
37.40810,434.35,572.74
37.42883,436.02,570.92
37.44930,436.51,573.53
37.46921,434.29,572.02
37.48830,433.58,573.16
37.50834,435.59,574.25
37.52986,436.77,571.06
37.54961,433.15,570.73
37.56838,433.07,573.98
37.58915,433.66,572.25
37.60983,434.13,574.25
37.62888,434.61,574.79
37.64839,433.58,574.67
37.66782,434.63,573.98
37.68961,435.29,572.88
37.70892,434.33,571.41
37.72894,432.67,573.26
37.74838,433.98,571.70
37.76948,436.27,571.61
37.78910,432.78,572.91
37.81013,433.77,574.67
37.83033,432.42,571.34
37.85020,429.49,572.90
37.86991,430.29,570.94
37.89232,429.59,573.59
37.91238,426.14,572.71
37.93080,424.74,570.92
37.95290,426.83,573.33
37.97155,425.35,573.36
37.99270,425.27,571.52
38.01080,426.30,572.25
38.03240,427.24,572.23
38.05153,425.43,571.16
38.07160,423.75,572.30
38.09269,422.53,570.93
38.11173,426.03,570.06
38.13222,427.46,571.73
38.15112,427.17,570.25
38.17227,424.63,570.37
38.19167,423.90,569.87
38.21168,425.49,566.96
38.23098,426.67,568.33
38.25262,427.29,566.80
38.27356,423.71,566.63
38.29329,425.18,567.21
38.31353,421.84,568.25
38.33215,422.82,568.53
38.35253,424.91,569.29
38.37262,425.10,570.47
38.39309,424.99,568.49
38.41286,425.27,567.99
38.43371,425.52,568.54
38.45263,424.86,572.14
38.47269,425.05,568.62
38.49280,425.00,569.65
38.51345,423.26,571.30
38.53379,422.10,568.07
38.55304,422.51,567.91
38.57479,423.82,567.04
38.59360,422.33,566.12
38.61367,426.08,565.56
38.63452,424.75,562.13
38.65394,428.23,562.51
38.67275,418.35,563.26
38.69393,398.76,557.92
38.71331,376.99,557.40
38.73380,349.39,552.40
38.75337,327.34,550.50
38.77317,308.89,545.84
38.79356,296.23,536.77
38.81354,288.57,532.33
38.83444,282.78,526.12
38.85445,285.42,523.44
38.87422,285.50,519.96
38.89397,288.55,522.20
38.91437,296.47,519.96
38.93571,306.77,519.21
38.95557,312.46,522.00
38.97478,320.37,520.87
38.99488,330.14,526.40
39.01576,342.30,530.28
39.03514,348.13,529.56
39.05423,356.84,533.04
39.07458,362.32,534.17
39.09443,371.12,539.63
39.11389,378.48,540.83
39.13450,382.64,541.88
39.15384,392.19,543.78
39.17556,394.88,547.72
39.19562,400.86,547.53
39.21496,406.25,553.70
39.23470,408.85,556.27
39.25522,408.22,557.00
39.27483,413.27,557.17
39.29497,412.34,559.63
39.31529,415.37,560.52
39.33544,417.25,563.07
39.35568,419.40,564.43
39.37426,419.15,566.21
39.39477,420.51,565.01
39.41471,422.78,565.27
39.43550,423.45,566.30
39.45505,424.78,564.42
39.47469,425.83,563.29
39.49550,425.81,564.86
39.51550,425.40,563.66
39.53517,426.68,566.09
39.55633,427.56,568.24
39.57686,429.93,568.89
39.59538,427.08,567.76
39.61571,426.03,570.52
39.63475,426.68,570.65
39.65521,429.33,568.27
39.67603,426.49,571.56
39.69547,430.20,575.14
39.71514,438.35,579.97
39.73585,456.04,590.79
39.75474,482.66,602.12
39.77616,511.78,613.59
39.79501,542.23,619.10
39.81624,569.92,624.55
39.83613,592.87,628.90
39.85569,599.92,627.62
39.87503,598.05,626.23
39.89560,590.96,622.09
39.91612,581.68,616.06
39.93643,567.02,614.37
39.95633,555.68,611.39
39.97520,545.56,604.65
39.99538,534.07,601.39
40.01481,523.37,597.52
40.03566,519.66,597.31
40.05543,511.06,594.31
40.07559,503.34,594.64
40.09556,498.07,591.16
40.11677,489.74,588.16
40.13515,482.20,586.33
40.15679,476.12,582.43
40.17522,471.21,582.55
40.19496,465.33,577.93
40.21591,464.81,578.55
40.23649,459.81,575.56
40.25649,454.80,575.57
40.27634,452.97,576.88
40.29537,449.97,574.94
40.31613,446.20,573.15
40.33629,443.68,572.59
40.35640,442.23,572.73
40.37526,440.49,571.73
40.39575,438.51,570.88
40.41530,440.12,570.01
40.43533,439.56,572.12
40.45575,436.80,570.92
40.47580,437.19,569.80
40.49509,435.49,570.02
40.51593,437.13,573.31
40.53562,434.36,571.76
40.55661,435.28,571.51
40.57666,432.70,570.55
40.59590,436.21,572.70
40.61529,436.55,569.92
40.63646,436.72,571.33
40.65537,434.94,569.87
40.67655,431.37,570.03
40.69600,436.10,570.34
40.71543,434.83,569.59
40.73615,434.61,572.63
40.75727,435.50,571.19
40.77619,435.00,571.30
40.79687,437.74,572.98
40.81581,435.41,575.16
40.83598,437.47,573.88
40.85588,439.24,574.27
40.87647,437.12,574.85
40.89613,438.44,571.87
40.91701,441.47,571.50
40.93762,440.78,571.33
40.95743,440.37,572.17
40.97713,440.45,573.67
40.99869,438.36,572.31
41.01853,439.75,571.76
41.03847,441.20,573.22
41.05700,437.69,571.42
41.07715,440.35,571.47
41.09768,439.46,573.19
41.11780,441.86,573.38
41.13967,442.30,570.93
41.15854,443.86,574.23
41.17962,442.37,574.65
41.19903,442.37,573.27
41.21934,444.00,573.04
41.23882,443.98,572.13
41.25943,442.86,573.50
41.27786,443.34,574.08
41.29964,439.81,574.07
41.31934,443.86,575.76
41.33838,443.36,575.18
41.35785,445.55,571.86
41.37792,446.57,574.08
41.39830,444.48,572.31
41.41895,442.84,572.60
41.43856,441.87,573.68
41.45960,443.94,572.19
41.47895,442.06,570.05
41.49750,444.61,569.69
41.51821,443.09,571.14
41.53907,443.21,568.58
41.55793,440.54,570.64
41.57780,441.56,570.85
41.59776,442.70,570.77
41.61949,443.11,569.91
41.63918,443.99,572.25
41.65890,439.72,572.05
41.67978,440.46,571.39
41.69899,441.52,573.85
41.71827,443.03,573.37
41.73926,444.62,571.61
41.75865,440.38,571.44
41.78051,439.89,572.58
41.79910,441.85,569.11
41.81921,442.55,572.72
41.84123,441.38,571.17
41.86014,443.02,574.62
41.88125,440.75,576.15
41.89978,442.45,573.45
41.92161,441.48,576.50
41.94137,437.65,572.65
41.96103,438.73,575.14
41.98122,436.27,573.01
42.00117,439.01,575.33
42.02013,436.28,572.13
42.04158,439.04,572.01
42.06069,437.25,574.05
42.08056,438.88,573.52
42.10123,439.33,575.39
42.12006,437.10,575.65
42.14006,438.45,572.75
42.16171,439.27,575.00
42.18092,441.41,572.08
42.20022,438.67,572.46
42.22080,439.75,571.41
42.24048,437.84,572.15
42.26139,438.45,571.72
42.28128,440.32,573.11
42.30087,440.52,569.47
42.32068,438.77,570.69
42.34100,441.86,571.03
42.36262,439.24,573.20
42.38088,437.99,570.76
42.40274,438.84,572.34
42.42238,440.31,570.93
42.44080,439.90,571.84
42.46204,438.10,574.11
42.48218,438.81,573.01
42.50136,439.75,572.49
42.52240,435.20,572.68
42.54062,436.81,573.23
42.56108,434.99,572.46
42.58202,438.80,572.21
42.60062,435.11,570.29
42.62157,420.77,573.53
42.64231,396.30,572.95
42.66284,372.53,571.99
42.68236,343.91,568.82
42.70106,320.87,566.59
42.72221,303.70,558.35
42.74116,291.58,551.80
42.76167,285.08,539.82
42.78154,283.34,533.74
42.80090,286.40,529.49
42.82218,288.81,524.14
42.84127,297.09,521.09
42.86230,303.89,517.65
42.88181,312.86,517.88
42.90251,324.39,517.95
42.92261,336.84,518.73
42.94259,343.36,518.60
42.96106,355.05,520.88
42.98091,362.80,525.45
43.00263,372.56,528.12
43.02162,381.32,533.88
43.04189,387.91,539.91
43.06094,392.24,540.39
43.08220,398.40,545.60
43.10259,402.16,547.29
43.12193,406.39,551.29
43.14267,409.26,552.19
43.16237,412.86,558.11
43.18369,416.85,560.28
43.20219,418.53,559.70
43.22225,419.89,564.18
43.24461,423.77,561.06
43.26357,420.98,562.14
43.28420,421.21,564.12
43.30341,421.38,563.80
43.32277,422.98,565.27
43.34351,423.28,567.59
43.36388,425.10,568.13
43.38382,424.21,567.45
43.40375,423.70,568.71
43.42378,426.34,568.24
43.44537,424.57,569.53
43.46533,425.98,566.17
43.48394,425.83,566.21
43.50433,424.67,567.94
43.52515,423.90,568.44
43.54534,425.70,567.74
43.56561,428.36,575.80
43.58363,442.15,583.61
43.60458,458.11,601.11
43.62509,479.98,616.20
43.64387,509.11,629.20
43.66410,537.84,638.43
43.68436,562.11,637.71
43.70457,585.25,635.37
43.72384,597.34,633.83
43.74445,596.75,627.24
43.76439,592.69,620.47
43.78512,583.82,612.66
43.80563,570.04,604.41
43.82621,556.30,599.18
43.84552,543.49,593.68
43.86670,531.49,587.71
43.88545,519.94,586.94
43.90488,508.31,583.15
43.92647,498.44,578.47
43.94470,491.04,579.57
43.96616,480.82,578.80
43.98653,474.43,576.08
44.00634,464.75,574.23
44.02549,459.73,575.61
44.04490,452.88,571.73
44.06564,453.07,571.06
44.08650,445.95,569.05
44.10649,442.64,567.99
44.12580,441.48,571.87
44.14614,436.66,570.78
44.16638,437.93,568.86
44.18512,435.64,569.82
44.20575,433.78,569.02
44.22607,430.13,567.69
44.24481,428.98,567.89
44.26636,429.54,570.05
44.28649,426.76,571.15
44.30594,428.14,570.18
44.32544,426.96,570.21
44.34577,426.94,572.34
44.36541,425.02,572.75
44.38504,424.70,570.65
44.40611,426.44,572.44
44.42526,426.10,571.42
44.44665,424.61,568.79
44.46515,425.03,568.78
44.48543,424.93,568.70
44.50500,422.39,567.33
44.52527,422.70,567.68
44.54517,423.90,569.33
44.56603,425.40,569.01
44.58625,422.76,565.84
44.60546,425.94,567.75
44.62465,424.26,568.57
44.64550,423.65,567.97
44.66600,422.31,569.34
44.68540,421.23,568.96
44.70524,424.75,570.46
44.72600,423.36,568.09
44.74493,421.10,570.51
44.76596,422.54,569.40
44.78499,421.61,569.33
44.80597,420.12,569.39
44.82566,420.78,567.97
44.84637,422.83,569.72
44.86557,422.87,566.46
44.88521,421.81,567.11
44.90539,423.50,570.63
44.92675,421.46,567.99
44.94545,423.53,568.10
44.96506,421.52,567.52
44.98549,424.26,568.03
45.00584,423.55,569.40
45.02552,422.50,569.82
45.04643,424.61,570.87
45.06634,423.33,568.74
45.08489,425.05,567.16
45.10586,425.13,566.73
45.12609,425.67,567.78
45.14596,424.22,565.82
45.16506,422.60,567.83
45.18495,423.05,569.15
45.20480,424.62,567.49
45.22514,426.36,565.78
45.24501,425.28,567.49
45.26481,425.95,568.49
45.28588,424.90,567.95
45.30505,426.17,566.20
45.32638,423.75,565.85
45.34602,425.95,566.08
45.36508,425.48,565.44
45.38645,423.61,565.64
45.40653,423.05,565.72
45.42503,421.82,566.25
45.44580,421.64,567.53
45.46614,422.98,567.18
45.48511,421.43,570.44
45.50639,421.64,568.60
45.52530,421.26,568.50
45.54473,420.87,567.44
45.56520,424.58,565.57
45.58533,424.12,566.96
45.60509,424.41,565.54
45.62645,425.90,564.51
45.64477,426.86,562.02
45.66516,425.51,564.55
45.68589,427.88,562.89
45.70561,425.61,563.62
45.72497,426.51,565.58
45.74657,429.19,568.41
45.76586,432.02,570.86
45.78659,432.58,570.96
45.80632,433.37,571.36
45.82605,434.32,567.22
45.84600,432.58,566.55
45.86485,429.48,566.61
45.88526,428.99,568.48
45.90658,428.03,570.01
45.92618,429.29,569.59
45.94645,428.53,570.46
45.96637,427.35,580.94
45.98636,428.19,597.77
46.00543,434.40,620.94
46.02556,443.94,652.14
46.04528,451.89,674.04
46.06485,455.69,687.66
46.08516,459.24,686.61
46.10544,457.60,673.64
46.12632,451.81,638.96
46.14732,441.07,595.03
46.16665,429.55,554.70
46.18695,419.65,524.00
46.20570,417.60,498.83
46.22625,413.02,484.75
46.24650,411.44,476.71
46.26612,411.51,468.57
46.28606,409.08,472.56
46.30687,410.49,474.90
46.32731,410.26,480.45
46.34731,407.80,482.31
46.36685,411.23,490.47
46.38719,409.65,496.87
46.40847,414.97,502.69
46.42766,416.70,512.56
46.44837,417.35,518.91
46.46807,417.86,521.75
46.48738,420.94,528.04
46.50727,420.03,534.40
46.52729,422.78,541.53
46.54716,418.19,555.32
46.56773,422.84,560.17
46.58708,425.07,562.84
46.60763,427.88,569.21
46.62823,431.41,579.76
46.64718,438.45,585.27
46.66762,437.45,594.97
46.68927,441.55,604.08
46.70891,449.23,623.12
46.72822,452.94,658.07
46.74795,464.12,687.87
46.76900,478.40,716.31
46.78763,489.36,729.27
46.80753,489.17,750.13
46.82858,494.18,769.76
46.84803,490.52,771.32
46.86940,486.18,778.71
46.88853,485.38,773.89
46.90944,479.51,767.92
46.92763,471.44,760.72
46.94965,467.09,757.55
46.96835,466.25,740.65
46.98784,455.23,726.02
47.00957,448.01,711.60
47.02775,447.41,697.81
47.04891,444.09,683.81
47.06902,445.24,671.61
47.08896,447.94,669.37
47.10862,447.53,669.51
47.12928,444.90,658.63
47.14791,448.94,657.95
47.16823,448.94,650.56
47.18771,448.82,637.19
47.20857,449.00,640.07
47.22778,447.74,634.30
47.24881,447.45,634.17
47.26960,442.81,635.01
47.28812,439.86,622.38
47.30950,445.18,616.94
47.32788,441.61,609.50
47.34853,440.07,601.14
47.36867,438.90,595.90
47.38938,437.97,585.77
47.40919,439.28,581.10
47.42828,432.95,574.35
47.44840,442.60,565.06
47.46845,443.21,569.48
47.48879,443.79,567.93
47.50910,443.83,557.78
47.52956,440.44,541.19
47.54880,440.57,526.39
47.56940,435.70,523.73
47.58933,437.30,511.43
47.60885,433.69,520.27
47.62804,431.66,527.02
47.64927,437.54,526.25
