Program Time [s],data 0,data 1
5.80093,396.88,501.36
5.82181,398.99,499.52
5.84154,397.53,501.67
5.86088,398.51,495.64
5.88155,394.86,494.65
5.90107,396.10,495.96
5.92134,393.44,498.40
5.94085,393.25,503.52
5.96067,396.30,508.64
5.98007,397.14,506.31
6.00138,397.77,504.92
6.02169,397.76,511.30
6.04100,398.78,506.76
6.06154,399.04,507.80
6.08130,401.76,505.97
6.10004,399.35,509.67
6.12062,400.62,503.47
6.14163,398.65,503.11
6.16151,399.72,508.66
6.18126,400.36,509.02
6.20179,400.14,511.92
6.22104,402.04,512.25
6.24209,401.92,517.18
6.26197,401.51,516.03
6.28149,400.94,518.11
6.30172,397.74,523.26
6.32242,397.01,520.48
6.34275,390.01,519.27
6.36188,389.29,524.79
6.38216,393.53,532.07
6.40097,394.87,560.68
6.42324,407.08,608.03
6.44325,420.92,652.65
6.46247,428.47,697.90
6.48382,436.61,718.83
6.50389,439.80,731.21
6.52311,440.58,731.37
6.54449,442.47,726.94
6.56420,439.99,706.43
6.58375,439.99,687.59
6.60382,436.41,663.41
6.62309,430.92,635.15
6.64273,425.78,618.98
6.66360,423.82,609.52
6.68413,419.92,605.58
6.70377,416.77,594.89
6.72476,412.30,587.56
6.74382,411.72,579.03
6.76341,408.06,564.69
6.78508,399.08,541.08
6.80522,389.74,508.01
6.82378,379.83,477.11
6.84549,369.28,443.74
6.86483,355.34,410.04
6.88427,343.20,391.40
6.90508,340.35,365.89
6.92495,335.69,352.50
6.94455,338.55,342.87
6.96413,341.68,345.14
6.98490,344.44,345.71
7.00475,350.01,345.68
7.02490,353.35,352.36
7.04444,362.82,364.22
7.06445,366.89,376.26
7.08487,371.26,393.63
7.10428,373.34,406.55
7.12462,377.30,415.52
7.14464,378.45,426.82
7.16469,380.21,437.61
7.18482,381.26,447.98
7.20456,384.24,460.34
7.22574,387.19,468.31
7.24433,388.71,480.26
7.26454,391.08,481.53
7.28581,388.26,481.53
7.30479,394.09,490.47
7.32373,397.12,490.87
7.34468,397.13,491.83
7.36493,397.74,495.50
7.38521,394.69,501.54
7.40528,393.93,500.30
7.42429,393.53,501.41
7.44385,397.05,499.79
7.46493,397.83,504.19
7.48495,396.05,503.80
7.50502,394.59,504.70
7.52394,395.41,502.76
7.54486,395.38,505.54
7.56451,397.32,502.61
7.58516,396.51,506.54
7.60439,397.15,505.72
7.62489,394.12,505.42
7.64563,394.14,505.04
7.66466,392.56,504.18
7.68498,393.79,501.30
7.70416,394.18,500.40
7.72546,393.47,499.89
7.74412,393.53,497.02
7.76470,393.79,499.14
7.78423,394.57,498.63
7.80551,397.99,496.75
7.82562,397.92,497.85
7.84533,397.74,495.82
7.86615,398.45,495.00
7.88638,403.67,494.44
7.90581,400.70,495.49
7.92542,405.32,498.13
7.94530,406.05,500.41
7.96500,404.46,503.00
7.98491,404.08,505.20
8.00522,407.17,505.47
8.02659,406.77,503.66
8.04564,403.49,507.20
8.06558,405.26,507.14
8.08601,406.21,508.26
8.10493,405.99,506.43
8.12615,406.34,506.39
8.14519,404.05,502.28
8.16644,402.71,503.69
8.18633,404.89,500.38
8.20600,403.50,497.79
8.22678,403.58,498.00
8.24504,402.42,496.34
8.26493,402.84,493.68
8.28655,404.47,494.57
8.30563,402.84,494.62
8.32606,404.27,496.43
8.34626,404.96,495.10
8.36636,404.84,495.71
8.38568,405.56,498.05
8.40666,405.43,501.95
8.42579,406.88,501.61
8.44593,406.16,503.98
8.46523,404.65,502.49
8.48655,408.79,504.07
8.50679,407.20,506.21
8.52626,405.95,504.53
8.54542,406.29,507.85
8.56509,408.39,507.05
8.58674,407.77,506.01
8.60490,406.69,504.67
8.62505,405.18,504.80
8.64575,408.08,506.59
8.66571,405.75,502.78
8.68652,406.17,503.42
8.70655,407.55,502.73
8.72590,406.48,500.61
8.74760,405.60,502.79
8.76654,407.26,503.20
8.78753,403.47,507.71
8.80682,394.53,508.84
8.82658,375.22,502.58
8.84615,357.72,497.13
8.86736,338.95,484.64
8.88749,322.24,469.16
8.90656,305.59,457.66
8.92724,297.08,443.88
8.94696,288.37,435.23
8.96725,288.53,431.58
8.98690,285.87,429.64
9.00625,290.42,429.07
9.02618,297.16,429.18
9.04759,299.61,434.97
9.06593,309.50,441.27
9.08660,315.06,443.82
9.10738,325.39,450.18
9.12744,331.28,456.13
9.14729,338.35,459.24
9.16646,348.21,464.37
9.18776,354.43,470.67
9.20720,360.16,474.78
9.22618,367.58,477.76
9.24604,370.84,481.42
9.26600,377.81,485.02
9.28720,382.46,487.99
9.30692,386.27,489.85
9.32740,389.98,492.10
9.34685,392.88,493.23
9.36617,395.62,496.26
9.38699,395.43,495.87
9.40836,400.94,496.37
9.42695,401.95,500.26
9.44848,402.67,500.13
9.46722,405.00,500.46
9.48817,406.44,503.02
9.50792,406.99,504.07
9.52723,406.80,505.24
9.54683,407.69,504.58
9.56809,409.10,505.34
9.58676,408.80,502.24
9.60699,407.97,506.94
9.62797,409.04,506.07
9.64906,409.75,508.51
9.66799,410.45,510.46
9.68879,416.19,517.08
9.70868,428.15,534.57
9.72917,445.90,555.83
9.74873,463.53,591.79
9.76880,487.99,628.04
9.78891,507.04,651.59
9.80936,524.42,657.80
9.82762,540.58,651.95
9.84930,548.61,636.88
9.86841,554.80,617.79
9.88874,554.30,594.98
9.90854,547.54,573.37
9.92846,540.24,554.54
9.94914,526.20,537.99
9.96937,516.63,523.17
9.98902,505.26,511.09
10.00783,492.86,501.47
10.02786,481.25,495.78
10.04934,472.03,489.63
10.06802,462.52,485.37
10.08792,455.18,482.38
10.10809,443.93,482.52
10.12852,437.71,483.33
10.14867,432.08,481.02
10.16901,429.06,482.79
10.18915,423.43,486.10
10.20782,420.93,484.76
10.22829,422.87,486.12
10.24870,419.27,488.40
10.26850,416.11,491.08
10.28883,416.89,491.39
10.30898,416.33,492.92
10.32878,414.85,493.45
10.34781,410.71,495.62
10.36834,411.90,495.71
10.38977,409.56,501.16
10.40800,412.75,500.95
10.42833,411.59,501.02
10.44913,411.82,503.38
10.46871,410.94,504.73
10.48959,412.37,504.28
10.50785,410.10,505.30
10.52857,410.16,502.28
10.54818,411.02,504.20
10.56832,408.55,505.48
10.58901,411.38,502.36
10.60861,407.99,504.81
10.62913,410.34,503.39
10.64871,407.59,505.56
10.66922,408.87,506.64
10.68795,408.01,506.21
10.70921,406.30,508.17
10.72876,409.25,507.20
10.74872,409.34,508.11
10.76919,409.36,506.69
10.78849,408.18,507.12
10.80907,406.46,507.52
10.82952,406.54,509.78
10.84826,406.96,506.81
10.86946,409.16,507.65
10.88792,411.17,507.34
10.90956,411.04,506.95
10.92834,411.28,505.82
10.94772,410.49,507.76
10.96946,410.26,505.87
10.98813,406.91,507.71
11.00973,408.23,506.01
11.02880,406.68,507.03
11.04909,407.91,508.10
11.06887,404.03,506.87
11.08899,404.27,506.68
11.10961,405.62,503.97
11.12886,404.26,505.79
11.14991,403.27,505.07
11.17060,404.37,503.25
11.19113,403.73,503.34
11.21013,403.52,504.04
11.23015,403.72,503.99
11.25062,402.13,505.10
11.27163,401.55,504.82
11.29069,403.07,503.49
11.31104,401.42,503.06
11.32995,399.47,503.76
11.35014,397.95,503.32
11.37050,398.49,506.13
11.38976,398.49,505.14
11.40993,400.41,503.67
11.43105,398.78,505.08
11.45057,398.02,505.28
11.47163,400.45,506.25
11.49176,399.76,508.06
11.51162,399.50,505.62
11.53151,398.49,505.15
11.55056,396.43,508.85
11.57052,399.36,508.75
11.59078,400.67,508.58
11.61013,401.04,507.93
11.63125,398.84,505.31
11.65153,400.63,507.24
11.67066,400.69,508.45
11.68990,402.24,508.42
11.71024,401.62,507.75
11.73037,398.74,507.07
11.75131,399.00,508.08
11.77141,400.19,508.28
11.79130,401.22,504.30
11.81048,400.29,504.54
11.83177,401.28,504.69
11.85169,398.66,507.97
11.87104,400.40,504.32
11.89127,401.12,506.02
11.91016,398.64,506.83
11.93048,399.86,505.89
11.95024,397.24,503.07
11.97138,398.23,502.58
11.99030,399.21,505.59
12.00988,399.56,503.06
12.02995,402.00,505.05
12.05131,400.01,505.97
12.07182,397.94,505.41
12.09038,399.76,502.34
12.10995,398.02,506.02
12.13022,399.03,502.98
12.15181,399.21,502.49
12.17064,399.69,502.59
12.19037,399.57,502.35
12.21100,397.55,505.29
12.22996,396.59,502.95
12.24989,399.23,505.31
12.27112,399.38,503.55
12.29098,400.87,502.90
12.31116,399.10,501.68
12.33150,397.53,501.25
12.35112,399.08,502.27
12.37083,396.97,502.16
12.38972,398.42,503.89
12.41109,396.55,501.17
12.43168,395.89,504.49
12.45121,397.42,504.31
12.47118,395.31,502.69
12.49074,394.50,505.88
12.51087,396.08,504.01
12.53000,395.06,505.23
12.55067,396.73,505.59
12.56995,396.70,507.63
12.59108,396.96,506.16
12.61158,395.59,508.33
12.62997,395.45,504.75
12.65030,396.10,508.69
12.67082,396.33,507.71
12.69127,397.63,507.06
12.71013,396.62,508.03
12.73138,393.65,504.47
12.75082,395.36,506.23
12.77113,395.58,503.10
12.79019,394.23,504.03
12.80980,396.14,505.99
12.83067,396.38,505.90
12.85069,396.07,504.89
12.87092,394.62,502.04
12.88988,395.43,502.96
12.90998,394.73,505.20
12.92972,396.41,504.95
12.95059,393.48,503.96
12.97153,390.92,503.15
12.99086,376.18,496.92
13.00973,364.36,491.77
13.03044,345.94,479.40
13.05116,325.94,472.84
13.07169,310.27,464.74
13.08993,294.53,456.49
13.11091,283.96,451.51
13.13111,276.06,451.17
13.15038,273.03,447.24
13.17076,275.77,451.47
13.19174,276.76,450.90
13.21073,279.63,456.19
13.23138,283.28,457.02
13.25234,289.59,461.89
13.27223,298.84,463.08
13.29247,306.39,470.39
13.31179,317.50,473.33
13.33186,324.18,476.86
13.35189,329.62,478.67
13.37238,336.49,482.34
13.39367,342.67,483.55
13.41315,351.80,487.21
13.43304,355.67,487.99
13.45349,357.77,488.97
13.47171,362.56,494.52
13.49411,368.05,492.35
13.51319,370.65,493.80
13.53467,373.11,496.22
13.55302,374.87,495.23
13.57331,377.35,495.72
13.59410,378.56,499.22
13.61391,379.59,500.52
13.63400,380.44,498.79
13.65346,379.69,502.26
13.67440,380.99,501.36
13.69294,383.77,501.41
13.71347,383.12,503.20
13.73350,381.69,503.55
13.75350,383.61,501.86
13.77400,382.43,500.91
13.79397,385.12,499.93
13.81429,385.40,500.17
13.83435,387.26,501.03
13.85399,385.12,501.22
13.87332,386.88,500.21
13.89446,386.93,500.44
13.91432,386.92,501.19
13.93438,385.30,499.75
13.95437,387.51,499.95
13.97352,387.44,500.28
13.99402,391.32,506.30
14.01283,405.31,511.26
14.03411,425.16,519.01
14.05444,449.52,529.50
14.07374,473.06,537.52
14.09308,496.32,544.27
14.11469,514.38,548.69
14.13283,529.69,549.92
14.15281,535.59,549.08
14.17458,531.92,544.84
14.19458,525.74,540.58
14.21374,515.88,533.23
14.23400,502.59,526.58
14.25471,492.61,521.81
14.27331,481.51,519.99
14.29296,473.94,515.37
14.31276,460.70,512.15
14.33297,454.42,508.88
14.35380,446.33,507.23
14.37336,439.20,503.66
14.39392,431.31,501.02
14.41463,423.28,501.89
14.43478,422.37,500.38
14.45292,416.26,501.47
14.47340,414.75,499.20
14.49436,409.78,497.50
14.51409,407.44,499.92
14.53408,403.56,497.05
14.55424,401.80,498.41
14.57378,399.71,498.19
14.59360,397.72,496.85
14.61425,396.64,495.66
14.63263,399.37,498.04
14.65432,394.28,498.29
14.67292,396.26,496.98
14.69443,395.96,497.19
14.71465,395.85,498.03
14.73430,396.45,498.39
14.75309,392.82,498.81
14.77278,394.08,498.86
14.79309,394.24,498.85
14.81389,392.03,500.36
14.83262,391.58,499.09
14.85261,393.29,498.59
14.87315,392.20,498.99
14.89440,389.55,497.48
14.91411,388.95,498.02
14.93325,389.31,498.37
14.95426,391.60,496.47
14.97366,389.38,497.72
14.99396,390.47,496.77
15.01398,388.34,498.27
15.03308,391.14,499.71
15.05394,391.07,497.58
15.07442,393.19,500.50
15.09296,391.89,496.88
15.11400,390.92,497.09
15.13280,391.59,499.37
15.15288,391.96,499.38
15.17440,388.77,501.24
15.19465,388.78,498.57
15.21323,388.92,499.55
15.23266,389.41,499.01
15.25274,391.77,496.07
15.27465,389.87,496.33
15.29448,390.48,500.00
15.31330,390.52,498.33
15.33315,389.44,498.75
15.35466,391.88,498.42
15.37295,393.35,500.38
15.39450,390.60,496.80
15.41421,392.59,499.24
15.43424,389.50,499.24
15.45300,391.87,498.59
15.47317,391.05,499.68
15.49360,392.85,500.39
15.51387,390.47,499.67
15.53361,392.49,500.98
15.55261,390.42,501.17
15.57369,390.37,499.22
15.59426,389.71,498.77
15.61372,389.77,498.16
15.63351,391.41,500.30
15.65333,393.15,499.63
15.67380,392.40,500.10
15.69282,393.65,497.23
15.71446,393.00,499.35
15.73367,391.94,496.82
15.75452,393.10,498.61
15.77410,393.16,498.70
15.79456,392.16,497.74
15.81419,392.29,495.97
15.83441,390.87,495.52
15.85480,392.63,494.39
15.87462,390.09,497.13
15.89537,392.08,495.73
15.91526,391.76,497.79
15.93429,394.48,496.98
15.95375,391.35,498.07
15.97507,392.19,498.27
15.99400,394.78,499.47
16.01525,392.14,497.91
16.03371,394.08,498.70
16.05552,393.09,497.82
16.07490,393.49,498.46
16.09400,394.28,496.60
16.11872,391.56,498.63
16.13364,394.09,498.96
16.15430,392.07,497.13
16.17426,395.98,496.56
16.19556,392.83,497.36
16.21386,396.38,497.27
16.23421,396.42,499.40
16.25417,398.02,498.06
16.27553,395.18,495.96
16.29527,395.45,495.62
16.31558,397.08,498.37
16.33410,399.21,497.91
16.35408,399.48,498.04
16.37560,401.44,495.93
16.39484,400.79,498.74
16.41483,397.28,498.01
16.43539,400.63,497.31
16.45489,398.21,500.45
16.47441,398.56,500.19
16.49404,394.92,500.87
16.51374,394.56,499.18
16.53355,398.42,500.31
16.55382,396.36,500.22
16.57409,398.27,497.51
16.59535,394.46,498.35
16.61412,393.95,498.47
16.63552,396.23,499.48
16.65440,393.27,497.92
16.67533,394.40,496.71
16.69547,394.82,497.94
16.71490,394.37,497.02
16.73484,393.83,499.55
16.75381,396.29,497.68
16.77522,394.55,499.09
16.79506,394.48,499.34
16.81432,396.62,498.45
16.83415,397.70,496.29
16.85510,394.45,497.33
16.87406,398.27,498.50
16.89568,395.18,499.64
16.91541,395.13,499.48
16.93510,397.02,500.01
16.95485,398.92,499.35
16.97395,399.51,499.97
16.99434,396.18,500.65
17.01398,395.11,499.13
17.03387,396.59,499.45
17.05535,399.00,500.01
17.07512,399.30,497.30
17.09390,399.32,497.70
17.11409,396.25,496.44
17.13512,396.56,494.70
17.15540,394.20,491.74
17.17466,381.80,490.52
17.19386,363.36,482.48
17.21508,345.58,480.48
17.23534,326.06,477.54
17.25396,306.28,477.11
17.27428,294.06,472.49
17.29422,286.24,468.83
17.31377,278.62,464.69
17.33392,277.01,456.74
17.35424,279.82,456.45
17.37483,281.41,456.71
17.39424,286.41,454.34
17.41371,294.27,453.69
17.43552,300.55,455.15
17.45431,309.88,459.90
17.47390,315.62,462.17
17.49368,324.32,464.85
17.51429,333.60,467.89
17.53527,343.08,472.13
17.55528,349.13,474.25
17.57546,354.79,477.23
17.59447,360.49,483.20
17.61512,363.18,483.09
17.63370,370.83,486.80
17.65477,373.33,488.61
17.67558,376.50,490.38
17.69556,380.79,489.06
17.71441,383.64,494.02
17.73489,383.20,492.81
17.75451,387.87,494.66
17.77542,390.19,492.41
17.79570,389.01,491.75
17.81435,388.98,494.61
17.83352,390.94,495.50
17.85485,394.23,493.84
17.87541,395.02,497.69
17.89422,393.73,497.65
17.91528,394.98,497.32
17.93398,394.51,497.62
17.95461,395.61,495.14
17.97468,393.94,497.76
17.99485,398.52,500.75
18.01519,409.01,506.74
18.03457,422.52,522.57
18.05449,437.60,540.38
18.07405,452.21,548.24
18.09534,473.28,555.62
18.11426,491.10,558.89
18.13415,509.91,558.02
18.15366,529.07,553.54
18.17474,536.55,547.67
18.19383,541.90,540.62
18.21490,538.40,532.44
18.23393,529.81,526.63
18.25413,518.40,519.05
18.27498,507.63,515.39
18.29624,496.73,508.46
18.31496,488.35,504.93
18.33611,480.32,504.68
18.35480,473.13,502.19
18.37614,463.04,499.35
18.39586,458.18,498.98
18.41480,448.45,497.32
18.43646,442.78,495.15
18.45599,439.37,496.12
18.47516,435.20,494.59
18.49524,428.31,493.90
18.51520,428.00,496.77
18.53511,424.58,495.54
18.55648,420.30,495.47
18.57545,419.91,494.04
18.59604,418.47,494.67
18.61644,416.11,495.73
18.63460,417.53,495.70
18.65566,412.43,500.88
18.67561,412.26,499.03
18.69504,413.54,502.20
18.71521,413.21,499.63
18.73518,409.54,500.22
18.75613,411.32,500.94
18.77580,408.91,502.55
18.79526,407.83,499.62
18.81660,407.05,500.46
18.83471,409.27,500.20
18.85646,407.72,504.20
18.87512,410.36,499.96
18.89658,407.65,503.50
18.91528,409.61,501.70
18.93624,406.66,499.76
18.95482,408.90,501.21
18.97508,407.84,498.86
18.99468,408.24,500.62
19.01508,410.62,502.58
19.03659,407.01,500.78
19.05481,408.88,500.70
19.07613,406.98,501.49
19.09509,407.02,503.62
19.11519,405.04,504.20
19.13633,405.36,502.79
19.15601,407.35,504.83
19.17627,404.62,502.19
19.19522,407.20,504.61
19.21560,409.02,504.27
19.23627,409.85,505.49
19.25516,410.39,504.55
19.27574,407.25,503.80
19.29534,409.98,504.41
19.31617,408.49,504.59
19.33654,408.98,502.74
19.35599,410.54,504.37
19.37578,410.92,501.76
19.39476,409.24,502.29
19.41468,410.01,502.16
19.43648,410.85,501.67
19.45455,407.38,502.76
19.47501,409.33,502.08
19.49497,406.74,503.57
19.51562,409.72,502.76
19.53546,409.03,502.07
19.55647,409.37,501.94
19.57509,406.94,499.93
19.59625,408.36,498.39
19.61494,407.38,502.94
19.63608,407.81,499.84
19.65505,407.16,501.11
19.67487,404.98,501.74
19.69484,407.76,503.66
19.71527,409.54,504.87
19.73597,411.76,503.28
19.75654,410.91,503.91
19.77479,411.10,501.96
19.79549,410.12,503.88
19.81584,409.37,503.79
19.83641,410.88,500.23
19.85663,411.58,501.34
19.87514,410.31,500.44
19.89523,409.90,502.71
19.91554,406.20,501.92
19.93520,407.36,502.88
19.95497,409.09,501.10
19.97521,406.25,503.71
19.99565,406.95,504.00
20.01522,411.99,501.91
20.03600,410.86,504.99
20.05571,411.02,504.27
20.07524,410.22,502.96
20.09518,409.40,506.65
20.11476,403.27,507.75
20.13726,400.35,508.13
20.15640,400.14,508.79
20.17603,400.90,509.69
20.19643,398.19,509.14
20.21577,399.45,508.64
20.23516,401.99,509.93
20.25594,402.03,507.70
20.27560,402.19,508.12
20.29572,402.65,506.51
20.31618,403.50,506.04
20.33620,404.19,504.42
20.35582,405.30,503.96
20.37510,402.94,504.69
20.39589,406.01,503.06
20.41554,403.06,503.28
20.43655,405.07,503.93
20.45569,406.83,499.68
20.47565,405.56,502.76
20.49595,407.08,501.87
20.51584,405.82,502.22
20.53627,405.69,501.92
20.55579,407.61,501.63
20.57466,409.04,500.40
20.59460,407.20,498.28
20.61564,405.73,499.08
20.63483,407.74,498.72
20.65476,408.74,498.22
20.67561,408.68,501.26
20.69565,409.12,500.72
20.71575,407.88,501.95
20.73565,407.78,501.72
20.75603,408.29,501.92
20.77450,406.87,500.28
20.79643,407.68,502.55
20.81499,410.46,501.37
20.83513,411.12,501.75
20.85580,410.68,500.38
20.87574,410.55,500.04
20.89590,407.63,501.15
20.91443,409.45,501.22
20.93508,409.27,501.28
20.95632,406.68,501.86
20.97539,408.97,503.50
20.99497,407.26,501.96
21.01490,409.58,504.03
21.03464,410.86,504.49
21.05499,410.02,503.79
21.07526,410.25,503.71
21.09500,409.51,504.10
21.11496,412.18,504.00
21.13528,412.29,503.61
21.15617,411.63,505.05
21.17571,408.75,505.79
21.19560,409.49,505.25
21.21510,410.54,506.02
21.23489,410.35,503.54
21.25577,408.63,502.29
21.27710,407.35,503.72
21.29715,411.23,507.22
21.31718,409.62,506.58
21.33582,410.34,504.04
21.35681,408.46,505.50
21.37658,410.08,502.69
21.39563,409.72,504.62
21.41748,408.88,501.94
21.43763,399.87,500.24
21.45684,384.68,492.52
21.47733,364.07,479.86
21.49667,343.02,471.30
21.51727,324.64,459.17
21.53610,312.12,453.66
21.55676,303.86,447.98
21.57623,294.92,445.71
21.59706,295.19,444.43
21.61644,295.29,448.94
21.63565,300.15,452.02
21.65646,307.43,454.33
21.67579,315.70,459.81
21.69648,323.27,460.41
21.71679,332.39,467.97
21.73577,338.24,472.99
21.75575,348.19,475.61
21.77685,353.96,481.31
21.79581,359.48,481.99
21.81710,366.74,486.36
21.83590,372.40,489.23
21.85554,376.37,487.59
21.87611,381.88,494.19
21.89580,384.87,497.60
21.91753,390.22,499.49
21.93571,392.51,502.66
21.95728,394.21,502.78
21.97723,392.69,502.54
21.99716,397.66,505.26
22.01659,399.24,502.17
22.03702,399.75,503.98
22.05644,397.68,504.00
22.07751,399.91,502.12
22.09727,400.03,506.64
22.11564,400.30,505.77
22.13677,402.27,504.35
22.15757,401.50,503.96
22.17731,404.78,503.01
22.19582,406.20,502.60
22.21561,404.07,502.34
22.23570,406.99,504.66
22.25645,408.00,504.66
22.27570,408.03,502.55
22.29715,409.04,504.60
22.31712,407.39,504.80
22.33637,410.13,503.92
22.35727,409.33,502.47
22.37705,409.16,504.57
22.39652,407.42,503.72
22.41720,406.43,503.98
22.43608,409.47,504.91
22.45569,416.63,514.41
22.47686,432.38,524.46
22.49562,452.20,539.54
22.51578,478.77,550.75
22.53574,503.81,561.23
22.55662,521.66,563.57
22.57680,531.97,563.91
22.59713,531.64,560.50
22.61603,530.33,555.10
22.63595,522.52,552.12
22.65708,515.35,545.36
22.67680,506.37,539.76
22.69697,496.71,534.31
22.71591,482.72,531.36
22.73709,477.83,528.14
22.75620,472.59,523.39
22.77686,468.69,518.46
22.79676,458.80,518.12
22.81699,454.63,516.63
22.83688,451.15,512.20
22.85620,446.82,510.68
22.87708,438.50,508.09
22.89568,434.43,510.13
22.91606,432.26,506.52
22.93661,426.76,507.30
22.95662,424.17,507.18
22.97661,422.37,503.73
22.99558,420.22,503.40
23.01594,416.20,505.75
23.03585,417.90,504.95
23.05663,415.76,503.52
23.07613,415.09,506.34
23.09748,413.21,505.50
23.11726,413.26,505.66
23.13579,410.38,505.81
23.15704,411.92,503.21
23.17582,409.74,505.48
23.19715,410.37,502.30
23.21680,409.64,504.98
23.23530,406.83,505.21
23.25730,405.88,503.72
23.27614,406.56,505.55
23.29584,407.79,503.34
23.31665,405.12,503.11
23.33581,405.67,502.86
23.35589,406.22,503.21
23.37685,403.61,501.27
23.39605,403.34,505.10
23.41585,405.04,505.63
23.43642,406.34,502.70
23.45576,402.87,503.25
23.47643,404.34,501.94
23.49734,407.85,504.89
23.51590,417.10,505.40
23.53597,420.42,505.52
23.55702,419.86,507.99
23.57573,419.52,507.73
23.59600,422.48,506.68
23.61682,419.44,503.33
23.63634,419.11,502.89
23.65685,418.96,503.52
23.67644,417.23,502.96
23.69740,417.14,504.33
23.71566,413.33,503.43
23.73565,412.96,502.14
23.75586,411.06,501.85
23.77695,409.20,503.46
23.79697,409.06,500.39
23.81728,409.98,502.14
23.83739,407.03,503.05
23.85588,409.21,498.98
23.87551,409.64,502.12
23.89631,407.47,500.67
23.91677,407.84,500.80
23.93677,405.51,502.57
23.95697,401.86,501.68
23.97651,402.94,499.52
23.99728,402.23,502.11
24.01532,400.54,500.40
24.03647,403.15,501.16
24.05592,399.77,499.75
24.07607,401.05,501.74
24.09649,400.71,502.71
24.11734,400.97,499.41
24.13567,400.56,500.95
24.15578,399.25,501.29
24.17648,402.79,500.20
24.19624,400.64,501.62
24.21650,400.61,500.57
24.23560,406.37,505.49
24.25589,406.70,508.88
24.27556,411.68,509.90
24.29610,410.69,511.41
24.31660,412.98,509.23
24.33546,411.96,508.68
24.35690,409.58,511.85
24.37589,411.08,511.54
24.39748,410.88,510.85
24.41683,409.66,507.82
24.43583,408.00,509.09
24.45596,409.41,504.84
24.47631,407.41,505.29
24.49550,408.68,505.19
24.51658,405.75,502.87
24.53731,406.11,503.58
24.55564,404.86,499.62
24.57627,406.32,499.10
24.59705,403.98,497.75
24.61660,403.67,498.60
24.63611,404.79,497.18
24.65721,405.54,499.75
24.67615,405.32,500.21
24.69592,402.50,499.07
24.71714,401.22,499.37
24.73626,403.24,497.15
24.75579,402.21,498.53
24.77680,401.07,500.90
24.79640,399.84,501.14
24.81632,401.88,498.27
24.83590,400.31,501.09
24.85615,402.85,499.45
24.87580,400.62,500.18
24.89731,400.83,499.08
24.91670,402.87,498.87
24.93728,402.27,499.69
24.95692,401.67,499.41
24.97626,400.14,497.88
24.99578,398.56,500.72
25.01677,401.49,499.65
25.03729,398.83,498.22
25.05562,399.07,499.99
25.07657,401.96,497.52
25.09591,399.72,499.97
25.11548,399.78,499.11
25.13617,398.79,499.01
25.15714,402.08,497.49
25.17542,400.26,497.39
25.19721,399.97,497.26
25.21560,399.20,498.66
25.23593,400.40,497.99
25.25596,397.46,500.16
25.27623,400.25,502.40
25.29560,397.84,498.79
25.31638,397.06,502.13
25.33664,396.65,499.93
25.35580,396.32,499.53
25.37543,395.91,500.73
25.39579,395.83,500.86
25.41670,399.08,500.92
25.43723,396.87,499.31
25.45568,395.40,500.16
25.47687,397.50,498.68
25.49636,397.99,499.55
25.51638,397.01,501.23
25.53716,395.69,499.59
25.55636,395.34,500.87
25.57718,394.61,500.05
25.59656,394.90,501.39
25.61716,396.43,498.55
25.63729,394.58,501.80
25.65601,394.02,500.84
25.67642,394.18,500.22
25.69708,397.22,497.98
25.71541,393.81,501.55
25.73617,397.87,498.08
25.75694,395.11,501.17
25.77743,393.82,499.44
25.79628,395.16,497.62
25.81668,392.85,498.06
25.83588,394.96,497.38
25.85615,395.13,497.82
25.87705,395.71,498.25
25.89626,389.30,499.96
25.91576,381.42,499.48
25.93714,365.52,497.52
25.95553,345.54,500.73
25.97541,326.52,498.63
25.99637,308.19,491.56
26.01549,291.51,480.78
26.03542,280.18,469.50
26.05586,273.91,459.82
26.07726,269.19,452.46
26.09574,268.86,444.50
26.11553,274.90,438.37
26.13717,277.40,435.65
26.15659,286.47,437.44
26.17553,294.90,440.23
26.19653,303.79,445.28
26.21652,313.82,449.80
26.23680,320.47,458.21
26.25656,330.50,463.68
26.27700,336.88,468.92
26.29695,343.75,472.97
26.31629,350.23,473.49
26.33691,356.36,479.75
26.35622,360.42,479.54
26.37616,364.57,484.82
26.39644,369.88,487.20
26.41623,371.60,488.31
26.43593,372.52,491.29
26.45716,378.99,492.49
26.47631,380.43,492.39
26.49625,380.18,493.69
26.51634,383.29,494.79
26.53562,385.00,495.26
26.55570,386.26,496.43
26.57655,387.98,497.44
26.59573,388.15,499.51
26.61727,387.17,500.80
26.63723,388.79,500.44
26.65551,388.30,502.63
26.67553,389.28,500.85
26.69645,386.45,503.81
26.71677,388.59,502.29
26.73678,388.80,505.01
26.75728,389.44,502.92
26.77603,391.54,501.74
26.79608,390.60,500.25
26.81649,390.62,498.96
26.83734,390.64,500.27
26.85611,388.97,498.90
26.87710,387.29,496.94
26.89660,389.02,502.16
26.91727,396.72,508.52
26.93654,410.55,515.61
26.95694,428.41,528.53
26.97578,450.70,540.67
26.99671,475.93,552.51
27.01701,498.14,558.15
27.03685,513.44,558.97
27.05557,517.41,558.43
27.07571,515.31,554.62
27.09660,511.40,549.96
27.11552,505.68,544.34
27.13667,497.76,540.36
27.15622,485.43,536.88
27.17733,477.28,529.95
27.19609,469.71,528.93
27.21579,457.45,524.63
27.23579,451.39,519.38
27.25572,441.33,519.75
27.27589,436.86,515.72
27.29737,427.48,510.94
27.31675,424.42,514.91
27.33746,424.77,518.24
27.35591,424.91,520.26
27.37636,425.88,520.55
27.39689,425.75,519.78
27.41672,423.31,516.31
27.43688,420.62,516.19
27.45626,415.97,514.05
27.47618,413.88,512.65
27.49556,411.37,511.73
27.51688,409.03,511.96
27.53669,405.89,508.51
27.55608,401.82,505.51
27.57624,400.32,506.20
27.59712,401.16,504.74
27.61641,401.93,503.11
27.63558,399.50,502.51
27.65654,397.72,503.95
27.67560,393.78,502.14
27.69549,393.33,502.46
27.71703,395.64,501.91
27.73662,395.06,504.28
27.75558,396.35,504.55
27.77642,393.06,503.10
27.79717,392.56,503.45
27.81678,394.49,502.25
27.83638,393.12,499.95
27.85719,393.55,499.75
27.87642,391.41,499.55
27.89555,392.25,499.46
27.91614,388.15,499.81
27.93625,390.11,500.80
27.95571,389.43,502.03
27.97568,389.91,500.93
27.99676,389.84,499.73
28.01605,388.42,499.68
28.03672,388.97,501.67
28.05675,389.07,502.96
28.07692,387.29,503.62
28.09614,389.05,501.08
28.11617,386.02,502.46
28.13651,388.64,501.58
28.15683,390.01,500.81
28.17564,388.29,501.06
28.19553,388.93,500.17
28.21556,390.19,499.60
28.23693,389.40,499.23
28.25686,390.66,500.12
28.27685,390.72,498.48
28.29580,388.29,501.47
28.31739,389.35,500.31
28.33670,388.61,497.76
28.35639,385.76,499.84
28.37719,389.17,499.82
28.39602,387.94,503.20
28.41584,389.35,502.65
28.43616,386.34,504.01
28.45682,386.46,504.19
28.47702,386.62,504.52
28.49686,390.07,502.02
28.51736,389.59,502.12
28.53549,388.77,503.20
28.55608,388.11,503.96
28.57729,391.41,502.68
28.59741,390.34,503.84
28.61706,387.11,502.66
28.63565,386.57,499.72
28.65680,387.06,500.58
28.67587,388.11,498.70
28.69633,386.32,501.47
28.71682,386.88,498.48
28.73637,387.79,500.04
28.75651,386.89,499.73
28.77572,388.66,500.80
28.79538,385.06,497.72
28.81600,388.39,499.81
28.83683,386.56,499.30
28.85554,390.12,497.84
28.87703,390.69,498.90
28.89580,389.35,497.08
28.91536,389.32,499.54
28.93574,388.24,497.26
28.95554,391.57,499.99
28.97649,387.36,497.01
28.99653,389.55,497.01
29.01660,390.03,496.50
29.03621,386.30,497.57
29.05534,387.70,496.89
29.07570,387.45,496.29
29.09651,389.31,498.09
29.11580,390.99,498.25
29.13673,387.77,498.42
29.15659,387.89,498.96
29.17558,387.10,495.11
29.19732,389.02,495.53
29.21619,389.61,498.31
29.23653,387.12,498.25
29.25616,388.15,496.87
29.27555,385.50,498.46
29.29599,386.42,498.23
29.31630,388.35,495.65
29.33590,387.74,494.98
29.35665,390.32,495.97
29.37639,386.92,494.35
29.39609,390.52,496.57
29.41690,388.57,499.25
29.43686,389.24,499.41
29.45739,387.47,497.11
29.47582,389.06,498.48
29.49730,386.13,500.16
29.51578,386.33,501.54
29.53649,388.09,502.08
29.55658,387.36,499.38
29.57826,387.47,500.60
29.59757,386.94,500.37
29.61714,389.82,500.07
29.63652,388.69,497.47
29.65751,388.74,498.74
29.67699,389.37,497.83
29.69657,390.85,497.32
29.71660,389.49,498.13
29.73695,389.37,499.87
29.75636,390.18,499.82
29.77769,390.73,500.14
29.79879,392.06,498.12
29.81911,392.01,500.40
29.83755,390.13,497.31
29.85840,390.53,499.06
29.87913,393.65,496.99
29.89838,392.80,498.73
29.91914,394.32,496.35
29.93967,391.01,499.20
29.95909,391.96,497.96
29.97967,391.29,497.12
29.99974,395.61,498.00
30.01918,393.86,497.12
30.03903,394.58,495.00
30.05957,393.27,494.84
30.07965,391.34,497.85
30.09952,392.87,497.84
30.11874,392.92,495.07
30.13844,393.30,495.49
30.15942,396.50,497.44
30.17859,395.75,498.08
30.19977,396.08,497.83
30.21847,396.55,498.19
30.23936,395.45,496.53
30.25960,396.99,498.23
30.28054,395.58,497.84
30.30106,398.32,499.97
30.32027,397.65,498.90
30.33979,398.79,498.96
30.36030,401.19,498.59
30.38106,399.10,501.33
30.40025,402.69,500.76
30.42105,401.09,499.93
30.44140,403.42,502.35
30.46126,404.24,503.83
30.48197,402.83,503.37
30.50057,404.47,501.42
30.52239,404.83,499.97
30.54024,405.47,499.24
30.56221,405.01,501.81
30.58183,404.57,498.38
30.60127,404.41,499.74
30.62121,405.55,499.07
30.64126,400.34,498.16
30.66071,390.76,496.37
30.68239,372.67,490.72
30.70070,352.62,489.38
30.72170,332.97,490.68
30.74146,314.74,489.71
30.76133,300.55,483.25
30.78129,289.25,475.56
30.80057,284.35,466.43
30.82184,280.43,462.30
30.84095,282.40,454.49
30.86142,287.50,450.59
30.88168,288.03,447.97
30.90108,293.85,443.57
30.92156,302.83,443.25
30.94194,312.03,444.73
30.96201,319.54,445.56
30.98072,328.82,447.36
31.00085,335.16,451.70
31.02030,342.47,457.91
31.04127,348.81,462.43
31.06174,354.02,467.42
31.08104,364.19,470.26
31.10032,367.41,473.12
31.12219,371.40,478.00
31.14054,376.53,478.34
31.16034,383.26,482.07
31.18217,386.15,482.77
31.20061,388.77,484.77
31.22247,389.61,486.48
31.24139,394.14,491.16
31.26033,395.56,490.13
31.28152,397.55,490.50
31.30179,398.30,492.93
31.32042,402.76,497.02
31.34109,404.31,495.89
31.36187,403.36,498.48
31.38175,403.39,496.81
31.40197,405.61,496.56
31.42216,406.38,499.66
31.44083,406.00,500.05
31.46137,409.53,498.09
31.48099,408.83,498.79
31.50213,407.51,500.02
31.52196,406.01,504.00
31.54071,411.84,510.33
31.56089,417.04,525.94
31.58055,430.75,547.78
31.60164,449.01,572.84
31.62108,470.33,604.38
31.64187,486.99,631.59
31.66099,507.62,645.02
31.68193,525.92,639.65
31.70108,538.48,628.66
31.72109,544.24,608.39
31.74084,546.45,584.86
31.76178,544.08,563.26
31.78194,537.47,543.57
31.80182,527.78,525.64
31.82186,515.81,510.29
31.84098,505.16,498.30
31.86202,494.50,485.79
31.88040,483.60,479.38
31.90160,476.61,477.30
31.92147,464.34,474.41
31.94151,457.91,473.20
31.96123,453.04,471.90
31.98134,446.45,473.57
32.00122,442.79,474.95
32.02153,437.71,475.42
32.04089,434.72,477.69
32.06168,432.18,481.19
32.08310,427.48,482.37
32.10221,425.71,485.60
32.12202,421.98,489.51
32.14225,420.28,489.26
32.16318,419.37,492.53
32.18206,416.52,494.19
32.20182,416.58,494.08
32.22167,418.49,496.85
32.24166,414.72,494.54
32.26315,414.30,498.26
32.28287,416.58,498.49
32.30310,416.28,499.53
32.32307,413.20,497.97
32.34178,414.31,501.54
32.36313,414.29,501.03
32.38238,413.61,501.84
32.40233,413.62,503.85
32.42246,411.97,502.56
32.44347,410.85,502.00
32.46419,409.70,501.75
32.48279,410.07,505.12
32.50335,409.43,502.82
32.52394,410.11,506.05
32.54376,410.99,503.19
32.56400,408.21,503.24
32.58404,409.50,506.50
32.60486,407.63,504.98
32.62516,411.04,503.45
32.64426,407.74,502.30
32.66464,408.76,503.05
32.68525,410.28,505.16
32.70454,408.85,505.75
32.72450,411.46,504.48
32.74479,410.88,504.91
32.76537,409.25,503.25
32.78464,408.27,502.08
32.80508,409.50,504.94
32.82411,407.89,503.88
32.84346,411.33,506.59
32.86350,410.63,506.02
32.88348,408.60,505.89
32.90364,407.83,504.45
32.92513,409.25,505.86
32.94347,408.15,504.14
32.96497,409.84,503.87
32.98418,406.51,504.82
33.00420,407.04,503.71
33.02352,407.72,504.93
33.04340,404.96,504.67
33.06435,404.03,503.23
33.08331,405.68,505.31
33.10365,405.78,504.75
33.12482,404.83,503.72
33.14453,404.15,503.77
33.16419,404.65,502.54
33.18450,405.64,505.82
33.20349,404.76,503.90
33.22374,404.06,504.01
33.24427,406.50,503.99
33.26352,405.30,505.68
33.28346,406.08,506.18
33.30412,405.84,505.85
33.32516,404.94,503.32
33.34515,405.86,502.50
33.36365,406.02,503.90
33.38464,407.23,504.34
33.40410,404.88,505.41
33.42430,405.34,503.76
33.44481,406.48,501.10
33.46479,403.52,503.15
33.48458,403.25,503.36
33.50375,403.67,504.25
33.52500,405.26,504.58
33.54397,404.31,503.14
33.56380,403.51,504.78
33.58366,406.50,505.47
33.60434,404.49,505.06
33.62423,405.60,502.38
33.64330,406.31,504.32
33.66451,405.78,502.30
33.68487,407.33,505.33
33.70361,406.78,503.10
33.72492,408.39,503.83
33.74420,407.75,501.84
33.76453,407.55,501.15
33.78482,406.56,501.74
33.80401,404.79,504.34
33.82439,404.77,501.60
33.84438,407.32,501.32
33.86495,406.62,503.50
33.88416,408.17,501.17
33.90446,404.47,502.78
33.92326,404.80,500.54
33.94517,403.47,502.79
33.96344,402.38,500.69
33.98469,404.28,502.36
34.00454,402.87,500.70
34.02344,403.81,501.29
34.04373,402.30,502.78
34.06389,403.08,501.13
34.08442,404.56,502.30
34.10499,405.31,503.96
34.12554,403.07,500.09
34.14589,401.49,503.34
34.16615,400.94,501.77
34.18468,402.86,502.56
34.20542,401.84,501.36
34.22483,399.04,502.22
34.24441,402.56,503.94
34.26493,399.54,500.73
34.28475,402.29,501.38
34.30557,401.85,503.29
34.32532,399.33,503.09
34.34522,398.47,503.44
34.36605,400.96,501.06
34.38550,398.08,500.14
34.40620,397.97,502.15
34.42619,399.74,502.87
34.44585,395.59,498.79
34.46533,397.46,500.41
34.48600,398.46,500.98
34.50560,395.27,500.94
34.52675,395.32,501.79
34.54506,396.49,502.04
34.56642,394.95,501.54
34.58727,391.73,500.86
34.60666,394.50,503.13
34.62643,394.05,501.08
34.64663,393.81,502.65
34.66654,392.78,502.51
34.68802,391.12,502.59
34.70784,394.32,499.89
34.72663,392.80,500.20
34.74785,393.17,502.28
34.76768,389.99,499.85
34.78623,390.43,502.61
34.80715,388.94,501.92
34.82704,392.37,503.06
34.84641,390.46,500.54
34.86680,390.71,502.31
34.88764,390.52,501.94
34.90730,392.74,500.96
34.92705,391.23,500.59
34.94630,390.32,503.56
34.96686,389.53,503.81
34.98799,390.86,502.88
35.00628,392.05,502.93
35.02712,391.97,505.31
35.04773,389.24,502.52
35.06766,392.50,502.22
35.08666,392.97,502.15
35.10752,392.32,500.69
35.12747,391.34,500.65
35.14824,391.02,501.20
35.16693,391.52,502.10
35.18605,389.45,501.16
35.20810,390.55,502.07
35.22798,389.57,500.23
35.24647,389.29,499.51
35.26629,389.88,500.06
35.28646,390.66,499.15
35.30811,389.75,501.17
35.32716,387.48,500.37
35.34738,388.91,500.91
35.36665,385.35,501.35
35.38808,385.20,499.18
35.40746,387.32,499.06
35.42698,386.04,503.24
35.44819,385.75,502.78
35.46805,386.48,500.91
35.48794,385.61,498.33
35.50811,386.49,500.08
35.52800,386.55,498.78
35.54618,388.95,498.73
35.56807,384.01,499.94
35.58636,371.17,496.29
35.60805,352.03,496.54
35.62669,329.29,495.58
35.64802,307.91,493.03
35.66824,295.76,487.70
35.68726,282.87,480.19
35.70769,272.38,470.75
35.72771,270.71,464.31
35.74662,270.56,457.32
35.76637,277.02,451.85
35.78641,282.28,452.29
35.80801,288.46,453.29
35.82693,291.83,455.67
35.84721,301.43,456.44
35.86654,307.15,457.68
35.88701,314.94,457.52
35.90763,321.51,461.78
35.92659,328.74,463.05
35.94683,335.49,466.28
35.96701,342.63,469.50
35.98805,348.05,472.73
36.00802,353.32,476.88
36.02734,357.12,479.79
36.04695,362.21,482.81
36.06688,366.60,485.45
36.08742,367.18,488.11
36.10793,371.09,487.21
36.12677,374.13,488.77
36.14701,374.99,491.05
36.16714,377.70,492.37
36.18725,381.33,495.81
36.20690,382.65,495.46
36.22752,383.51,496.40
36.24789,380.98,498.52
36.26766,382.73,497.37
36.28643,382.08,502.16
36.30645,385.99,501.51
36.32762,386.29,504.95
36.34772,383.94,502.68
36.36815,387.52,506.58
36.38683,390.41,507.87
36.40818,387.98,505.99
36.42719,388.31,504.69
36.44719,391.74,504.63
36.46770,389.55,502.85
36.48743,392.42,500.65
36.50640,390.80,503.29
36.52784,391.12,500.52
36.54775,393.32,504.17
36.56782,399.47,504.11
36.58790,410.21,515.47
36.60792,429.40,526.11
36.62787,454.89,536.49
36.64660,479.71,547.80
36.66752,501.32,554.80
36.68748,517.82,559.10
36.70725,525.08,559.94
36.72861,520.98,557.22
36.74772,513.86,549.99
36.76861,509.13,543.66
36.78894,496.99,538.88
36.80743,487.38,531.41
36.82788,477.51,525.98
36.84911,467.08,524.67
36.86860,460.08,519.92
36.88738,454.30,518.92
36.90786,453.34,520.79
36.92733,446.05,516.86
36.94857,440.91,517.93
36.96719,437.36,514.58
36.98832,431.63,512.31
37.00789,426.44,512.05
37.02713,423.46,510.91
37.04748,420.90,508.60
37.06772,415.46,508.10
37.08881,413.71,507.04
37.10734,407.72,506.91
37.12729,407.39,506.17
37.14722,402.37,504.79
37.16783,402.74,506.18
37.18750,399.16,502.29
37.20855,399.16,503.45
37.22832,395.62,503.35
37.24721,394.94,503.07
37.26757,393.41,502.73
37.28790,394.47,502.32
37.30906,394.58,502.07
37.32892,394.33,500.97
37.34737,393.16,501.53
37.36891,393.90,500.85
37.38745,394.86,499.64
37.40846,394.87,502.63
37.42857,395.27,502.43
37.44729,390.52,500.82
37.46901,390.30,501.93
37.48798,390.95,501.23
37.50730,390.59,502.22
37.52838,387.85,500.10
37.54772,388.92,501.47
37.56809,390.48,502.73
37.58701,389.67,502.03
37.60903,388.57,501.33
37.62794,390.00,500.91
37.64891,387.31,500.68
37.66907,388.68,502.79
37.68901,390.95,501.00
37.70766,390.69,503.83
37.72804,388.69,504.08
37.74857,391.51,500.63
37.76781,392.94,501.35
37.78890,393.89,505.61
37.80889,391.91,506.76
37.82799,391.52,510.21
37.84808,393.58,512.23
37.86852,391.19,509.31
37.88753,391.19,509.22
37.90803,391.35,510.70
37.92737,393.13,507.91
37.94862,392.09,508.54
37.96823,391.04,507.41
37.98908,393.00,506.89
38.00894,390.71,504.40
38.02857,389.43,502.75
38.04809,392.11,502.83
38.06780,390.66,502.99
38.08757,391.24,501.16
38.10840,390.79,501.72
38.12721,391.66,502.05
38.14863,392.90,501.34
38.16839,393.76,500.91
38.18779,392.91,501.18
38.20845,391.11,500.95
38.22718,392.40,500.08
38.24740,393.26,501.52
38.26869,396.10,500.86
38.28824,391.58,503.28
38.30808,393.14,500.07
38.32826,391.22,501.43
38.34860,393.22,503.37
38.36849,393.55,503.10
38.38791,392.45,499.16
38.40912,393.80,499.99
38.42840,391.00,502.40
38.44711,392.37,501.68
38.46734,389.82,500.65
38.48899,389.81,499.98
38.50733,390.07,502.20
38.52777,390.55,500.92
38.54729,390.97,501.45
38.56774,389.83,501.10
38.58871,391.88,499.50
38.60780,391.47,503.73
38.62779,390.15,501.29
38.64793,392.59,501.37
38.66779,393.81,499.46
38.68855,394.22,501.33
38.70795,394.21,503.09
38.72894,393.60,503.66
38.74756,393.96,500.44
38.76775,395.79,501.34
38.78878,396.15,503.84
38.80888,397.10,501.95
38.82844,395.87,504.41
38.84767,394.23,503.28
38.86836,392.01,502.80
38.88856,391.32,502.99
38.90740,394.73,500.95
38.92897,392.67,502.40
38.94853,392.11,501.57
38.96831,393.67,501.18
38.98847,394.09,501.20
39.00867,391.39,503.34
39.02750,391.47,500.58
39.04845,391.35,499.58
39.06729,394.82,502.04
39.08762,391.91,500.00
39.10826,393.80,501.70
39.12762,391.62,501.77
39.14755,391.30,502.09
39.16758,391.77,500.20
39.18829,394.36,503.43
39.20894,394.87,502.99
39.22791,393.18,500.26
39.24877,393.82,501.50
39.26741,394.91,502.12
39.28864,394.99,506.01
39.30855,393.76,506.13
39.32906,394.74,506.12
39.34733,392.88,504.81
39.36788,393.16,505.01
39.38776,394.28,503.59
39.40826,396.28,504.74
39.42765,396.12,503.97
39.44771,393.12,506.08
39.46760,393.26,502.64
39.48897,393.46,501.17
39.50763,393.18,502.47
39.52749,394.52,502.15
39.54827,396.70,501.68
39.56902,397.34,502.55
39.58878,396.04,501.51
39.60752,394.13,500.37
39.62736,396.20,500.30
39.64931,395.61,501.51
39.66768,394.40,498.99
39.68778,393.16,498.36
39.70751,393.28,500.61
39.72712,393.53,501.46
39.74814,395.32,501.23
39.76839,394.23,497.62
39.78697,394.31,500.28
39.80768,394.21,497.14
39.82712,398.16,499.67
39.84751,396.28,496.59
39.86836,394.84,498.78
39.88731,397.31,496.44
39.90757,398.02,495.61
39.92847,392.78,497.37
39.94870,386.49,499.46
39.96743,370.87,495.65
39.98846,354.76,498.16
40.00890,333.17,495.67
40.02902,315.37,496.03
40.04830,301.98,488.55
40.06890,289.04,480.80
40.08792,278.15,469.50
40.10919,273.55,459.05
40.12795,273.63,454.83
40.14771,273.63,449.20
40.16916,279.54,449.46
40.18744,283.25,449.16
40.20770,291.58,452.03
40.22772,299.62,452.88
40.24831,307.06,455.95
40.26748,315.77,460.20
40.28712,323.19,465.41
40.30862,331.55,467.46
40.32769,339.65,470.07
40.34817,345.94,475.35
40.36719,352.77,480.59
40.38892,359.10,484.86
40.40752,363.10,486.51
40.42801,366.10,488.66
40.44855,373.07,489.64
40.46900,377.51,493.18
40.48874,380.17,493.47
40.50889,382.06,495.44
40.52908,384.11,496.08
40.54824,384.89,496.20
40.56742,386.28,499.44
40.58706,391.62,498.20
40.60898,391.29,503.25
40.62742,393.90,501.64
40.64894,391.84,503.94
40.66836,395.42,504.90
40.68968,397.29,503.35
40.70911,397.53,505.14
40.72907,399.49,504.60
40.74957,396.73,504.36
40.77019,397.40,503.49
40.78965,400.68,503.94
40.80947,402.74,503.16
40.82896,401.63,504.41
40.84822,401.22,501.70
40.87007,403.09,503.32
40.88954,408.91,510.96
40.90881,426.71,521.87
40.93000,445.50,532.57
40.94854,467.98,544.54
40.96866,495.14,551.01
40.98880,517.41,557.81
41.00938,537.07,560.19
41.02946,544.06,559.93
41.04940,543.04,555.19
41.06873,540.98,550.57
41.08937,529.99,545.60
41.10975,521.23,538.00
41.12867,508.84,533.68
41.14957,498.63,528.18
41.16887,489.57,526.44
41.18858,485.33,525.20
41.20830,477.71,521.26
41.22907,472.34,518.49
41.24911,464.47,514.06
41.27040,459.39,512.55
41.28916,452.08,510.98
41.31017,448.56,511.45
41.32954,445.51,508.43
41.35073,438.31,509.15
41.36977,435.26,507.65
41.38957,431.89,507.03
41.41038,427.27,505.89
41.43062,424.18,503.18
41.45034,422.06,502.97
41.47022,422.15,505.17
41.49031,419.59,501.53
41.50892,419.71,500.49
41.52944,416.69,503.53
41.55080,415.19,502.39
41.57033,417.38,504.30
41.59087,416.00,502.50
41.61094,415.92,501.51
41.63113,413.74,503.72
41.65129,411.92,503.59
41.67008,411.01,504.40
41.69170,410.45,503.44
41.71057,411.06,505.82
41.73060,409.55,505.82
41.74995,408.94,506.04
41.77083,411.44,507.30
41.79049,409.60,508.29
41.81014,410.15,508.31
41.83081,411.38,509.48
41.85107,409.27,507.44
41.87048,411.40,508.68
41.89077,410.28,511.65
41.91043,410.66,509.48
41.93169,412.51,511.00
41.95038,410.84,509.73
41.97188,412.89,510.46
41.99051,412.19,510.45
42.01032,412.58,506.58
42.03091,409.28,507.58
42.05077,410.83,507.62
42.07046,412.08,507.47
42.09114,410.96,504.54
42.11207,410.87,503.88
42.13069,411.53,503.29
42.15131,411.37,504.09
42.17011,411.73,503.40
42.19158,409.80,505.75
42.21090,408.27,505.25
42.23051,411.39,503.06
42.25117,409.06,501.47
42.27195,409.94,503.04
42.29136,409.64,503.02
42.31040,409.86,501.84
42.33181,408.33,503.22
42.35163,409.23,503.69
42.37102,409.21,502.83
42.39118,411.23,504.87
42.41187,410.48,503.84
42.43076,411.03,506.52
42.45109,409.85,503.58
42.47002,410.48,503.75
42.49030,409.43,504.15
42.51052,410.79,505.94
42.53157,412.12,503.40
42.55037,413.17,506.67
42.57165,409.76,503.69
42.59145,408.50,503.31
42.61098,411.13,503.28
42.63146,411.36,504.37
42.65034,408.16,501.78
42.67068,408.50,504.32
42.69132,408.20,502.60
42.71090,411.49,503.93
42.73155,410.50,504.24
42.75049,409.64,502.48
42.77175,410.27,500.50
42.79110,411.72,501.03
42.81113,409.11,502.71
42.83056,410.65,504.76
42.85080,411.51,502.88
42.87076,408.86,508.18
42.89168,411.12,517.95
42.91149,414.10,534.12
42.93068,416.28,558.21
42.95131,419.15,572.19
42.97114,421.34,574.83
42.99032,417.59,570.86
43.01027,417.02,568.31
43.03086,419.00,570.76
43.05063,414.99,575.66
43.07110,415.59,583.70
43.09059,415.84,589.85
43.11172,414.07,590.14
43.13071,414.92,585.18
43.15080,416.63,575.92
43.17090,415.97,560.20
43.19010,413.87,541.82
43.21195,411.05,524.47
43.23105,409.94,505.96
43.25042,407.80,492.28
43.27164,404.57,483.00
43.29163,403.08,470.83
43.31133,401.46,467.21
43.33189,403.82,462.63
43.35070,402.26,462.57
43.37060,403.48,459.60
43.39159,402.20,458.08
43.41040,402.39,459.63
43.43030,405.37,463.69
43.45017,411.67,473.60
43.47116,424.96,487.68
43.49070,442.47,502.20
43.51201,455.07,506.46
43.53032,462.18,509.34
43.55129,463.96,511.49
43.57033,461.11,513.36
43.59003,456.27,509.71
43.61196,452.33,508.28
43.63162,450.84,508.34
43.65126,445.46,508.76
43.67035,445.40,507.26
43.68985,448.26,507.97
43.71011,444.54,506.01
43.73079,445.76,507.87
