Program Time [s],data 0,data 1
5.80718,496.67,492.53
5.80719,501.11,489.83
5.80721,502.49,490.26
5.80722,503.39,492.21
5.80723,505.51,496.37
5.80724,507.81,500.89
5.80725,509.25,508.11
5.80726,510,515.69
5.80727,510,492.53
5.80728,496.67,489.83
5.80729,501.11,490.26
5.8073,502.49,492.21
5.80731,503.39,496.37
5.80732,505.51,500.89
5.80833,507.81,508.11
5.80834,509.25,515.69
5.80835,510,492.53
5.80836,510,489.83
5.80837,496.67,490.26
5.80838,501.11,492.21
5.80839,502.49,496.37
5.8084,503.39,500.89
5.80841,505.51,508.11
5.80842,507.81,515.69
5.80843,509.25,516.4
5.80844,510,521.92
5.80845,510,526.14
7.32291,512.2,527.91
7.34334,512.36,528.93
7.36375,512.89,525.94
7.38826,512.11,522.15
7.40872,510.69,516.92
7.42923,509.55,510.34
7.44978,508.24,503.47
7.47021,507.59,498.38
7.49083,505.47,494.1
7.51529,503.38,491.68
7.53582,503.5,491.54
7.5563,504.4,493.64
7.57682,505.52,498.51
7.59736,506.42,503.81
7.62197,507.93,509.85
7.64222,509.15,515.68
7.66282,511.72,521.34
7.68323,512.57,523.87
7.70367,514.06,524.1
7.72416,512.65,523.08
7.74872,512.52,520.06
7.76921,511.21,515.25
7.78969,510.17,509.8
7.8102,509.54,503.24
7.83067,507.23,496.39
7.85517,507.18,491.91
7.87575,505.15,489.73
7.89626,504.12,490.38
7.91667,503.69,492.71
7.9372,503.36,497.37
7.95764,504.48,503.69
7.98216,507.59,510.75
8.00273,509.27,522.2
8.02316,511.82,537.96
8.04363,508.05,556.57
8.06417,499.44,572.66
8.08859,482.55,579.92
8.10911,462.04,578.94
8.12965,440.03,570.95
8.15016,419.63,557.16
8.17062,402.7,541.73
8.19115,390.76,525.98
8.21567,382.81,512.39
8.23615,380.25,501.31
8.25669,381.2,495.05
8.27709,386.76,491.84
8.29758,393.21,491.67
8.32205,403.37,493.34
8.34261,413.89,497.47
8.3631,423.31,501.18
8.38364,432.45,503.14
8.40413,440.76,504.11
8.42464,448.01,504.69
8.44905,455.41,501.95
8.46962,461.53,497.36
8.49009,466.02,490.49
8.51061,470.42,482.39
8.53109,472.93,475.51
8.55168,476.35,468.81
8.57614,480.08,465.05
8.59667,480.46,463.44
8.61712,485.17,464.55
8.63757,487.34,468.44
8.65805,490.87,475.15
8.68257,494.29,483.32
8.70308,498.24,491.46
8.72357,502.19,500.17
8.74411,504.35,510.33
8.76457,507.28,519.87
8.78506,507.82,526.69
8.80952,510.66,530.15
8.83011,519.33,528.12
8.85072,540.26,522.1
8.87116,567.61,515.88
8.89171,601.69,507.5
8.91596,631.35,500.8
8.93653,646.08,496.04
8.95724,650.46,491.23
8.97777,648.77,488.59
8.99797,641.62,489.67
9.0186,635.49,492.74
9.04312,628.59,497.19
9.06368,620.48,502.95
9.08404,609.38,509.96
9.10463,598.7,515.57
9.12511,588.56,518.85
9.14965,580.85,520.68
9.16995,572.68,520.35
9.19062,563.34,518.68
9.21099,554.68,515.14
9.23156,547.74,509.71
9.2519,542.39,502.97
9.27646,536.51,496.38
9.29695,531.61,491.7
9.3175,526.29,489.36
9.33791,521.43,487.89
9.35848,517.74,489.71
9.38291,516,493.57
9.40346,514.4,499.86
9.42393,513.12,506.08
9.44444,514.89,511.87
9.46505,516.52,517.09
9.48552,515.01,521.08
9.50995,514.01,523.66
9.5304,514.01,522.73
9.55085,514.21,520.38
9.57137,512.97,516.31
9.59201,510.77,510.84
9.61239,508.62,504.88
9.63684,506.49,498.3
9.65742,507.6,493.24
9.67791,506.88,490.39
9.69838,505.3,489.11
9.71899,505.04,490.49
9.74339,507.03,494.19
9.76393,509.23,498.95
9.78451,511.18,504.96
9.80485,511.74,510.37
9.82531,513.4,515.5
9.84589,513.12,519.2
9.87037,513.69,521.36
9.89105,513.15,522.29
9.91141,511.52,519.63
9.93222,510.02,516.3
9.95252,509.22,512.04
9.97683,505.57,505.43
9.99736,503.46,498.55
10.0179,503.57,493.04
10.0383,501.65,489.63
10.0588,498.72,488.3
10.0794,498.18,489.84
10.1039,500.34,493.87
10.1245,501.87,498.7
10.1448,505.1,504.76
10.1653,506.68,511.81
10.1858,508.94,517.45
10.2102,511.55,521.56
10.2309,511.84,523.65
10.2513,511.48,524.72
10.2718,510.78,522.57
10.2923,509.82,519.66
10.3129,509.66,516.13
10.3372,508.33,510.3
10.3578,506.86,503.24
10.3785,505.09,496.79
10.3989,504.67,493.23
10.4192,503.14,491.39
10.4398,503.11,491.91
10.4642,502.49,494.33
10.4849,503.39,498.66
10.5056,504.31,503.53
10.5257,506.65,509.42
10.5462,507.92,514.74
10.5707,510.14,519.99
10.5914,511.71,522.39
10.6118,512.37,522.91
10.6323,513.09,521.53
10.6528,511.87,518.43
10.6732,510.1,514.14
10.6978,508.68,508.11
10.7182,506.74,502.49
10.7387,505,497.39
10.7592,505,493.31
10.7797,504,491.25
10.8043,503.4,491
10.8247,503.72,494.2
10.8453,505.57,498.76
10.8657,506.66,503.81
10.8861,509.13,509.85
10.9067,511.1,515.88
10.9313,512.28,521.3
10.9517,512.43,524.84
10.9722,513.14,525.87
10.9927,513.31,525.1
11.0133,511.85,521.88
11.0378,509.48,517.7
11.0583,506.98,512.76
11.0788,505.59,506.21
11.0993,504.67,499.77
11.1197,502.54,495.01
11.1401,502.03,492.41
11.1648,502.02,491.93
11.1853,503.42,494.74
11.2057,503.73,499.19
11.2262,504.39,505.76
11.2467,506.91,511.2
11.2712,508.93,516.96
11.2917,510.94,522.17
11.3123,510.15,525.94
11.3326,511.52,528.15
11.3531,511.22,532.32
11.3735,511.97,539.66
11.3982,511.98,550.32
11.4187,506.18,556.06
11.4392,489.95,552.05
11.4597,466.76,542.64
11.4801,443.41,531.31
11.5007,422.32,520.85
11.5251,404.86,512.68
11.5456,392.69,507.34
11.5663,384.95,505.87
11.5866,382.16,504.7
11.6072,383.53,504.36
11.6317,388.62,504.69
11.6521,398.1,505.35
11.6726,407.88,503.48
11.6932,415.5,499.98
11.7137,423.4,495.99
11.7341,432.72,489.59
11.7586,440.38,481.47
11.7792,448.3,476.98
11.7997,455.44,472.78
11.8201,461.75,469.03
11.8405,466.4,467.22
11.8651,472.52,465.78
11.8856,478.02,468.42
11.906,480.41,474.34
11.9267,484.13,482.67
11.947,487.91,490.54
11.9675,499.52,496.83
11.992,519.22,503.46
12.0125,550.38,509.57
12.033,585.7,513.06
12.0534,613.76,515.04
12.0739,630.21,515.04
12.0984,635.17,512.63
12.1189,633.53,509.1
12.1395,625.63,505.08
12.1599,618.1,500.27
12.1805,608.48,494.61
12.2011,598.78,489.89
12.2255,588.03,487.31
12.2462,579.02,489.05
12.2665,570.42,493.64
12.2869,562.93,499.51
12.3074,553.15,505.41
12.3281,543.52,512.13
12.3524,537.21,518.1
12.3729,533.17,522.88
12.3935,527.34,525.91
12.4139,525.47,527.92
12.4344,521.78,528.14
12.4589,518.42,525.71
12.4795,515.74,520.77
12.4999,513.39,515.02
12.5204,514.51,509.21
12.5409,513.61,501.77
12.5614,515.29,495.62
12.5858,513.03,491.29
12.6064,511.22,489.63
12.6269,509.58,491.11
12.6473,509.26,495.69
12.6679,511.81,501.15
12.6924,513.05,507.72
12.713,513.84,514.18
12.7334,513.27,519.74
12.7539,513.62,524.39
12.7743,514.09,526.51
12.7949,514.27,527.01
12.8195,511.82,525.61
12.84,511.06,521.49
12.8603,511.24,516.59
12.8809,509.8,510.27
12.9013,508.24,503.42
12.9258,505.79,498.13
12.9463,504.43,495.51
12.9671,504.15,493.61
12.9874,506.32,494.08
13.008,506.85,497.47
13.0284,506.48,502.57
13.0528,506.59,507.66
13.0733,508.27,513.53
13.0939,511.01,519.02
13.1145,512.81,523.42
13.1348,512.25,525.13
13.1593,512.6,525.31
13.1799,513.28,523.45
13.2003,513.02,520.36
13.2208,513.02,514.89
13.2412,510.62,509.91
13.2618,508.69,502.93
13.2862,508.75,497.54
13.3069,508.2,494.63
13.3273,507.36,490.91
13.3478,506.29,490.73
13.3682,507.23,493.58
13.3927,508.39,497.06
13.4133,509.31,503.45
13.4338,510.65,509.76
13.4542,512.72,515.61
13.4748,512.77,521.49
13.4952,513.62,523.39
13.5197,512.9,523.71
13.5402,512.52,521.57
13.5607,511.41,517.06
13.5812,509.73,512.64
13.6017,507.78,505.92
13.6261,505.43,498.73
13.6467,505.94,492.99
13.6672,505.15,489.79
13.6878,504.72,488.03
13.7082,503.98,488.82
13.7286,505.38,493.06
13.7531,506.91,498.45
13.7737,509.52,504.76
13.7942,511.82,510.81
13.8147,513.26,516.25
13.8352,515,520.6
13.8556,515.8,523.48
13.8801,516.04,524.18
13.9007,516.43,522.95
13.9213,514.95,519.56
13.9417,512.56,515.05
13.9621,511.25,508.84
13.9866,509.8,502.27
14.0073,508.64,496.62
14.0277,507.31,492.09
14.0482,505.25,489.87
14.0686,505.6,490.7
14.0891,505.68,492.96
14.1136,507.74,497.17
14.1341,507.79,502.33
14.1546,508.44,508.67
14.1751,510.75,514.73
14.1956,511.2,524.39
14.2202,512.56,537.11
14.2406,515.05,550.89
14.2611,508.64,559.11
14.2816,493.31,558.49
14.3021,471.85,548.99
14.3226,449.28,534.99
14.3471,428.82,520.79
14.3676,411.86,508.84
14.3881,401.29,498.07
14.4086,394.43,490.65
14.429,392.14,487.72
14.4535,394.11,487.98
14.4742,400.69,489.38
14.4946,408.35,491.51
14.515,415.48,495.21
14.5356,423.99,498.16
14.556,433.39,499.53
14.5805,440.91,498.83
14.601,449.73,497.66
14.6216,457.18,496.33
14.642,463.55,491.86
14.6626,470.24,487.29
14.683,474.39,483.03
14.7077,478.11,477.83
14.7281,480.69,474.06
14.7488,483.35,474.05
14.7691,485.08,478.44
14.7895,486.67,485.95
14.814,494.53,496.96
14.8346,510.43,508.37
14.8551,536.14,517.89
14.8755,568.31,523.92
14.896,604.65,528.33
14.9166,630.12,530.47
14.941,640.5,531.77
14.9615,644,532.02
14.982,641.2,530.41
15.0025,634.16,527.13
15.0229,623.53,521.11
15.0475,612.42,514.48
15.0679,600.34,506.59
15.0885,590.27,499.27
15.109,579.22,493.82
15.1295,568.77,490.85
15.1499,560.02,487.28
15.1744,553.81,485.63
15.1949,545.85,487.9
15.2155,539.08,493.12
15.2359,531.66,499.7
15.2565,524.13,505.36
15.2809,519.11,511.49
15.3015,516.48,515.19
15.3219,514.99,517.95
15.3425,514.19,518.16
15.3631,513.35,515.53
15.3834,512.08,512.42
15.4079,510.07,507.74
15.4284,509.25,501.39
15.449,508,495.71
15.4695,507.4,490.97
15.4901,506.32,488.58
15.5144,507.06,488.66
15.535,506.25,491.13
15.5554,507.2,496.5
15.5759,507.56,502.6
15.5965,508.25,508.28
15.617,511,514.83
15.6414,512.8,521.06
15.6619,511.84,525.85
15.6824,512.07,529.88
15.703,512.66,531.5
15.7234,512.92,529.4
15.7439,516.94,525.12
15.7684,520.75,519.7
15.7888,521.8,512.16
15.8094,520.44,504.93
15.83,518.15,498.74
15.8503,515.92,494.19
15.8749,514.74,491.75
15.8954,515.19,492.8
15.9158,514.95,497.04
15.9363,514.56,502.83
15.9568,515.05,507.87
15.9773,516.44,512.69
16.0018,516.35,516.96
16.0224,517.68,520.56
16.0429,523.95,522.25
16.0633,528.16,522
16.0837,530.32,519.4
16.1083,529.46,515.72
16.1288,527.57,510.78
16.1493,524.05,504.42
16.1698,521.64,497.34
16.1904,518.91,493.07
16.2109,516.93,489.86
16.2352,514.95,488.48
16.2558,514.16,490.19
16.2763,512.73,493.95
16.2968,514.38,498.36
16.3172,514.9,505.29
16.3418,516.12,512.43
16.3623,516.3,517.74
16.3828,517.04,521.8
16.4033,517.03,524.24
16.4238,514.82,524.99
16.4442,511.66,523.19
16.4688,508.53,518.95
16.4892,504.42,513.56
16.5097,499.54,508.05
16.5302,498.23,501.04
16.5507,498.38,494.83
16.5751,496.71,492.47
16.5957,496.57,492.37
16.6163,496.85,495.7
16.6367,495.48,500.36
16.6572,505.19,505.29
16.6776,518.15,510.43
16.7022,525.72,516.34
16.7228,528.98,522.47
16.7433,531.78,526.38
16.7637,533.82,528.7
16.7842,534.86,529.56
16.8047,531.49,530.85
16.8292,528.99,533.08
16.8497,528.59,539.26
16.8701,529.07,547.01
16.8907,517.26,551.21
16.9113,494.01,545.57
16.9357,466.81,534.05
16.9562,439.04,522.04
16.9767,416.64,513.03
16.9972,397.71,507.63
17.0176,384.37,505.7
17.0382,375.89,505.76
17.0628,372.31,506.81
17.0833,374.65,509.65
17.1037,380.12,512.52
17.1242,387.1,513.81
17.1447,394.68,513.05
17.1691,403.34,509.04
17.1896,410.47,503.63
17.2102,415.78,495.71
17.2308,424.62,487.17
17.2512,433.7,479.13
17.2716,442.16,472.91
17.2961,447.33,469.92
17.3167,453.46,469.54
17.3372,458.57,472.23
17.3576,464.06,476.79
17.3781,470.84,482.43
17.4026,474.88,490.14
17.4231,482.9,498.31
17.4436,487.52,506.25
17.464,492.62,512.8
17.4846,495.69,518.04
17.5051,499.55,522.23
17.5296,501.44,524.99
17.5504,503.55,527.99
17.5708,507.84,525.19
17.5911,521.88,516.15
17.6115,543.5,505.52
17.636,572.2,496.82
17.6566,602.56,489.85
17.6772,625.65,485.28
17.6976,637.12,483.63
17.7181,641.29,484.9
17.7385,639.24,488.52
17.7629,633.79,494.42
17.7836,625.03,502.93
17.8041,616.42,510.35
17.8245,610.54,516.88
17.845,607.03,520.7
17.8656,603.03,522.16
17.89,595.82,520.93
17.9106,589.66,517.94
17.931,580.73,512.55
17.9515,572.78,506.84
17.972,563.22,500.68
17.9964,556.18,495.14
18.0171,548.74,490.31
18.0375,540.99,487.65
18.058,535,487.52
18.0785,531,489.62
18.099,528.2,494.89
18.1234,527.56,500.91
18.144,526.25,506.93
18.1646,526,513.75
18.1849,524.2,519.2
18.2055,524.56,522.56
18.2301,522.85,524.25
18.2505,521.28,524.2
18.271,519.02,521.56
18.2915,517.02,517.85
18.3119,513.81,511.68
18.3325,512.65,505.34
18.3569,510.72,498.87
18.3776,508.38,494.5
18.3979,506.1,491
18.4186,505.48,490.8
18.4389,506.18,492.84
18.4633,506.15,496.87
18.4839,506.12,501.7
18.5044,507.89,508.16
18.525,508.52,515.13
18.5455,509.61,520.9
18.5659,509.69,524.32
18.5906,512.55,525.86
18.6109,513.44,525.69
18.6315,513.15,524.55
18.6518,512.12,520.84
18.6723,508.9,515.27
18.6968,506.72,508.22
18.7173,504.97,500.77
18.7379,503.98,494.82
18.7584,503.58,492.45
18.7788,502.07,491.76
18.7995,500.25,493.21
18.8239,502,497.17
18.8445,503.2,502.34
18.8649,504.56,508.27
18.8854,506.85,514.41
18.9058,507.48,520.53
18.9263,507.98,524.43
18.9508,508.99,526.54
18.9715,510.39,526.03
18.9919,509.31,522.43
19.0123,508.25,517.54
19.0328,506.8,511.43
19.0574,504.04,504.75
19.0778,502.83,498.2
19.0983,503.27,493.36
19.1188,502.41,490.29
19.1392,501.73,488.83
19.1599,501.78,490.46
19.1843,503.03,494.37
19.2048,504.82,500.1
19.2253,506.26,506.68
19.2458,506.61,513.74
19.2662,507.08,518.39
19.2908,509.67,521.91
19.3113,509.93,522.93
19.3318,507.95,523.15
19.3522,506.16,520.52
19.3729,506.53,516.21
19.3932,505.02,512.17
19.4178,502.22,508.14
19.4383,500.97,509.11
19.4588,500.98,515.29
19.4793,495.98,520.23
19.4997,483.99,520.58
19.5241,466.39,519.47
19.5448,448.71,519.97
19.5652,433.37,523.78
19.5857,420.3,526.82
19.6062,409.04,530.66
19.6268,400.03,532.33
19.6512,396.82,532.46
19.6717,394.86,531.77
19.6923,398.69,529.42
19.7128,403.75,524.33
19.7331,408.2,517.67
19.7578,413.96,510.93
19.7782,421.97,503.15
19.7987,427.97,494.92
19.8192,432.98,489.73
19.8396,437.38,485.79
19.8603,445.11,484.23
19.8846,452.09,484.18
19.9052,458.47,487.55
19.9256,465.37,493.44
19.9463,472.7,498.75
19.9666,479.16,503.8
19.9871,485.53,508.04
20.0116,489.42,512.03
20.0324,492.54,514.63
20.0526,493.63,515.5
20.0731,496.7,514.2
20.0936,498.36,510.36
20.1181,500.09,507.29
20.1387,498.47,508.83
20.1592,498.58,517.66
20.1798,497.46,527.93
20.2002,504.77,536.75
20.2206,526.22,534.2
20.2452,553.77,524.16
20.2658,584.62,514.73
20.2861,616.29,508.18
20.3065,643.64,505.34
20.327,665.31,503.48
20.3517,675.65,503.78
20.3722,677.72,504.22
20.3927,671.17,503.98
20.4131,662.54,504.38
20.4336,652.83,502.51
20.4542,641.07,499.41
20.4786,627.05,494.92
20.4991,612.84,489.74
20.5196,598.47,484.59
20.54,585.78,479.67
20.5605,573.62,476.94
20.5852,564.1,476.55
20.6056,556.48,478.64
20.6261,550.98,483.71
20.6466,546.19,489.37
20.667,541.15,496.9
20.6875,537.72,503.92
20.712,536.18,511.73
20.7326,535.34,517.39
20.7531,528.67,521.71
20.7735,521.74,523.77
20.794,516.59,522.61
20.8184,511.87,519.89
20.839,508.9,515.11
20.8596,507.32,508.49
20.8801,503.25,501.39
20.9005,501.6,495.51
20.9209,501.28,492.81
20.9455,501.63,491.45
20.9661,503.3,490.56
20.9866,503.64,493.25
21.0071,506.11,498
21.0276,506.89,503.4
21.0479,508.51,509.32
21.0724,509.61,516.05
21.093,510.49,521.64
21.1134,513.59,525.92
21.134,520.47,526.93
21.1546,522.78,526.75
21.179,523.02,523
21.1995,521.02,517.8
21.22,521.01,511.84
21.2404,519.41,505.47
21.261,518.73,498.58
21.2814,516.78,494.06
21.3059,514.43,491.65
21.3265,513.54,491.32
21.347,511.83,493.86
21.3675,512.47,498.68
21.388,513.17,504.75
21.4124,513.94,510.6
21.4331,514.55,516.28
21.4536,516.84,515.62
21.474,515.87,522.9
21.4944,511.9,524.92
21.5149,507.32,523.93
21.5394,509.05,522.35
21.5599,513.64,519.68
21.5804,513.12,513.74
21.6009,512.69,507.19
21.6213,510.15,502.56
21.6459,510.12,497.24
21.6664,508.9,495.8
21.6869,506.72,497.24
21.7073,506.17,501.39
21.7279,508.14,506.51
21.7483,509.91,512.61
21.7728,511.33,520.89
21.7934,510.86,529.91
21.8139,510.29,540.73
21.8343,512.83,554.38
21.8548,515.07,569.71
21.8793,512.25,581.56
21.8998,495,591.05
21.9203,474,592.84
21.9409,449.4,586.87
21.9613,423.32,577.1
21.9818,400.26,559.28
22.0063,378.01,541.02
22.0269,362.2,524.42
22.0473,357.76,510.93
22.0678,354.01,500.55
22.0882,358.01,496.04
22.1088,364.01,493.23
22.1334,373.61,491.98
22.1538,385.48,490.99
22.1743,399.19,489.99
22.1948,411.75,489.39
22.2153,420.6,488.11
22.2398,428.48,485.49
22.2605,437.38,482.39
22.281,446.91,477.11
22.3013,453.53,471.49
22.3217,458.82,466.79
22.3422,462.86,463.03
22.3668,467.49,461.63
22.3873,472.99,460.9
22.4079,476.79,462.92
22.4283,481.03,467.74
22.4487,485.43,473.39
22.4732,488.14,481.91
22.4938,492.91,490.93
22.5144,496.73,499.34
22.5348,501.58,508.07
22.5554,503.67,519.06
22.5758,504.13,534.25
22.6002,504.51,544.4
22.6208,508.81,543.52
22.6412,525.24,533.61
22.6617,548.6,522.09
22.6822,578.88,508.87
22.7066,613.3,497.9
22.7271,639.44,488.52
22.7478,652.75,482.82
22.7682,655.6,481.25
22.7886,653.28,481.6
22.8091,645.43,483.48
22.8338,637.34,488.59
22.8543,626.27,495.67
22.8746,615.82,501.73
22.8951,606.45,509.39
22.9157,592.76,514.31
22.9361,588.81,517.25
22.9607,591.05,518.2
22.9812,587.24,517.16
23.0019,584.19,513.53
23.0223,578.95,509.22
23.0428,572.36,503.78
23.0671,564.09,497.82
23.0876,556.27,493.06
23.1081,551.22,489.85
23.1286,544.97,489.08
23.1492,539.38,490.26
23.1697,533.9,494.01
23.1942,530.72,499.21
23.2147,528.38,505.57
23.2352,527.7,513.25
23.2556,527.36,520
23.2763,525.49,524.4
23.3007,526.19,525.72
23.3213,525.95,525.38
23.3416,523.16,523.5
23.3622,522.13,519
23.3825,521.5,513.4
23.4031,519.6,506.72
23.4276,517.28,499.98
23.4482,514.83,494.78
23.4687,512.66,491.63
23.4892,511.93,489.3
23.5097,512.34,490.04
23.5341,510.27,493.43
23.5545,509.62,498.95
23.575,508.3,504.96
23.5955,508.24,511.37
23.616,509.39,517.69
23.6366,510.71,522.35
23.661,511.37,525.48
23.6816,511.3,526.19
23.7022,511.04,523.75
23.7226,508.63,520.6
23.7432,506.3,515.48
23.7674,505.84,508.98
23.788,505.07,501.79
23.8085,505.66,495.23
23.8291,504.13,491.18
23.8494,503.3,489.75
23.8699,504.24,490
23.8945,503.19,492.8
23.915,503.95,497.84
23.9355,503.76,504.27
23.9563,504.61,510.82
23.9764,505.09,516.05
23.997,507.07,520.84
24.0215,508.26,524.07
24.042,510.81,524.86
24.0625,511.24,523.29
24.083,508.4,519.63
24.1035,507.12,514.5
24.1279,508.09,509.6
24.1484,507.27,502.88
24.169,507.42,496.71
24.1894,504.54,492.16
24.2099,502.23,489.73
24.2304,502.38,490.39
24.2549,503.91,493.71
24.2755,505.13,498.57
24.2959,505.7,504.85
24.3164,505.56,511.48
24.3369,506.45,517.79
24.3615,508.36,522.63
24.3819,509.29,528.1
24.4025,509.23,533.88
24.4229,508.98,540.31
24.4434,508.19,549.44
24.4639,507.15,560.96
24.4883,503.52,572.16
24.509,490.62,576.73
24.5297,469.29,570.79
24.55,444.63,558.63
24.5704,421.71,544.7
24.5948,400.37,531.16
24.6155,383.49,519.73
24.6359,372.59,511.78
24.6563,366.08,506.23
24.6769,364.66,502.98
24.6975,366.73,501.19
24.722,371.38,500.55
24.7425,380.71,498.64
24.763,391.16,496.51
24.7834,399.73,493.01
24.804,410.19,489.81
24.8284,419.35,485.85
24.849,426.88,481.28
24.8694,435.7,476.82
24.89,444.56,473.26
24.9105,451.65,471.01
24.9309,456.72,470.6
24.9556,463.58,472.28
24.9761,470.46,477.43
24.9964,476.97,484.14
25.0169,483.37,491.71
25.0373,486.7,500.17
25.0578,491.36,508.94
25.0823,495.69,515.75
25.1028,498.75,525.4
25.1234,501.6,538.12
25.1437,506.88,544.3
25.1643,516.5,539.44
25.1889,535,527.15
25.2094,561.2,512.92
25.2299,589.96,499.54
25.2504,619.77,487.83
25.2709,646.62,480.06
25.2912,661.29,474.85
25.3158,666.43,473.08
25.3363,663.55,474.06
25.3567,659.04,478.85
25.3773,650.03,486.28
25.3978,639.82,494.62
25.4223,630.06,501.1
25.443,618.45,507.28
25.4634,607.16,511.22
25.4839,594.93,513.98
25.5043,582.94,514.78
25.5247,574.35,512.63
25.5494,564.88,508.9
25.5699,556.11,504.72
25.5904,549.88,499.38
25.6107,543.51,493.9
25.6312,535.81,488.92
25.6558,530.64,486.14
25.6761,525.32,486.11
25.6967,522.65,488.49
25.7172,520.52,491.79
25.7379,519.22,497.23
25.7583,516.77,504.19
25.7826,516.82,511.15
25.8032,517.86,516.52
25.8238,518.48,519.82
25.8443,517.59,521.45
25.8648,515.27,520.96
25.8892,515.82,518.37
25.9098,513.25,514.1
25.9303,511.8,508.08
25.9506,509.64,502.26
25.9712,506.71,498.81
25.9917,505.97,495.25
26.0161,503.78,492.6
26.0367,504.82,492.08
26.0575,505.06,493.66
26.0776,506.25,498.33
26.0982,508.6,504.86
26.1188,509.68,510.89
26.1433,511.14,517.31
26.1637,511.51,522.85
26.1842,513.81,527.28
26.2048,513.85,529.22
26.2251,514.08,529.18
26.2495,514.26,526.54
26.2702,513.21,521.83
26.2906,511.57,515.87
26.3111,509.05,508.69
26.3316,508.04,502.36
26.3521,508.04,497.88
26.3767,506.43,494.31
26.397,507.14,492.45
26.4176,507.11,492.56
26.4382,506.89,496.65
26.4587,508.11,501.92
26.4833,509.89,507.53
26.5037,511.51,513.83
26.5242,512.81,519.26
26.5447,513.25,522.61
26.5651,512.8,525.09
26.5856,511.84,525.07
26.61,511.87,522.86
26.6306,510.9,519.28
26.651,510.32,514.43
26.6715,507.45,508.14
26.6922,505.96,501.51
26.7166,506.17,496.01
26.737,506.14,493.01
26.7575,505.71,491.81
26.778,504.37,492.45
26.7987,503.49,495.76
26.8191,504.6,500.41
26.8435,506.08,506.72
26.8642,506.26,512.98
26.8846,507.81,519.78
26.905,508.85,524.03
26.9257,509.68,527.22
26.9499,510.94,526.98
26.9705,509.75,524.58
26.991,509,521.07
27.0115,508.6,517.85
27.032,508.08,516.48
27.0524,507.87,521.99
27.077,505.89,532.79
27.0974,503.71,546.43
27.1179,492.37,553.94
27.1385,472.7,552.56
27.1589,448.56,547.64
27.1794,424.85,542.12
27.2039,405.08,537.49
27.2246,389.26,532.79
27.2449,377.61,528.24
27.2654,372.09,523.19
27.2859,370.47,518.35
27.3104,371.78,512.28
27.331,374.62,504.42
27.3515,380.3,496.74
27.3719,387.44,488.99
27.3924,396.55,480.19
27.4129,406.44,472.35
27.4373,414.35,464.88
27.4579,421.68,459.71
27.4784,430.55,457.37
27.4988,438.24,457.89
27.5193,447.99,461.31
27.5439,455.99,467.85
27.5645,463.59,476.08
27.5849,471.07,485.46
27.6055,479.06,493.77
27.626,485.85,501.22
27.6463,490.48,506.97
27.6709,494.78,509.98
27.6914,498.23,509.78
27.7119,500.98,508.63
27.7323,501.78,507.7
27.7528,502.63,509.16
27.7773,501.1,514.33
27.7978,499.48,525.46
27.8184,502.19,531.97
27.8388,519.15,527.58
27.8593,543.32,519.66
27.8798,575.26,513.53
27.9043,609.2,509.62
27.9249,640.76,509.3
27.9455,658.81,510.44
27.9657,667.05,512.75
27.9864,666.04,515.2
28.0067,660.23,516.16
28.0313,650.58,515.93
28.0519,640.27,514.34
28.0724,627.01,510.47
28.0928,613.61,505.38
28.1133,601.09,499.3
28.1378,588.87,493.24
28.1583,578.9,487.79
28.1788,567.72,483.64
28.1993,559.17,482.31
28.2197,549.74,482.65
28.2403,544.19,484.72
28.2648,539.75,489.17
28.2853,533.8,495.54
28.3058,537.04,503.03
28.3262,541.63,510.03
28.3467,543.91,515.82
28.3712,543.13,519.66
28.3918,542.7,521.72
28.4122,539.96,520.78
28.4327,536.77,517.22
28.4533,533.81,512.78
28.4737,529.45,508.42
28.4982,525.96,502.14
28.5187,521.97,495.51
28.5392,517.78,490.41
28.5597,515.42,487.73
28.5802,515.54,487.78
28.6046,515.03,491.03
28.6252,513.82,495.02
28.6457,515.26,500.22
28.6662,515.61,505.97
28.6866,516.89,512.38
28.7071,516.71,518.1
28.7316,517.17,520.88
28.7522,516.13,522.71
28.7728,514.91,521.36
28.7931,514.33,519.29
28.8136,512.86,515.03
28.8381,511.49,510.43
28.8587,509.59,503.54
28.8792,507.27,497.63
28.8997,506.82,493.31
28.9201,507.65,490.85
28.9406,506.52,490.28
28.9651,506.02,492.42
28.9857,507.02,496.14
29.0061,507.21,501.91
29.0266,508.17,508.13
29.0471,509.54,514.9
29.0675,511.03,520.32
29.0922,512.62,525.06
29.1127,511.3,526.85
29.1332,511.64,526.08
29.1536,510.51,523.26
29.1742,509.01,518.81
29.1985,507.21,514.05
29.2191,505.17,506.84
29.2397,504.13,499.27
29.2602,503.31,494.22
29.2805,502.64,490.97
29.301,502.12,490.18
29.3255,502.89,492.34
29.346,503.71,495.67
29.3666,504.37,500.74
29.387,507.1,506.39
29.4075,508.68,513.31
29.4319,511.14,519.05
29.4525,512.51,523.64
29.473,512.61,526.71
29.4935,512.09,526.17
29.514,510.07,523.14
29.5345,509.46,519.91
29.5589,506.77,514.53
29.5796,504.21,508.22
29.6,502.57,501.38
29.6204,504.46,495.7
29.6409,503.76,492.56
29.6654,501.41,492.25
29.686,500.33,494.2
29.7065,499.86,497.16
29.727,501.29,501.93
29.7474,502.83,507.94
29.7679,504.67,513.95
29.7925,505.53,518.96
29.8131,506.83,522.77
29.8335,508.26,524.42
29.854,509.41,523.93
29.8745,508.53,521.75
29.8989,508.42,517.2
29.9194,508.74,511.16
29.9399,507.99,503.13
29.9604,506.39,496.3
29.9809,498.11,491.04
30.0015,485.69,487.83
30.0259,476.55,487.07
30.0464,471.84,488.85
30.067,469.67,491.68
30.0876,470.14,497.15
30.1079,472.71,503.32
30.1284,478.37,511.65
30.153,481.7,522.92
30.1734,484.16,538.94
30.1939,489.72,556.55
30.2144,486.58,567.84
30.2348,472.46,567.27
30.2594,453.17,558.62
30.2799,433.34,547.29
30.3005,416.47,534.84
30.321,402.18,522.87
30.3414,390.54,511.49
30.3619,383.83,500.8
30.3864,381.07,492.64
30.4069,381.85,490.11
30.4275,386.88,489.49
30.4479,395.31,490.99
30.4683,405.44,493.19
30.4929,415.76,495.75
30.5134,425.8,498.6
30.5339,435.44,500.68
30.5545,444.55,499.55
30.5749,451.24,498.04
30.5954,457.4,495.23
30.6199,463.92,491.58
30.6405,469.33,486.07
30.6608,474.07,480.25
30.6813,476.65,475.8
30.7018,480.92,472.44
30.7263,483.54,472.15
30.7469,486.83,472.52
30.7673,489.26,476.22
30.7879,491.41,482.97
30.8083,496.33,496.78
30.8287,498.26,518.22
30.8532,502.21,543.78
30.8738,516.37,558.22
30.8943,540.49,559.78
30.915,571.4,554.02
30.9353,604.72,544.82
30.9597,635.77,533.45
30.9803,660.82,522.16
31.0007,672.26,513.33
31.0213,671,504.26
31.0418,666.2,495.81
31.0623,656.76,488.85
31.0867,642.61,484.48
31.1074,629.09,482.38
31.1279,616.47,482.71
31.1483,603.18,485.57
31.1688,591.94,490.45
31.1892,582.55,496.56
31.2137,574.24,503.05
31.2343,567.79,509.84
31.2547,561.84,516.27
31.2752,556.87,519.82
31.2958,552.09,521.25
31.3203,549.48,520.6
31.3407,546.78,517.48
31.3614,541.82,512.19
31.3818,535.06,506.95
31.4022,530.45,501.16
31.4227,526.56,494.93
31.4472,523.65,489.94
31.4677,521.12,487.15
31.4882,519.09,486.52
31.5087,516.88,489.42
31.5292,516.7,493.73
31.5536,514.76,499.59
31.5742,507.41,506.47
31.5947,502.73,512.58
31.6152,501.18,517.86
31.6357,499.94,520.69
31.6561,499.36,521.15
31.6806,498.48,521.72
31.7011,497.59,521.18
31.7216,495.47,517.74
31.7422,496.38,511.79
31.7626,489.7,505.23
31.787,479.76,498.79
31.8076,472.81,494.03
31.8281,469.25,490.42
31.8486,469.4,489.94
31.8691,470.72,492.75
31.8896,471.97,497.4
31.914,474.98,503.32
31.9346,480.58,509.46
31.9551,485.27,515.77
31.9755,488.21,521.61
31.996,492.57,525.29
32.0205,495.26,527.03
32.0411,498.21,526.63
32.0616,500.56,522.9
32.082,500.45,517.52
32.1025,500.56,512.42
32.123,500.65,505.73
32.1476,501.32,499.39
32.1681,500.66,495.71
32.1885,500.52,493.97
32.2091,501.02,493.57
32.2295,502.22,496.06
32.25,502.57,500.45
32.2745,503.86,505.36
32.2951,503.89,512.29
32.3155,505.71,518.23
32.336,508.57,522.58
32.3565,509.85,525.87
32.381,511.28,525.69
32.4015,510.23,523.75
32.422,510.98,521.4
32.4425,510.78,515.72
32.4629,509.03,510.38
32.4834,507.02,504.3
32.508,504.42,497.04
32.5285,505.13,490.23
32.549,505.71,487.79
32.5695,505.97,488.23
32.59,505.57,490.38
32.6145,506.26,495.11
32.635,508.81,501.49
32.6555,513.25,508.39
32.6759,513.6,513.91
32.6964,511.68,518.33
32.7171,513.54,521.26
32.7414,516.63,522.81
32.7622,517.11,522.85
32.7826,515.29,520.08
32.803,514.23,516.06
32.8235,513.18,510.85
32.8479,514.15,505.08
32.8684,512.32,498.46
32.8889,509.45,493.57
32.9094,506.36,490.66
32.93,505.89,490.93
32.9504,505.31,493.14
32.9748,506.25,497.31
32.9955,507.4,503.45
33.016,509.12,511.36
33.0365,510.9,518.69
33.0569,513.52,524.35
33.0814,512.41,528.88
33.102,511.73,530.7
33.1224,510.18,528.76
33.1429,509.55,518.61
33.1634,510.04,506.29
33.1839,510.83,496.83
33.2084,517.06,488.66
33.2289,525.65,481.33
33.2494,530.52,475.47
33.2698,532.42,471.97
33.2904,533.13,472.18
33.3148,532.11,474.94
33.3354,531.49,480.95
33.356,530.19,487.56
33.3765,530.75,495.65
33.3969,530,503.92
33.4174,528.2,511.14
33.4419,526.56,516.31
33.4624,524.65,519.45
33.4829,522.92,520.16
33.5034,521.93,517.93
33.5239,517.95,513.94
33.5443,516.16,509.35
33.5689,513.93,506.08
33.5894,512.74,505.67
33.61,510.99,503.53
33.6304,505.99,502.23
33.6508,502.6,500.78
33.6753,500.28,500.62
33.6959,499.62,502.9
33.7163,499.3,505.32
33.7368,498.64,509.86
33.7573,498.51,515.68
33.7778,500.21,520.55
33.8022,501.97,522.44
33.8229,508.77,522.75
33.8433,513.62,521.8
33.8638,515.89,519.44
33.8843,517.52,517.75
33.9088,517.21,521.2
33.9293,516.97,526.36
33.95,513.78,542.29
33.9703,511.62,566.63
33.9908,509.7,589.51
34.0112,509.16,603.4
34.0358,506.93,603.12
34.0563,505.54,587.7
34.0767,505.43,564.76
34.0972,507.15,539.21
34.1177,512.12,513.77
34.1423,513.69,495.01
34.1627,512.15,480.81
34.1833,507.32,470.25
34.2037,504.66,462
34.2242,503.13,455.6
34.2447,502.1,450.28
34.2691,500.28,445.62
34.2898,498.83,442.5
34.3103,499.06,440
34.3307,500.05,438.8
34.3512,500.24,440.64
34.3757,498.59,443.11
34.3963,499.47,450.09
34.4168,500.78,458.27
34.4373,502.62,467.02
34.4577,503.3,476.61
34.4782,505.44,485.89
34.5026,508.35,494.91
34.5231,508.28,502.93
34.5437,509.42,508.94
34.5642,513.54,511.76
34.5846,518.43,511.4
34.6051,520.15,507.92
34.6297,520.52,503.74
34.6501,520.81,499.59
34.6707,519.05,5.60519e-43
34.6912,516.04,3.55232e-29
34.7117,513.63,5.60519e-43
