Program Time [s],data 0,data 1
4.24059,511.16,523.15
4.24061,510.13,518.52
4.24062,509.3,512.61
4.24063,506.44,505.69
4.24064,507.76,499.95
4.24065,509.2,496.76
4.24066,526.05,527.04
4.24067,512.76,525.43
4.24068,512.2,523.15
4.24199,511.16,518.52
4.242,510.13,512.61
4.24201,509.3,505.69
4.24202,506.44,499.95
4.24203,507.76,496.76
4.24204,509.2,527.04
4.24205,526.05,525.43
4.24206,512.76,523.15
4.24207,512.2,518.52
4.24208,511.16,512.61
4.24209,510.13,505.69
4.24211,509.3,499.95
4.24212,506.44,496.76
4.24213,507.76,515.8
4.24214,509.2,519.84
5.75864,513.4,523.47
5.77924,513.92,524.98
5.7997,512.14,523.98
5.82027,510.91,522.19
5.84067,510.93,518.15
5.86109,506.74,512.52
5.88568,494.39,504.02
5.90621,478.11,495.41
5.92665,460.49,488.73
5.94727,442.59,485.78
5.96759,426.87,487.23
5.99209,414.3,490.18
6.01262,404.24,496.15
6.03314,399.19,502.12
6.05366,399.35,511.89
6.07417,401.08,529.11
6.09459,403.47,554.49
6.11912,407.57,595.39
6.13961,411.06,640.11
6.16016,412.25,678.29
6.18057,416.2,700.83
6.2011,422.36,705.27
6.22561,429.89,693.21
6.24607,438.31,667.57
6.26659,448.45,626.46
6.28706,462.56,576.37
6.30758,481.85,522.09
6.32802,510.28,472.27
6.35254,545.82,434.42
6.37314,582.46,411.94
6.39361,617.77,402.15
6.41407,639.01,402.52
6.4345,648.01,407.61
6.45899,649.21,417.89
6.47954,645.17,425.91
6.50008,639.13,435.73
6.52052,627.51,443.58
6.54104,615.81,449.87
6.56148,604.24,452.89
6.58603,593,455.52
6.60654,580.8,456.61
6.62704,570.24,456.09
6.64751,560.99,456.27
6.66802,551.99,457.42
6.69252,546.59,461.53
6.71299,541.07,466.23
6.73358,536.66,472.58
6.75398,533.93,480.47
6.77448,531.94,489.37
6.79498,529.95,498.1
6.81947,527.36,506.48
6.84001,525.49,511.38
6.8606,522.79,515.11
6.88107,519.63,517.48
6.9015,517.91,516.59
6.92196,514.13,512.07
6.94656,510.5,507.86
6.96703,510,504.09
6.98752,509.2,498.67
7.00797,508.96,494.13
7.02843,508.97,490.71
7.05299,504.97,489.77
7.07344,503.98,491.01
7.094,505.58,496.21
7.11445,507.87,501.57
7.13491,510.09,507.65
7.15544,510.47,514.52
7.17994,512.78,520.62
7.20043,513.02,524.3
7.2209,512.42,526.24
7.24143,507.54,525.39
7.26185,496.43,523.51
7.28638,486.14,518.81
7.30691,480.31,513.45
7.3274,478.25,507.56
7.34787,478.4,502.05
7.36836,478.72,497.24
7.38889,480.58,493.39
7.41337,482.26,490.91
7.43391,484.61,492.13
7.45438,487.29,494.7
7.47489,493.83,499.56
7.49532,497.46,504.45
7.51981,499.77,509.56
7.54036,504.62,515.65
7.56089,506.69,519.52
7.58132,509.35,522.61
7.60184,510.08,522.69
7.6223,509.47,520.55
7.64685,509.17,517.64
7.66734,509.54,512.71
7.68786,507.83,508.17
7.7083,507.07,502.54
7.7288,505.85,497.43
7.75335,504.68,494.94
7.77388,505.35,495.16
7.79438,506.48,496.32
7.81481,508.38,499.86
7.83528,508.7,504.89
7.85579,508.76,510.91
7.88033,509.41,517.93
7.90089,510.93,523.74
7.92129,513.14,527.59
7.94183,511.11,529.88
7.9623,511.29,530.9
7.98277,510.23,529.12
8.00741,507.99,525.7
8.02786,507.39,519.56
8.0484,505.31,513.45
8.06887,506.05,506.56
8.08924,506.44,500.05
8.11381,505.55,495.44
8.13428,504.44,492.55
8.15476,505.95,494.44
8.17535,507.76,497.35
8.19584,508.01,501.68
8.21635,508.01,507.54
8.24079,509.61,513.24
8.26138,512.09,519.19
8.28179,510.87,522.55
8.30226,510.29,524.04
8.32276,510.44,526.43
8.34735,511.55,524.55
8.36773,512.44,520.44
8.38827,512.55,513.75
8.40874,509.84,507.2
8.42927,509.67,500.76
8.44975,510.34,495.41
8.47425,507.47,492.13
8.49473,506.18,492.7
8.51532,507.94,494.76
8.53568,508.15,496.61
8.55633,508.52,501.69
8.5807,514.82,506.75
8.60123,524.45,514
8.62176,530.56,521.4
8.6423,532.65,526.32
8.66266,535.92,530.06
8.68314,536.14,531.84
8.70766,532.51,531.48
8.72821,529.61,528.18
8.74867,524.89,523.94
8.76922,520.91,518.76
8.78961,516.73,512.4
8.8141,514.38,507.12
8.83471,513.11,503.1
8.85524,512.48,500.68
8.87564,512.79,500.94
8.89623,512.63,504.55
8.91658,512.1,508.04
8.94117,513.68,512.23
8.96163,515.35,516.79
8.98225,516.88,522.03
9.00261,515.1,524.82
9.02311,513.08,528.06
9.04359,511.47,527.45
9.0681,510.57,525.16
9.08889,507.26,524.73
9.10912,507.61,518.78
9.1296,508.68,511.62
9.15011,508.15,505.3
9.17457,508.72,505.64
9.19512,503.97,515.31
9.21562,489.38,529.65
9.23613,466.1,541.52
9.25665,440.68,548.82
9.27705,414.75,557.05
9.30158,396.6,564.64
9.32211,385.68,581.91
9.34259,378.74,614.53
9.3631,378.39,649.22
9.38353,378.52,673.18
9.40806,380.61,677.74
9.42858,385.89,665.4
9.44909,391.31,634.12
9.46961,397.05,591.09
9.49008,404.84,543.67
9.51052,415.87,499.34
9.53508,428.5,464.47
9.55563,446.2,440.78
9.57603,461.16,426.02
9.59653,471.73,421.62
9.61698,481.18,417.09
9.6415,485.75,412.68
9.66208,505.4,412.34
9.68254,538.92,416.07
9.70305,578.93,421.86
9.7235,611.55,432.09
9.74404,626.64,441.87
9.76856,635.31,448.5
9.78928,635.05,453.8
9.80959,631.04,458.04
9.83001,621.83,460.23
9.85048,613.26,461.18
9.87508,603.81,460.75
9.89549,593.25,459
9.91602,583.4,458.6
9.93657,573.12,459.48
9.95697,563.9,462.38
9.97778,558.12,465.91
10.0019,553.69,472.92
10.0226,549.15,481.14
10.043,542.72,490.31
10.0635,539.58,500.65
10.084,539.06,509.52
10.1045,539.85,514.62
10.129,539.88,518.29
10.1496,538.5,518.23
10.17,536.4,516.59
10.1905,533.72,512.47
10.211,530.58,507.98
10.2354,526.06,502.78
10.2559,523.45,497.62
10.2767,520.36,493.7
10.2972,518.89,490.96
10.3175,516.91,490.77
10.3379,517.93,492.21
10.3624,517.74,496.77
10.383,517.59,503.22
10.4035,515.28,508.37
10.4239,514.02,515.7
10.4444,515.42,520.76
10.4689,515.93,523.81
10.4894,515.55,524.85
10.5099,514.04,524.28
10.5304,513.63,522.02
10.5509,511.9,518.62
10.5713,511.92,514.09
10.5959,509.94,507.67
10.6165,509.55,500.74
10.6369,507.84,495.99
10.6574,509.87,492.99
10.6778,507.7,492.39
10.7025,509.76,493.52
10.7229,512.41,497.21
10.7435,511.33,502.97
10.7639,511.26,508.58
10.7844,513.21,514.26
10.8049,512.57,518.81
10.8294,511.05,521.65
10.8499,511.44,523.12
10.8706,510.15,522.69
10.8909,509.12,520.96
10.9113,509.7,516.16
10.9359,507.36,511.73
10.9564,506.49,505.59
10.9769,505.39,499.07
10.9974,506.91,493.85
11.0178,505.13,490.48
11.0383,505.5,488.19
11.0629,504.4,489.75
11.0833,504.52,493.8
11.1038,506.02,498.64
11.1243,507.61,504.11
11.1448,508.49,509.49
11.1653,508.99,515.79
11.1898,510.19,521.43
11.2104,509.96,522.95
11.2308,510.56,521.76
11.2515,502.25,518.81
11.2718,490.6,515.24
11.2962,484.28,510.8
11.3169,481.82,505.24
11.3373,480.26,500.19
11.3578,478.81,495.15
11.3783,479.05,492.72
11.3987,480.44,493.18
11.4233,483.95,493.74
11.4438,487.56,497.39
11.4643,489.85,502.71
11.4847,493.08,509.17
11.5053,497.06,515.54
11.5297,497.85,521.03
11.5502,500.48,525.42
11.5708,502.78,529.34
11.5913,505.83,530.27
11.6117,507.66,528.02
11.6322,507.33,523.41
11.6567,507.26,518.73
11.6773,508.61,513.18
11.6978,509.09,506.75
11.7182,508.27,501.6
11.7386,506.22,497.08
11.7631,513.37,496.46
11.7837,522.9,497.97
11.8042,528.72,501.58
11.8247,531.38,506.46
11.8452,532.3,510.97
11.8657,532.24,517.38
11.8901,530.99,522.1
11.9107,529.39,526.28
11.9312,528.71,528.22
11.9517,525.77,527.78
11.9722,523.22,525.62
11.9966,521.97,521.9
12.0172,518.78,517.32
12.0377,517.42,511.46
12.0581,520.74,504.76
12.0786,525.39,498.61
12.0991,528.11,494.09
12.1236,528.29,491.87
12.1441,527.03,492.7
12.1647,526.43,498.76
12.1852,523.94,512.01
12.2057,524.35,534.4
12.2262,515.08,557.32
12.2507,492.27,572.06
12.2713,463.21,578.25
12.2917,437.97,574.4
12.3121,413.38,565.92
12.3325,395.5,555.93
12.3571,382.8,544.35
12.3776,373.84,532.08
12.3981,371.07,517.06
12.4186,373.66,501.85
12.4391,379.33,490.48
12.4595,386.66,482.58
12.4841,396.73,478.07
12.5047,407.78,478.25
12.5251,420.03,482
12.5456,430.62,488.4
12.5661,439.5,500.32
12.5905,455,525.26
12.6111,482.6,540.21
12.6316,514.88,539.56
12.6521,548.9,530.65
12.6725,580.32,520.72
12.693,609.66,511.98
12.7176,626.73,503.78
12.7382,633.98,496.23
12.7585,633.38,487.98
12.7791,627.11,479.98
12.7996,619.69,474.39
12.8239,609.95,470.11
12.8445,599.56,470.09
12.8651,590.25,472.27
12.8855,582.4,475.62
12.906,574.72,480.89
12.9265,568.37,487.11
12.9511,561.1,494.89
12.9715,554.48,503.91
12.992,550.18,510.93
13.0125,553.15,515.54
13.0329,552.32,517.04
13.0574,548.45,515.03
13.078,542.56,511.62
13.0985,536.85,506.1
13.119,530.48,499.88
13.1395,524.18,495.3
13.1599,518.55,491.84
13.1846,513.04,488.27
13.2051,509.83,487.02
13.2254,506.26,489.42
13.246,504.81,491.93
13.2664,500.65,496.35
13.2869,499.52,503.48
13.3114,498.62,511.78
13.332,497.49,521.03
13.3526,496.39,531.22
13.373,495.92,538.98
13.3934,493.93,542.78
13.4179,493.15,542.02
13.4384,493.72,538.22
13.4589,495.37,532.38
13.4794,496.7,523.7
13.5,496.36,514.76
13.5203,498.89,506.81
13.5449,498.51,499.45
13.5655,494.61,494.56
13.5859,492.89,493.65
13.6064,491.51,494.52
13.6268,493.61,497.21
13.6513,495.49,500.77
13.6719,499.19,506.02
13.6924,499.15,512.41
13.713,500.32,517.73
13.7333,500.06,519.98
13.7538,502.05,521.19
13.7784,501.84,520.35
13.7992,501.27,518.48
13.8194,500.82,513.98
13.8398,501.25,511.79
13.8604,497.4,508.63
13.8848,481.92,506.3
13.9055,461.14,505.64
13.9259,436.91,505.91
13.9464,415.33,508.53
13.9668,400.66,518.23
13.9875,391.73,537.38
14.0118,387.18,580.9
14.0325,384.55,630.12
14.0529,383.84,677.3
14.0734,384.87,712.04
14.0939,387.7,735.43
14.1182,393.76,744.75
14.1388,404.01,737.6
14.1593,413,715.68
14.1798,423.4,679.94
14.2003,430.32,629.15
14.2209,437.26,573.72
14.2454,447.21,517.98
14.2658,460.57,466.98
14.2863,480.85,424.39
14.307,506.68,390.91
14.3273,542.35,370.13
14.3478,581.28,360.5
14.3723,617.02,361.4
14.3928,637.42,370.52
14.4133,646.93,383.02
14.4337,649.55,396.21
14.4543,645.84,408.97
14.4788,636.67,421.78
14.4992,624.94,431.42
14.5197,612.95,437.94
14.5403,600.16,440.55
14.5607,587.73,441.64
14.5811,580.78,441.71
14.6057,575.23,440.97
14.6263,571.18,441.98
14.6468,564.94,444.98
14.6672,559.56,449.58
14.6878,553.24,457.07
14.7122,547.6,466.05
14.7327,543.68,476.04
14.7533,538.14,486.43
14.7737,534.91,496.95
14.7942,531.13,505.96
14.8146,529.7,512.17
14.8392,526.56,516.33
14.8597,522.85,517.67
14.8802,521.48,516.13
14.9008,518.98,512.51
14.9212,516.79,508.61
14.9457,514.03,503.08
14.9662,513.42,497.87
14.9867,513.74,493.49
15.0072,513.39,490.6
15.0276,513.51,490.48
15.0481,513.61,492.58
15.0727,513.89,497.26
15.0931,514.51,503.01
15.1137,514.61,510.41
15.1342,515.29,518.53
15.1546,513.83,524.62
15.1791,512.66,528.1
15.1996,513.13,529.68
15.2201,511.1,530.94
15.2406,509.48,527.55
15.2611,508.79,522.44
15.2815,508.43,514.75
15.3061,507.94,506.8
15.3267,506.15,499.84
15.3471,505.32,494.07
15.3676,505.06,490.06
15.3882,505.65,488.85
15.4087,506.92,491.28
15.4332,507.53,496.22
15.4537,508.03,502.58
15.4741,509.62,509.46
15.4945,509.3,516.17
15.5151,509.04,523.14
15.5396,509.03,528.31
15.5602,506.42,531.05
15.5808,507.34,531.44
15.6011,506.87,527.95
15.6215,504.3,523.36
15.6422,504.64,517.89
15.6666,505.11,511.51
15.6873,505.49,504.41
15.7075,504.39,498.53
15.728,505.31,494.82
15.7485,505.05,493.66
15.773,506.64,494.73
15.7935,507.51,497.18
15.814,508.01,502.94
15.8345,508.41,511.16
15.8553,510.13,523.72
15.8755,509.1,536.98
15.9,499.88,545.38
15.9206,483.5,547.91
15.941,464.6,546.73
15.9615,453.28,542.98
15.982,446.43,538.18
16.0065,443.94,531.15
16.027,443.75,525.32
16.0475,443.6,520.85
16.068,437.68,518.48
16.0885,425.15,514.79
16.109,412.32,512.23
16.1334,404.85,513.98
16.1539,400.48,525.19
16.1745,399.59,555.55
16.195,400.47,601.64
16.2154,398.58,646.51
16.24,403.86,683.61
16.2606,408.09,708.89
16.281,412.47,711.91
16.3014,416.18,693.13
16.322,422.34,656.5
16.3424,427.67,610
16.367,435.74,558.8
16.3874,445.39,507.24
16.408,455.31,462.39
16.4286,468.85,431.71
16.449,485.48,411.17
16.4693,497.18,401.14
16.4939,505.55,400.31
16.5145,511.24,405.25
16.5349,513.79,410.4
16.5554,514.23,413.72
16.5759,525.99,415.77
16.6004,551.19,420.42
16.621,583.55,427.34
16.6415,614.84,437.27
16.6619,630.47,444.61
16.6823,637.78,448.29
16.7028,636.22,451.63
16.7275,630.78,453.71
16.7479,624.02,453.57
16.7684,614.02,452.05
16.7889,604.01,451.04
16.8094,594.01,452.83
16.8338,585.61,455.27
16.8544,579.49,461.21
16.8749,574.79,468.97
16.8953,574.83,478.38
16.9158,573.27,489.1
16.9364,569.41,499.28
16.9608,564.53,508.42
16.9814,558.82,515.54
17.0018,551.26,520.83
17.0224,546.21,524.47
17.0429,540.77,524.37
17.0674,537.41,521.1
17.0879,533.33,516.48
17.1083,528.46,510.38
17.1289,524.17,503.51
17.1493,522.54,497.2
17.1697,519.43,492.76
17.1943,517.94,490.41
17.2148,518.56,490.53
17.2353,518.24,493.62
17.2558,519,499.5
17.2764,518.6,506
17.3007,517.88,513.2
17.3212,517.7,519.96
17.3419,515.16,525.37
17.3622,514.33,528.69
17.3828,514.06,530.16
17.4033,512.45,528.12
17.4277,509.56,523.7
17.4483,507.05,518.76
17.4688,505.44,511.81
17.4893,504.35,504.65
17.5098,504.48,497.52
17.5304,503.58,492.21
17.5548,503.67,490.37
17.5753,503.53,490.1
17.5959,504.03,493.08
17.6162,505.82,497.06
17.6368,507.46,503.45
17.6612,506.17,510.96
17.6818,507.33,518.17
17.7023,508.07,523.73
17.7228,507.25,527.19
17.7432,507.2,528.55
17.7637,506.76,528.84
17.7882,504.81,525.47
17.8088,507.65,519.78
17.8293,506.52,512.62
17.8497,504.61,505.5
17.8701,506.49,498.8
17.8947,505.19,493.24
17.9153,506.35,489.79
17.9357,506.08,489.23
17.9562,507.47,491.39
17.9766,508.57,495.51
17.9972,509.66,501.41
18.0216,510.93,508.53
18.0422,511.54,515.22
18.0627,512.43,520.78
18.0832,511.75,525.62
18.1037,510.8,527.7
18.1281,508.64,527.56
18.1486,505.91,524.85
18.1692,504.93,519.28
18.1896,508.14,511.82
18.2101,508.31,504.26
18.2307,507.05,497.01
18.2551,504.84,492.4
18.2756,506.87,490.12
18.2962,508.9,489.5
18.3167,509.92,491.8
18.3371,510.53,496.84
18.3616,510.23,502.27
18.382,510.38,508.82
18.4026,511.31,515.65
18.4232,511.04,521.72
18.4436,509.24,525.98
18.4641,508.99,527.98
18.4885,506.59,527.19
18.5092,506.87,523.15
18.5296,504.9,517.92
18.5501,503.72,511.94
18.5706,504.37,505.35
18.5912,504.3,498.88
18.6157,504.04,493.3
18.6362,504.03,490.24
18.6567,505.03,489.79
18.677,505.62,491.64
18.6976,505.7,499.51
18.7221,506.16,511.01
18.7425,506.93,521.81
18.763,498.34,532.44
18.7835,484.47,540.16
18.8041,464.58,543.32
18.8245,442.46,545.66
18.849,421.37,544.53
18.8697,404.7,541.42
18.8901,390.96,535.14
18.9106,381.77,526.51
18.931,378.81,515.81
18.9556,377.65,505.45
18.9761,383.72,497.16
18.9966,391.98,492.13
19.017,403.38,492.9
19.0374,413.9,501.72
19.0581,423.32,511.78
19.0824,431.26,533.02
19.103,438.01,575.82
19.1235,443.81,623.25
19.1439,445.04,663.6
19.1645,449.04,692.48
19.1891,455.03,702.19
19.2094,465.42,693.35
19.23,475.34,661.08
19.2504,492.87,610.26
19.271,518.5,551.01
19.2915,547.2,493.81
19.3159,581.16,448.85
19.3365,612.53,420.08
19.3569,630.82,403.46
19.3774,639.06,396.17
19.3981,638.45,394.94
19.4223,634.56,400.35
19.4429,629.65,411.08
19.4634,621.12,423.66
19.484,612.89,436.93
19.5045,602.51,449.34
19.5248,592.41,461.48
19.5494,581.73,471.18
19.57,573.18,476.74
19.5905,563.35,480.8
19.6109,558.48,480.84
19.6314,554.58,480.07
19.6519,551.87,477.66
19.6763,548.49,474.32
19.6968,543.59,471.26
19.7173,540.08,470.61
19.7379,537.46,472.09
19.7584,535.17,475.27
19.7828,532.33,481.42
19.8034,530.07,489.53
19.8238,528.85,498.03
19.8444,527.08,507.62
19.8648,525.87,515.5
19.8853,523.69,520.6
19.9098,521.95,523.68
19.9303,519.96,524.94
19.9509,517.57,523.55
19.9714,515.86,519.04
19.9918,513.09,513.83
20.0163,511.07,507.07
20.0369,510.45,499.65
20.0574,509.96,493.12
20.0778,509.77,488.7
20.0984,509.42,486.36
20.1188,509.93,487.49
20.1433,510.75,491.99
20.1638,511.2,498.99
20.1843,511.56,506.59
20.2048,511.25,514.07
20.2253,511.2,520.66
20.2497,510.36,526.13
20.2703,509.49,529.1
20.2907,508.79,530.08
20.3113,508.63,528.07
20.3318,509.1,525.05
20.3522,507.68,520.64
20.3767,507.35,513.51
20.3972,498.88,506.21
20.4178,488.9,499.77
20.4383,483.72,495.21
20.4587,480.18,491.37
20.4833,479.74,491.1
20.5037,478.59,494.08
20.5243,481.47,499.46
20.5447,484.38,506.57
20.5652,487.1,513.66
20.5857,489.08,520.52
20.6101,490.87,526.02
20.6307,493.29,529.22
20.6513,496.23,530.37
20.6717,506.99,528.1
20.6922,514.59,523.48
20.7127,518.67,517.38
20.7373,520.74,510.51
20.7577,522.19,503.01
20.7783,522.75,495.8
20.7987,521.4,490.44
20.8191,520.72,487.75
20.8437,521.58,487.8
20.8642,524.66,490.44
20.8847,523.53,495.35
20.9051,523.42,501.48
20.9257,520.94,509.39
20.9463,521.15,517.71
20.9706,521.12,523.17
20.9912,519.9,526.53
21.0117,516.52,526.83
21.0322,514.21,525.46
21.0528,512.77,521.97
21.0771,510.42,515.78
21.0976,509.53,508.42
21.1181,507.83,500.74
21.1386,506.86,493.99
21.1591,506.69,489.99
21.1795,505.15,488.19
21.2041,506.92,490.75
21.2247,508.14,497.4
21.2451,504.71,506.12
21.2656,492.37,517.3
21.2861,471.29,528.04
21.3105,448.44,538.03
21.3311,428.35,550.22
21.3517,408.48,566.18
21.3721,393.78,597.34
21.3926,382.03,634.68
21.413,373.22,667.34
21.4377,369.98,681.47
21.4581,369.78,674.38
21.4786,372.63,647.1
21.4991,378.3,606.68
21.5195,386.84,559.95
21.54,398.07,516.16
21.5645,414.26,478.93
21.5851,432.21,454.14
21.6057,452.16,441.11
21.626,467.53,437.09
21.6465,479.43,438.67
21.671,487.54,444.54
21.6915,493.23,451.63
21.712,498.39,458.3
21.7325,502.91,465.44
21.7531,503.53,470.55
21.7735,502.42,474.04
21.798,502.54,472.83
21.8185,501.63,471.27
21.8391,503.5,468.01
21.8596,509.2,463.41
21.8799,529.96,459.33
21.9045,558.57,458.66
21.925,591.86,458.73
21.9456,618.28,462.58
21.9661,630.83,469.47
21.9865,634.66,477.77
22.0069,634.93,486.02
22.0315,630.14,495.42
22.052,621.12,502.73
22.0725,611.89,507.79
22.0931,603.11,510.23
22.1134,593.29,511.78
22.1379,584.63,509.23
22.1584,581.51,506.38
22.179,576.21,501.1
22.1995,570.76,494.28
22.2199,564.61,487.83
22.2404,557.49,483.06
22.2649,552.79,481.05
22.2855,548.03,480.84
22.306,543.83,483.27
22.3265,541.06,488.82
22.347,537.85,495.45
22.3714,534.88,502.76
22.3919,532.9,511.21
22.4124,529.32,518.57
22.433,526.66,524.45
22.4534,523.33,527.76
22.4739,521.46,528.01
22.4984,518.97,525.41
22.5191,516.58,520.53
22.5395,514.46,514.22
22.5599,511.77,507.38
22.5804,511.81,501.1
22.6049,511.85,495.28
22.6253,511.88,492.83
22.6459,512.51,491.66
22.6664,513.4,493.13
22.6868,514.12,498.1
22.7073,514.7,504.08
22.732,515.36,511.67
22.7525,515.49,518.73
22.7729,514.79,525.39
22.7933,513.83,530.11
22.8139,511.67,532.09
22.8343,512.33,531.87
22.8589,510.27,527.7
22.8794,508.21,522.36
22.8998,506.37,516.09
22.9203,506.3,507.67
22.9409,508.04,499.33
22.9654,506.23,492.47
22.9858,505.38,487.97
23.0064,506.91,486.58
23.0269,508.13,487.86
23.0473,506.9,491.49
23.0677,508.32,497.39
23.0922,507.06,504.91
23.1129,508.85,512.73
23.1333,509.68,520.19
23.1538,509.74,524.95
23.1743,507.79,527.76
23.1989,506.83,529.41
23.2193,506.07,527.13
23.2398,504.85,522.3
23.2604,504.48,515.84
23.2808,503.79,508.67
23.3014,503.43,501.74
23.3257,502.94,495.79
23.3463,502.95,491.83
23.3667,503.96,489.67
23.3873,504.77,490.53
23.4077,506.62,495.43
23.4323,509.29,501.34
23.4527,508.83,508.87
23.4733,508.07,515.1
23.4938,509.65,523.08
23.5142,509.12,527.66
23.5347,509.3,530.13
23.5592,507.84,529.9
23.5799,507.67,527.72
23.6002,508.34,522.98
23.6207,506.07,517.18
23.6412,506.06,509.75
23.6618,506.64,502
23.6861,506.72,495
23.7068,507.37,491
23.7273,508.3,489.4
23.7476,509.64,490.52
23.7681,509.91,493.62
23.7926,509.73,500.09
23.8132,510.58,506.87
23.8337,511.47,514.1
23.8542,509.57,520.88
23.8747,509.66,526.9
23.8953,507.33,528.92
23.9197,505.66,529.54
23.9402,506.13,527.43
23.9607,504.9,522.74
23.9811,504.32,516.4
24.0016,504.06,508.32
24.0261,503.85,499.25
24.0466,503.48,493
24.0672,502.58,493.2
24.0877,501.27,499.16
24.1082,489.81,506.53
24.1285,469.65,513.42
24.153,446.12,520.14
24.1737,422.5,526.51
24.1941,404.4,530.81
24.2146,390.12,533.05
24.2351,380.09,534.44
24.2596,376.68,534.55
24.2801,378.94,533.84
24.3009,384.75,530.67
24.3211,392.8,525.54
24.35,403.04,519.03
24.3621,413.03,511.62
24.3865,422.03,503.3
24.4071,432.02,495.84
24.4276,441.22,491.07
24.4481,449.37,489.26
24.4685,457.9,495.01
24.489,462.92,510.6
24.5135,469.14,530.48
24.534,471.51,550.79
24.5545,483.81,558.23
24.575,504.65,557.18
24.5956,531.52,549.35
24.6201,563.01,540.08
24.6406,595.01,531.26
24.6611,620.01,522.01
24.6815,630.01,512.21
24.7021,633.01,503.77
24.7224,630.2,494.81
24.7471,623.16,486.05
24.7675,614.33,478.44
24.7881,606.06,472.35
24.8085,598.25,470.48
24.8289,591.4,470.19
24.8534,582.92,474.55
24.874,576.54,480.44
24.8946,572.43,488.15
24.9151,568.54,495.72
24.9354,563.43,503.78
24.956,557.35,511.42
24.9805,550.88,517.14
25.001,544.5,520.11
25.0215,538.8,519.69
25.042,536.24,516.55
25.0625,533.79,511.44
25.087,528.43,505.75
25.1075,522.75,499.6
25.128,519.8,492.88
25.1485,521.64,487.51
25.1689,520.71,485
25.1894,517.17,484.6
25.214,516.13,487.08
25.2345,516.11,493.47
25.2551,515.69,499.77
25.2754,514.95,507.42
25.2959,513.76,514.73
25.3205,512.81,520.99
25.341,512.65,524.99
25.3615,511.32,527.19
25.382,509.65,527.35
25.4025,506.72,524.08
25.4229,506.38,519.27
25.4473,504.9,513.21
25.4679,504.32,504.97
25.4884,503.06,497.18
25.5088,503.85,490.94
25.5295,504.28,487.35
25.5539,505.42,486.88
25.5745,506.54,489.51
25.595,506.63,494.2
25.6154,506.5,500.36
25.6359,508.2,507.09
25.6564,512.16,514.87
25.6808,510.73,522.1
25.7013,509.18,526.28
25.7218,505.95,529.02
25.7423,505.16,530.42
25.7629,505.73,531.53
25.7834,503.98,532.83
25.8079,502.58,530.86
25.8284,501.87,527.29
25.8488,499.09,525.03
25.8693,488.28,521.03
25.8899,470.22,515.82
25.9144,447.58,510.06
25.9348,424.06,507.25
25.9556,406.25,508.6
25.976,392.6,514.48
25.9964,382.88,523.38
26.0167,377.1,534.11
26.0413,375.88,570.28
26.0618,375.11,613.43
26.0823,374.08,659.34
26.1028,376.27,698.67
26.1233,382.61,721.74
26.1477,392.29,725.99
26.1684,399.83,712.19
26.1887,408.07,683.55
26.2093,420.25,646.84
26.2298,434,602.87
26.2503,448.6,554.3
26.2749,466.08,504.24
26.2953,482.27,459.59
26.3158,503.81,424.07
26.3364,533.05,399.86
26.3567,562.64,389.69
26.3811,593.11,388.95
26.4017,612.89,395.56
26.4223,622.11,404.45
26.4427,622.69,414.56
26.4632,620.75,424.05
26.4837,615.6,431.24
26.5082,606.48,436.39
26.5288,596.98,440.71
26.5493,588.79,441.77
26.5696,580.23,441.82
26.5902,567.38,441.85
26.6106,549.71,443.88
26.6352,534.97,447.51
26.6557,526.37,453.4
26.6761,521.1,461.12
26.6966,516.28,471.1
26.7171,512.22,481.68
26.7416,510.38,492.34
26.7622,509.5,502.27
26.7826,510.6,509.82
26.8032,508.48,515.66
26.8237,505.39,519.12
26.8441,505.51,519.1
26.8686,504.01,517.48
26.8892,503.81,512.98
26.9096,500.24,506.79
26.9302,507.4,500.43
26.9506,511.92,494.94
26.9751,513.53,490.56
26.9956,517.83,487.84
27.0161,520.66,487.28
27.0367,521.73,490.22
27.0571,521.58,496.18
27.0777,521.07,503.74
27.1021,520.85,512.19
27.1227,519.68,518.75
27.1431,517.55,524.4
27.1636,516.04,527.92
27.1841,513.43,529.94
27.2085,512.54,528.35
27.2291,513.03,524.68
27.2495,512.43,519.14
27.2701,510.54,512.52
27.2906,511.43,504.81
27.3112,510.15,497.05
27.3356,509.12,492.44
27.3561,509.09,490.55
27.3766,508.88,490.84
27.397,509.3,494.27
27.4175,510.64,499.42
27.442,509.11,505.73
27.4626,509.09,512.99
27.4831,507.47,519.59
27.5036,506.38,524.87
27.524,506.5,528.7
27.5444,506,530.76
27.569,503.8,530.21
27.5895,503.44,526.77
27.61,503.95,521.01
27.6305,503.16,514.61
27.6509,502.73,507.09
27.6715,503.18,499.67
27.696,505.15,493.94
27.7165,506.92,490.95
27.737,507.53,490.16
27.7576,509.03,492.73
27.7781,510.82,496.98
27.8024,510.06,503.59
27.823,510.85,510.47
27.8436,511.08,518.37
27.864,512.06,524.3
27.8845,511.05,527.84
27.9049,511.24,530.47
27.9294,509.99,530.38
27.95,510.39,527.3
27.9706,508.51,522.24
27.9909,507.81,515.39
28.0114,507.65,507.31
28.0359,505.92,499.25
28.0564,507.14,493.8
28.077,507.51,489.84
28.0975,506.61,489.47
28.1179,508.49,491.38
28.1383,510.19,493.5
28.1629,510.35,492.4
28.1835,516.28,494.72
28.204,526.02,499.58
28.2244,533.02,504.86
28.2449,537.22,508.89
28.2694,540.17,511.91
28.2901,538.14,512.53
28.3104,535.31,511.22
28.3309,532.05,508.18
28.3514,531.04,503.54
28.3718,527.43,497.63
28.3964,523.94,492.11
28.4222,521.56,487.29
28.4375,519.24,488.43
28.4578,519.4,500.14
28.4783,516.12,527.71
28.5028,518.09,553.17
28.5233,525.67,565.94
28.5439,533.34,566.15
28.5644,535.07,559.92
28.5848,533.06,551.74
28.6053,529.45,541.59
28.6298,524.56,530.07
28.6503,523.05,520.26
28.6708,520.64,511.01
28.6914,518.11,503.8
28.7118,512.89,495.04
28.7322,509.71,486.43
28.7568,507.77,477.95
28.7773,507.01,470.16
28.7978,504.21,465.73
28.8183,504.57,464.78
28.8388,505.86,468.23
28.8634,503.68,473.38
28.8838,505.95,481.1
28.9044,506.76,487.48
28.9248,509.21,495.79
28.9453,509.97,503.43
28.9657,510.37,508.94
28.9903,511.1,512.15
29.0108,510.68,513.52
29.0313,510.34,514.02
29.0517,508.27,511.62
29.0724,509.42,508.89
29.0967,507.54,504.31
29.1172,506.83,499.45
29.1377,505.26,494.36
29.1583,505.41,492.89
29.1788,507.73,494.71
29.1993,508.38,499.17
29.2237,509.51,498.54
29.2445,511,501.23
29.2648,514.8,506.98
29.2854,518.24,512.59
29.3058,518.59,518.67
29.3303,520.08,524.94
29.3509,519.06,530.55
29.3714,519.45,537.44
29.3918,521.76,545.95
29.4123,520.01,561.76
29.4327,517.61,607.01
29.4573,507.28,657.01
29.4778,484.63,700.61
29.4983,454.7,727.88
29.5188,424.36,739.71
29.5392,394.29,741.37
29.5638,373.83,733.69
29.5843,362.07,717.55
29.6049,357.45,693.44
29.6253,357.56,660.95
29.6458,363.45,620.36
29.6662,368.56,575.49
29.6907,378.45,533.79
29.7112,390.36,496.43
29.732,402.49,462.75
29.7523,412.79,435.8
29.7728,420.23,414.24
29.7974,431.79,398.59
29.8177,443.63,388.87
29.8384,454.1,383.1
29.8588,461.08,380.68
29.8793,468.07,384.14
29.8996,475.85,388.71
29.9242,481.28,396.37
29.9447,484.83,409.1
29.9653,489.86,431.08
29.9856,490.89,481.46
30.0061,492.11,545.97
30.0265,491.29,612.18
30.0513,498.43,668.54
30.0717,510.14,693.83
30.0922,528.72,686.87
30.1127,552.17,648.89
30.1331,578.74,587.51
30.1577,603.39,519.61
30.1781,623.51,464.89
30.1987,641.81,424.51
30.2191,648.25,396.61
30.2396,646.8,380.49
30.2602,640.04,372.79
30.2846,631.03,371.83
30.3052,619.02,375.87
30.3256,607.22,386.49
30.3461,596.18,398.99
30.3667,585.34,413.4
30.3912,576.67,428.52
30.4117,567.34,441.61
30.4322,558.27,451.89
30.4527,549.62,459.51
30.4731,541.29,465.61
30.4935,534.43,469.09
30.518,528.75,469.27
30.5385,524.2,468.02
30.5591,520.16,466.81
30.5795,517.53,464.65
30.6001,513.42,462.72
30.6245,512.34,461.98
30.6451,510.07,462.98
30.6655,510.06,466.78
30.6861,512.24,473.63
30.7065,516.8,479.9
30.7271,517.24,487.72
30.7516,517.79,495.98
30.7722,518.63,503.98
30.7925,518.51,510.59
30.813,516,521.47
30.8336,511.4,534.57
30.8541,495.92,541.86
30.8785,472.54,542.09
30.8991,447.03,537.47
30.9194,421.62,532.18
30.94,403.5,525.74
30.9604,391,519.99
30.985,386.4,515.19
31.0057,386.92,511.36
31.0261,392.74,510.08
31.0466,402.19,512.07
31.067,411.75,516.25
31.0875,422.6,522.4
31.1121,432.28,530.92
31.1326,440.62,540.14
31.153,443.1,552.11
31.1735,446.68,568.49
31.1941,448.34,599.99
31.2183,446.88,636.99
31.239,446.5,673.19
31.2594,448.8,701.76
31.2799,454.24,721.4
31.3005,460.79,734.72
31.3209,468.63,744.98
31.3454,478.71,752.38
31.3659,491.77,755.91
31.3863,512.01,748.33
31.4069,538.61,726.06
31.4273,564.29,691.25
31.4519,586.43,642.8
31.4724,601.74,579.44
31.4929,613.2,508.15
31.5133,621.36,440.32
31.5338,624.89,389.86
31.5543,628.11,359.69
31.5788,626.89,342.55
31.5993,621.31,334.44
31.6198,612.25,331.35
31.6403,603.6,332.48
31.6608,595.08,335.58
31.6853,586.46,341.67
31.7058,578.37,350.73
31.7263,569.3,361.19
31.7468,561.44,373.95
31.7673,556.55,389.76
31.7878,551.04,406.61
31.8123,546.03,422.69
31.8328,541.43,438.55
31.8533,536.94,453.04
31.8738,533.55,465.43
31.8943,531.04,475.55
31.9147,526.03,480.04
31.9392,522.83,478.03
31.9598,520.26,475.42
31.9803,504.41,472.34
32.0008,491.93,468.87
32.0213,482.74,464.5
32.0457,477.79,461.4
32.0662,476.03,460.12
32.0867,476.03,461.09
32.1073,479.22,463.28
32.1277,481.38,469.22
32.1482,484.7,477.18
32.1727,488.36,486.34
32.1933,491.49,496.07
32.2138,493.59,505.06
32.2342,495.87,513.25
32.2547,497.9,517.6
32.2792,500.72,521.48
32.2997,501.78,522.18
32.3203,502.02,519.55
32.3408,501.82,515.64
32.3612,502.05,509.31
32.3816,501.84,502.65
32.4061,502.87,495.52
32.4268,502.9,489.81
32.4471,502.92,486.05
32.4677,503.94,485.04
32.4881,505.15,487.23
32.5126,507.92,492.39
32.5334,507.73,498.31
32.5537,509.59,505.65
32.5743,510.67,512.92
32.5947,511.14,518.73
32.6151,510.91,523.39
32.6396,510.93,527.31
32.6601,511.14,529.05
32.6806,508.91,529.44
32.7011,508.53,528.15
32.7216,508.62,524.92
32.742,507.7,518.54
32.7666,507.56,511.83
32.7871,506.65,505.86
32.8076,505.52,501.49
32.8281,505.41,498.99
32.8486,505.73,498.99
32.8732,507.19,502.2
32.8936,506.95,508.16
32.9142,507.16,513.72
32.9346,507.13,520.58
32.9553,507.1,526.06
32.9756,507.28,531.25
33.0001,508.23,540.4
33.0207,506.18,545.72
33.0411,498.14,544.58
33.0616,490.12,540.46
33.0822,485.09,532.97
33.1065,482.27,524.18
33.1271,480.62,514.14
33.1476,480.7,505.51
33.168,480.56,499.01
33.1885,481.24,495.21
33.2091,484.2,493.77
33.2335,486.76,496.01
33.2541,489.41,500.21
33.2747,493.92,507.37
33.2951,496.94,519.29
33.3157,497.55,549.64
33.3401,497.44,590.11
33.3606,486.15,630.49
33.3811,465.92,671.59
33.4015,444.74,700.07
33.422,428.59,730.46
33.4427,414.27,744.97
33.4671,405.22,748.97
33.4876,401.37,745.58
33.5082,403.3,732.46
33.5286,411.24,710.37
33.549,422.19,680.5
33.5735,436.95,645.4
33.5941,451.16,607.12
33.6145,461.93,564.09
33.635,469.94,518.28
33.6556,481.16,471.42
33.6759,497.32,426.34
33.7005,519.46,385.27
33.7209,548.97,354.62
33.7415,579.77,340.89
33.7619,603.62,336.51
33.7824,615.1,336.81
33.8029,618.08,341.45
33.8275,616.66,348.16
33.8481,611.73,355.33
33.8685,605.18,363.86
33.889,596.55,371.09
33.9094,588.04,376.47
33.934,578.23,385.38
33.9545,560.78,397.9
33.9749,548.23,412.52
33.9955,538.98,429.22
34.0159,533.99,445.77
34.0364,529.79,461.82
34.0609,525.83,474.06
34.0815,521.66,485.04
34.102,517.53,493.24
34.1223,514.83,497.59
34.1429,513.26,498.67
34.1674,510.61,497.74
34.1879,509.49,495.19
34.2085,508.59,491.75
34.2289,506.27,487
34.2493,505.62,483.4
34.2699,507.09,481.52
34.2943,507.47,482.82
34.3149,510.18,487.85
34.3353,511.14,493.48
34.3558,513.72,499.59
34.3763,513.97,507.47
34.4009,513.58,515.78
34.4213,514.46,522.62
34.4418,514.37,527.3
34.4624,514.1,529.64
34.4828,513.48,529.71
34.5033,510.98,527.97
34.5278,509.39,522.77
34.5483,508.31,516.62
34.5688,508.05,510.1
34.5893,507.24,503.28
34.6099,506.59,497.22
34.6343,506.07,492.78
34.6548,505.86,491.22
34.6753,506.69,492.18
34.6958,508.35,497.34
34.7164,510.68,504.27
34.7368,512.14,510.62
34.7614,513.11,517.7
34.7818,512.29,525.16
34.8023,510.23,529.92
34.8228,510.99,532.54
34.8432,513.19,531.83
34.8637,514.95,528.67
34.8882,514.56,523.33
34.9088,513.85,517.47
34.9294,512.28,509.37
34.9497,513.82,501.3
34.9703,514.26,495.64
34.9947,511.41,492.51
35.0152,512.33,491.01
35.0358,512.66,491.41
35.0564,514.33,495.13
35.0768,516.66,500.9
35.0973,518.53,508.52
35.1218,520.42,515.42
35.1423,520.94,521.73
35.1627,522.35,526.39
35.1832,522.68,528.91
35.2036,521.34,528.93
35.2282,519.08,526.34
35.2487,516.46,522.07
35.2693,514.97,515.86
35.2897,515.17,508.49
35.3102,514.94,500.79
35.3307,512.15,495.03
35.3552,511.12,490.43
35.3757,511.9,488.74
35.3962,512.32,489.79
35.4167,512.65,493.43
35.4372,513.92,498.75
35.4617,512.74,506.2
35.4822,513.59,513.16
35.5027,513.67,519.93
35.5232,513.54,524.54
35.5437,513.03,527.43
35.5642,513.82,527.75
35.5889,514.66,525.8
35.6092,514.13,521.44
35.6296,512.3,515.75
35.6503,510.44,508.8
35.6708,510.35,501.04
35.6951,510.88,6.10883e-40
35.7156,509.91,6.74025e-43
