Program Time [s],data 0,data 1
3.05348,501.06,513.67
3.05349,508.67,516.74
3.0535,508.09,526.79
3.05351,507.87,529.63
3.05352,508.7,530.71
3.05354,505.96,529.36
3.05355,503.16,526.49
3.05356,503.53,520.59
3.05357,501.83,513.67
3.05358,501.06,508.4
4.57122,511.4,502.32
4.59175,511.72,496.06
4.61225,509.58,489.04
4.63273,508.86,484.04
4.6532,509.69,482.83
4.67371,507.95,483.66
4.69826,506.96,487.73
4.71882,508.57,493.78
4.73931,507.45,501.23
4.75976,508.76,509.98
4.78026,508.81,518.99
4.80475,509.05,527.19
4.82536,507.04,532.35
4.84581,506.63,533.48
4.86627,507.11,530.78
4.88669,506.28,527.43
4.90729,506.63,521.34
4.93168,505.9,513.47
4.95237,506.12,504.98
4.9727,506.7,496.98
4.99322,505.96,490.79
5.01367,505.57,486.43
5.03817,505.85,484.74
5.05875,507.68,488.39
5.07929,509.15,495.12
5.0997,511.12,502.69
5.12012,511.09,510.55
5.14062,510.47,520.24
5.16511,512.18,525.59
5.18567,512.34,530.28
5.20615,510.28,532.62
5.22667,508.02,532.9
5.24709,506.62,531.32
5.27165,505.09,527.05
5.29213,514.27,521.44
5.31272,526.62,514.15
5.33312,533.5,506.32
5.35369,538.2,498.26
5.37407,541.56,491.61
5.39867,544.45,487.89
5.4192,544.36,487.91
5.43969,541.89,492.73
5.46009,540.91,498.18
5.48057,539.53,504.55
5.50503,536.22,513.04
5.52559,532.18,521.23
5.5461,528.94,526.58
5.56666,526.55,529.87
5.58704,524.84,529.69
5.60763,521.27,526.55
5.63209,516.42,521.04
5.65261,515.54,514.03
5.67308,515.23,504.63
5.69358,514.18,495.9
5.71408,513.75,490.52
5.73456,513.4,486.22
5.75904,513.52,484.37
5.77971,512.81,486.9
5.80007,514.05,491.92
5.82053,513.84,499.14
5.84103,512.67,506.91
5.86554,513.14,515.73
5.88609,513.71,522.18
5.90657,511.57,527.35
5.92708,510.65,530.68
5.94754,508.32,531.14
5.96798,506.46,527.11
5.99254,504.57,521.09
6.01309,504.45,518.67
6.03358,499.36,525.14
6.05399,483.69,534.51
6.07447,459.55,536.61
6.09896,435.84,534.09
6.1195,414.27,528.47
6.14002,395.62,521.58
6.1605,383.1,518.86
6.18107,378.68,517.89
6.20148,378.94,520.71
6.22605,383.75,524.97
6.24655,390.6,528.17
6.26695,399.08,531.54
6.28749,408.87,533.03
6.30798,416.89,535.63
6.33244,431.51,534.5
6.35295,457.61,524.6
6.37345,493.49,506.68
6.39393,529.79,488.54
6.4144,558.43,473.64
6.4349,576.35,462.11
6.45954,586.48,456.29
6.47995,590.58,453.83
6.50046,590.87,456.46
6.52089,590.09,463.77
6.54145,586.67,472.02
6.5659,580.14,481.81
6.58654,572.91,493.45
6.60691,564.93,502.76
6.62739,561.14,512.21
6.64787,554.71,517.77
6.66835,548.77,520.61
6.69286,544.62,519.29
6.7134,538.89,515.83
6.734,533.32,510.27
6.75447,534.05,502.61
6.77494,533.24,493.89
6.79943,532.99,486.11
6.82001,532.59,481.09
6.84053,531.08,479.27
6.86099,527.46,480.42
6.88144,526.57,484.33
6.90194,526.85,490.87
6.92637,526.48,499.29
6.94709,524.99,507.64
6.96743,522.99,516.51
6.98803,520.99,523.41
7.00835,518.79,527.53
7.02896,518.23,529.62
7.05334,515.19,529.7
7.07393,516.15,525.96
7.0945,514.72,521.17
7.11484,512.18,513.93
7.13532,509.74,505.95
7.15982,511.19,495.56
7.18038,509.35,488.45
7.20086,508.68,484.76
7.2214,510.35,484.01
7.24183,511.48,488.2
7.26234,512.98,494.56
7.28682,513.19,502.25
7.30734,514.95,510.4
7.32788,515.36,520.12
7.34833,514.29,528.1
7.3688,514.23,532.08
7.39328,510.98,532.06
7.41386,506.99,530.45
7.43437,506.19,525.96
7.45479,504.35,519.77
7.47524,504.88,511.81
7.49575,503.31,503.05
7.52024,501.04,495.04
7.541,501.04,491.63
7.5613,500.43,488.51
7.58173,501.54,486.01
7.60232,500.23,486.8
7.62669,501.99,492.24
7.64724,505.39,500.39
7.6678,506.91,508.92
7.68832,508.53,514.73
7.70886,508.02,520.99
7.72924,507.42,525.99
7.75387,507.94,528.39
7.77427,508.15,528.51
7.79474,507.72,524.81
7.81526,506.37,518.45
7.83569,505.3,510.36
7.86018,506.64,501.69
7.88078,506.91,493.15
7.90121,508.53,487.12
7.92174,504.22,483.7
7.94232,499.78,482.56
7.9627,490.22,484.25
7.98714,477.38,490.8
8.0077,459.1,505.04
8.02835,438.88,523.63
8.04873,418.71,542.3
8.06925,401.16,555.44
8.08962,388.13,559.75
8.11435,384.71,557.2
8.13471,383.76,551.16
8.1552,388.41,541.33
8.17566,393.53,531.06
8.19629,401.22,519.45
8.22059,410.38,508.56
8.2412,421.1,499.65
8.26165,433.48,491.52
8.28209,447.79,487.22
8.30264,470.83,489.17
8.32311,498.26,497.94
8.34759,528.21,504.55
8.36813,556.17,511.04
8.38866,578.33,516.83
8.40913,594.87,522.47
8.4296,605.69,527.77
8.45409,609.76,531.82
8.47475,608.4,533.45
8.4952,604.92,534.56
8.51563,599.14,531.05
8.53621,590.31,524.04
8.55654,580.85,514.83
8.58105,573.08,503.07
8.6017,565.86,492.05
8.62222,557.89,481.84
8.64263,553.31,476.47
8.66307,549.25,472.18
8.6877,545,470.34
8.70816,542.6,471.67
8.72858,538.68,476.74
8.74905,534.34,483.79
8.76964,531.28,492.23
8.79,526.22,500.19
8.81452,523.98,506.15
8.83505,520.78,508.52
8.85553,517.42,511.62
8.8761,514.34,510.29
8.89666,511.47,507.23
8.92096,508.18,502.19
8.94151,508.14,494.95
8.96206,505.11,487.16
8.98254,504.49,482.33
9.00301,504.79,479.86
9.02345,506.83,479.29
9.048,508.67,481.23
9.06861,509.13,486.19
9.08917,512.31,491.95
9.10949,512.65,499.36
9.12996,512.92,508.09
9.15447,513.93,516.67
9.17496,510.55,523.14
9.19549,511.04,528.11
9.21597,509.43,529.69
9.23642,508.94,526.95
9.25702,505.56,521.96
9.2815,503.04,514.37
9.30203,502.44,507.49
9.32245,502.15,500.8
9.34292,501.12,493.64
9.36346,501.09,487.71
9.38385,500.68,485.37
9.40853,503.34,485.69
9.42895,505.67,489.76
9.44944,507.54,496
9.47005,506.63,504.2
9.49044,506.5,513.56
9.51489,505.4,520.45
9.53545,504.52,525.16
9.55608,505.42,527.13
9.5764,504.93,527.5
9.59691,504.55,526.4
9.61747,503.44,521.92
9.64198,503.75,516.74
9.66276,503,507.99
9.68295,504.4,498.39
9.70341,505.12,489.91
9.7239,504.5,486.53
9.74833,504.6,484.22
9.76901,504.48,485.98
9.78941,503.78,494.58
9.80994,501.43,508.27
9.8304,494.94,524.61
9.85083,485.15,542.69
9.87531,472.92,556.95
9.89594,458.74,566.16
9.91636,443.59,569.73
9.93688,428.47,566.18
9.95741,415.78,558.15
9.98185,408.02,547.12
10.0024,404.62,534.49
10.0229,402.49,521.2
10.0433,403.8,507.76
10.0639,407.64,496.81
10.0844,414.11,488.24
10.1089,421.09,483.4
10.1295,429.47,481.52
10.1499,436.98,483.21
10.1704,446.38,489.97
10.1909,454.5,499.58
10.2113,463,509.86
10.2359,470.6,520.89
10.2563,479.88,532.11
10.2769,490.91,541.89
10.2973,503.72,551.31
10.3178,521.78,556.05
10.3423,546.82,552.64
10.3628,570.66,542.31
10.3834,589.53,525.85
10.4039,602.42,508.68
10.4242,608.14,493.54
10.4448,609.31,479.83
10.4693,609.25,470.87
10.4899,604,467.49
10.5104,598.4,468.2
10.5309,594.52,474.36
10.5514,587.62,482.49
10.5758,578.09,491.99
10.5962,569.87,501.39
10.6168,563.3,510.51
10.6373,558.64,519.41
10.6577,553.11,527.13
10.6782,546.69,531.9
10.7027,539.15,534.52
10.7232,533.72,533.82
10.7437,531.18,532.05
10.7642,527.94,527.64
10.7848,523.75,520.71
10.8092,521.4,512.77
10.8297,518.12,506.82
10.8503,516.1,501.85
10.8708,517.28,501.28
10.8912,519.22,502.43
10.9116,518.38,506.34
10.9362,517.7,511.87
10.9567,519.16,519.9
10.9772,519.53,527.52
10.9976,517.82,533.81
11.0181,515.46,537.05
11.0426,513.17,537.04
11.0632,510.33,534.63
11.0837,507.47,527.71
11.1043,504.97,520.77
11.1246,502.98,513.61
11.1451,502.58,504.49
11.1696,504.07,495.79
11.1901,503.45,488.83
11.2108,502.36,483.07
11.2313,502.69,480.85
11.2518,505.35,482.08
11.2721,507.68,485.47
11.2966,507.55,491.17
11.3172,506.04,498.34
11.3376,505.03,507.87
11.3581,505.82,513.7
11.3786,507.46,517.96
11.4031,508.57,523.57
11.4236,505.45,525.45
11.4442,502.56,523.16
11.4647,503.45,518.53
11.4851,502.56,513.42
11.5055,502.25,506.94
11.5301,500.6,500.75
11.5506,499.48,496.8
11.5711,500.18,494.44
11.5916,501.55,495.95
11.6121,502.04,500.36
11.6366,501.23,509.49
11.6571,499.38,522.19
11.6776,499.91,538.35
11.6981,498.13,555.48
11.7187,492.9,569.79
11.739,482.72,582.03
11.7636,466.38,587.62
11.7841,446.9,584.5
11.8045,430.12,575.2
11.825,414.5,559.96
11.8455,403.6,539.17
11.87,395.88,517.73
11.8905,392.3,497.19
11.911,394.04,482.55
11.9315,401.03,469.64
11.9521,407.03,461.51
11.9726,412.62,458.41
11.997,421.5,460.53
12.0175,431,466.62
12.0381,440,474.5
12.0586,447.2,483.8
12.0791,454.36,493.04
12.0996,460.69,499.03
12.1241,470.15,502.42
12.1445,490.32,503.74
12.165,518.66,500.59
12.1855,550.32,491.67
12.206,584.06,481.94
12.2304,608.25,472.15
12.251,619.6,463.92
12.2715,625.48,457.94
12.2921,623.38,456.15
12.3126,620.51,456.52
12.333,614.61,462.62
12.3575,606.88,470.09
12.3781,600.11,478.67
12.3985,589.69,488.54
12.419,582.35,499.03
12.4395,574.68,509.03
12.4639,567.54,516.42
12.4845,549.43,521.34
12.505,529.55,522.27
12.5254,515.64,519.62
12.5461,506.91,514.09
12.5665,501.93,507.67
12.5909,498.34,499.14
12.6115,498.07,488.71
12.6322,498.86,482.97
12.6525,500.49,480.18
12.673,502.39,479.54
12.6974,503.91,483.03
12.7179,507.33,489.03
12.7384,507.66,496.62
12.7589,508.73,504.1
12.7794,508.78,513.08
12.7999,507.03,518.46
12.8244,506.42,524.97
12.8449,507.74,527.18
12.8654,505.99,525.94
12.8859,503.39,522.95
12.9064,505.31,515.76
12.9308,504.45,502.21
12.9514,505.56,497.97
12.9719,507.65,490.17
12.9924,505.92,482.94
13.0129,504.54,479.15
13.0333,504.23,477.52
13.0579,506.78,479.22
13.0784,510.43,484.97
13.0988,510.14,492.98
13.1193,511.71,503.58
13.1398,516.57,517.87
13.1643,525.46,527.69
13.1849,532.36,534.35
13.2053,534.69,537.28
13.2259,542.95,533.83
13.2463,548.56,533.46
13.2668,547.45,535.77
13.2914,551.56,530.82
13.3119,550.65,517.05
13.3323,535.12,509.64
13.3528,531.69,497.51
13.3733,523.76,493.81
13.3938,522.6,490.05
13.4183,528.48,493.04
13.4389,528.39,497.03
13.4594,527.71,508.02
13.4798,529.17,514.82
13.5002,527.13,526.86
13.5247,529.91,538.08
13.5453,526.93,544.47
13.5658,528.34,548.17
13.5862,526.47,548.34
13.6067,522.38,544.07
13.6272,521.5,541.26
13.6517,527,536.61
13.6723,531.6,526.08
13.6927,535.28,517.67
13.7132,534.03,509.33
13.7337,536.02,503.47
13.7582,535.62,499.77
13.7787,533.49,499.22
13.7992,532.19,502.18
13.8197,532.16,505.94
13.8402,529.12,511.35
13.8607,527.3,517.08
13.8851,525.24,520.27
13.9057,521.19,523.21
13.9262,517.15,524.57
13.9467,511.52,524.46
13.9671,506.62,520.96
13.9917,503.29,515.17
14.0121,504.24,507.54
14.0327,503.59,498.83
14.0533,501.67,490.86
14.0737,499.34,482.69
14.0942,499.07,478.35
14.1186,500.46,476.28
14.1394,504.76,477.43
14.1599,505.41,482.54
14.1802,506.33,490.23
14.2007,506.66,504.79
14.2251,499.53,528.23
14.2456,483.42,553.18
14.2662,459.54,571.55
14.2866,438.43,576.64
14.3071,426.95,571.11
14.3277,424.16,558.69
14.3521,423.53,541.55
14.3726,427.62,525.24
14.3932,433.1,507.59
14.4137,440.28,491.87
14.4341,446.42,479.3
14.4546,453.54,472.04
14.4792,458.83,471.23
14.4996,458.66,474.39
14.5202,455.93,478.51
14.5407,455.94,485.21
14.5611,459.16,492.17
14.5856,461.72,499.73
14.6062,466.58,507.99
14.6266,471.46,515.59
14.647,474.37,520.07
14.6676,475.7,524.86
14.6881,477.36,526.09
14.7127,488.69,520.87
14.7331,513.55,511.69
14.7537,545.04,501.96
14.774,569.43,492.16
14.7945,583.95,483.73
14.8191,589.76,476.39
14.8395,588.2,473.31
14.8601,587.16,475.05
14.8806,585.73,479.84
14.9011,580.98,488.27
14.9215,576.59,496.82
14.946,571.47,507.25
14.9665,566.58,517.8
14.987,568.46,524.44
15.0076,567.37,529.15
15.028,564.9,530.52
15.0524,561.92,529.02
15.073,556.93,523.81
15.0935,551.55,516.85
15.114,546.64,508.88
15.1346,540.91,499.71
15.1551,538.13,491.36
15.1796,535.7,485.49
15.2,532.36,482.79
15.2205,527.89,484.23
15.241,526.71,486.79
15.2614,527.77,492.63
15.286,528.42,501.5
15.3065,526.53,510.6
15.3271,525.03,518.48
15.3475,524.02,524.59
15.368,523.42,529.67
15.3886,521.73,531.34
15.4131,514.59,528.87
15.4335,505.07,524.49
15.4541,496.86,517.8
15.4744,494.48,509.44
15.4949,492.59,500.75
15.5193,489.87,492.2
15.5399,489.7,485.36
15.5605,491.96,481.29
15.5809,492.97,482.63
15.6014,492.57,494.9
15.6219,483.06,515.12
15.6464,466.05,539.5
15.6669,447.04,560.4
15.6875,432.23,569.92
15.708,422.38,569.94
15.7285,421.31,561.95
15.7489,424.65,548.76
15.7734,430.92,535.01
15.7939,439.33,520.61
15.8144,442.87,507.68
15.8349,448.89,495.35
15.8553,454.11,483.68
15.8798,459.29,475.14
15.9005,464.83,470.71
15.921,467.87,469.77
15.9415,464.29,471.62
15.962,462.03,475.09
15.9824,460.63,482.27
16.0068,463.9,490.62
16.0274,464.72,500.5
16.0479,464.38,511.6
16.0683,462.5,521.28
16.0889,463.8,526.42
16.1132,465.04,528.74
16.1338,467.83,530.19
16.1543,466.07,526.75
16.1749,466.85,520
16.1956,466.68,511.8
16.2159,469.95,503.04
16.2404,474.56,493.83
16.2608,475.85,487.87
16.2813,476.88,486.29
16.3018,479.7,487.23
16.3223,489.36,489.59
16.3468,511.09,494.87
16.3673,536.87,499.5
16.3879,563.3,506.4
16.4083,586.24,512.72
16.4287,602.99,518.97
16.4494,609.99,523.58
16.4738,610.79,525.06
16.4943,606.63,524.65
16.5148,600.71,522.32
16.5353,594.17,518.66
16.5557,583.73,512.73
16.5802,577.99,503.58
16.6007,572.99,496.06
16.6213,565.59,489.85
16.6418,564.27,488.08
16.6622,572.22,487.66
16.6829,575.37,489.33
16.7074,573.9,494.67
16.7278,574.72,500.33
16.7484,569.78,507.47
16.7689,564.62,514.17
16.7893,560.9,521.14
16.8098,557.92,526.51
16.8342,550.33,529.01
16.8547,543.27,530.01
16.8753,538.61,527.21
16.8958,534.49,521.56
16.9162,530.39,515.65
16.9407,526.71,506.32
16.9612,521.77,496.66
16.9817,517.62,489.33
17.0021,515.89,483.06
17.0227,514.71,480.65
17.0431,512.77,481.52
17.0677,514.02,485.82
17.0884,512.41,493.85
17.1088,514.53,501.68
17.1292,516.03,509.35
17.1496,517.82,518.48
17.1742,514.86,523.98
17.1946,513.48,527.18
17.2153,513.99,528.15
17.2357,513.19,526.52
17.2562,511.15,521.61
17.2767,508.52,515.09
17.3011,506.42,506.27
17.3217,504.73,497.02
17.3422,503.59,489.01
17.3626,503.47,485.01
17.3831,501.78,483.21
17.4075,501.82,485.37
17.4281,503.06,490.29
17.4488,506.05,497.24
17.4692,507.64,504.39
17.4896,509.91,512.51
17.5101,509.13,523.21
17.5346,509.5,530.77
17.5552,509.6,534.01
17.5757,509.28,535.21
17.596,510.42,533.57
17.6165,507.94,529.05
17.641,506.95,523.04
17.6615,500.76,520.44
17.6821,490.01,524.55
17.7026,474.81,530.44
17.723,455.85,540.75
17.7436,437.28,548.4
17.7681,424.02,552.32
17.7887,411.82,556.26
17.8092,404.85,558.81
17.8296,400.08,558.24
17.8501,399.87,554.4
17.8705,401.49,550.12
17.8951,406.19,544.49
17.9156,411.56,535.99
17.936,416.64,527.2
17.9565,424.52,516.16
17.977,432.41,505.93
18.0015,439.53,496.14
18.022,447.62,486.11
18.0425,453.7,477.49
18.063,458.96,470.99
18.0835,465.57,468.99
18.104,474.85,471.19
18.1285,484.08,479.96
18.149,495.87,496.16
18.1696,511.49,516.33
18.1901,531.99,536.67
18.2104,555,554.53
18.235,575.8,565.03
18.2555,596.24,566.02
18.276,609.19,559.42
18.2967,618.55,548.73
18.3169,623.24,534.99
18.3375,623.39,517.99
18.362,619.91,501.79
18.3825,611.33,488.63
18.4029,601.87,474.31
18.4234,593.69,463.45
18.444,586.35,454.96
18.4685,577.68,451.76
18.489,569.35,451.61
18.5095,563.88,456.69
18.5299,557.9,463.35
18.5504,551.32,471.68
18.5708,547.26,482.15
18.5954,542.61,491.72
18.616,536.48,500.57
18.6364,532.39,506.86
18.6569,529.91,511.29
18.6775,525.53,511.83
18.7019,520.02,509.46
18.7225,517.42,505.37
18.7429,514.53,500.9
18.7635,513.43,493.32
18.784,512.74,484.85
18.8043,512.19,478.08
18.8288,511.35,477.47
18.8494,511.48,478.77
18.8698,510.99,481.82
18.8904,512.19,489.05
18.9108,513.75,496.64
18.9313,514.4,506.12
18.9559,514.72,515.49
18.9764,513.58,523.39
18.9969,509.46,529.11
19.0174,507.37,532.09
19.0379,507.5,532.07
19.0624,507.6,528.66
19.0829,507.08,523.73
19.1035,506.86,517.78
19.1239,505.69,509.63
19.1443,503.95,500.3
19.1649,506.36,494.04
19.1893,506.29,489.43
19.2099,505.83,488.75
19.2304,505.26,490.2
19.2508,506.21,493.16
19.2714,508.37,498.33
19.2959,509.5,506.66
19.3164,511,515.53
19.3368,510.4,523.62
19.3574,507.72,528.7
19.3778,509.77,530.56
19.3983,507.82,530.05
19.4228,507.06,527.04
19.4435,507.24,520.63
19.4637,507,513.9
19.4842,506,506.52
19.5048,503.4,498.82
19.5293,502.92,492.05
19.5498,503.33,486.64
19.5703,504.07,482.92
19.5908,504.85,483.53
19.6112,504.48,489.03
19.6318,505.99,499.22
19.6562,507.79,515.98
19.6768,502.23,542.18
19.6973,488.99,570.74
19.7177,469.39,596.2
19.7382,445.91,614.16
19.7589,423.93,624.33
19.7833,403.54,623.66
19.8038,390.23,609.33
19.8242,380.19,585.66
19.8447,376.15,558.33
19.8652,377.72,527.86
19.8897,381.38,499.89
19.9102,389.5,477.11
19.9307,399.8,462.29
19.9512,412.04,452.63
19.9717,423.43,450.31
19.9922,435.35,455.24
20.0167,446.08,462.2
20.0373,457.46,470.76
20.0577,465.17,481.81
20.0782,472.94,495.64
20.0986,479.55,515.12
20.1232,485.64,535.69
20.1438,488.71,555.55
20.1642,490.57,571.24
20.1846,494.06,583.79
20.2052,496.04,586.44
20.2257,503.84,580.95
20.2502,515.87,569.36
20.2707,534.49,558.29
20.2911,555.6,543.43
20.3116,578.28,525.34
20.3321,596.62,507.87
20.3566,611.7,493.9
20.3771,623.16,484.72
20.3976,628.33,479.78
20.4181,628.46,477.62
20.4385,621.97,479.5
20.459,610.97,480.8
20.4836,600.58,482.84
20.5042,590.26,482.67
20.5246,576.21,478.74
20.5451,559.37,472.39
20.5656,546.5,464.31
20.59,538.8,457.85
20.6106,529.64,452.28
20.6311,522.71,449.22
20.6516,520.77,448.18
20.672,518.61,448.94
20.6925,516.49,455.15
20.717,515.79,463.72
20.7376,514.63,472.78
20.758,514.31,482.02
20.7785,514.45,492.02
20.799,509.76,501.61
20.8195,501.61,508.09
20.844,497.88,511.07
20.8646,496.71,512.66
20.885,494.77,510.33
20.9055,492.01,504.26
20.9259,490.01,499.01
20.9505,489.21,490.81
20.971,491.17,485.05
20.9915,495.53,481.04
21.012,498.43,478.23
21.0325,499.94,477.18
21.053,498.75,479.35
21.0774,503,484.68
21.098,504.4,493.34
21.1185,505.72,502.87
21.1389,505.58,512.3
21.1595,508.46,521.04
21.1839,509.37,527.03
21.2045,507.1,529.03
21.2249,506.08,529.42
21.2454,503.86,527.34
21.266,505.09,522.27
21.2865,504.87,515.42
21.3109,503.1,506.13
21.3314,503.48,498.11
21.352,504.98,489.88
21.3724,506.99,484.51
21.3928,506.59,482.21
21.4174,506.87,482.56
21.438,506.9,489.65
21.4585,507.12,500.92
21.4789,513.49,520.94
21.4995,526.6,542.55
21.5199,538.48,554.84
21.5443,546.18,556.67
21.5649,550.34,551.94
21.5854,551.28,542.75
21.6059,549.42,530.8
21.6264,545.14,518.84
21.6509,541.11,506.87
21.6716,537.89,494.7
21.6919,536.11,483.56
21.7125,531.49,473.65
21.7328,526.99,468.32
21.7533,524.79,466.25
21.7779,522.63,468.4
21.7984,522.31,472.72
21.8188,522.25,480.38
21.8393,519.4,488.9
21.8598,519.52,499.52
21.8803,518.81,510.42
21.9048,517.85,517.93
21.9254,514.88,521.95
21.9459,514.1,523.96
21.9663,511.88,524.57
21.9868,514.31,522.05
22.0114,514.25,516.24
22.0319,513.6,507.99
22.0524,512.88,500.2
22.0729,512.5,492.16
22.0933,512.6,486.72
22.1138,512.48,484.98
22.1383,511.98,484.78
22.1589,513.19,488.43
22.1793,511.75,494.94
22.1998,512.4,502.35
22.2202,512.92,511.28
22.2448,512.14,519.03
22.2653,510.31,525.02
22.2858,509.45,530.22
22.3062,509.36,530.77
22.3268,508.09,531.22
22.3473,504.87,526.97
22.3718,503.5,520.18
22.3923,504,512.34
22.4129,505.8,504.28
22.4333,506.24,497.42
22.4538,506.59,491.34
22.4782,506.87,487.47
22.4987,507.3,486.58
22.5194,510.44,488.46
22.5397,511.35,493.57
22.5602,513.28,501.05
22.5807,514.22,509.24
22.6053,512.78,517.59
22.6258,513.62,523.88
22.6462,513.7,529.5
22.6667,510.76,533.4
22.6872,509.01,533.12
22.7117,506.41,529.7
22.7322,505.32,525.16
22.7527,506.06,519.53
22.7733,500.65,522.02
22.7936,485.72,533.62
22.8141,462.37,547.29
22.8387,438.5,551.83
22.8591,417.2,548.67
22.8797,399.56,539.53
22.9002,388.65,529.43
22.9208,382.12,523.94
22.9412,380.49,522.15
22.9657,383.2,522.92
22.9862,389.76,526.14
23.0067,398.41,527.31
23.0272,407.12,528.25
23.0478,415.7,526
23.0722,423.36,522
23.0927,430.69,516.8
23.1131,437.55,510.04
23.1336,443.64,509.03
23.1541,457.11,517.63
23.1746,485.09,523.5
23.1991,523.07,515.4
23.2197,562.46,498.12
23.2403,594.57,483.1
23.2606,612.85,474.28
23.2811,623.08,472.82
23.3057,625.87,476.06
23.3261,622.49,480.85
23.3467,615.59,486.88
23.3672,607.68,492.1
23.3875,599.34,496.48
23.4081,589.07,499.78
23.4326,577.26,499.63
23.4532,568.61,495.5
23.4736,566.88,490.6
23.4941,565.91,484.08
23.5146,562.13,476.67
23.539,558.3,471.33
23.5596,552.84,468.47
23.5801,548.67,467.77
23.6006,544.14,471.22
23.6211,541.51,477.17
23.6416,538.41,484.34
23.6661,536.33,493.67
23.6866,535.86,504.34
23.7071,532.29,513.67
23.7275,528.63,520.94
23.748,524.51,525.35
23.7725,521,528.08
23.793,519.4,526.66
23.8136,516.12,520.33
23.8342,513.7,514.06
23.8545,513.56,505.85
23.8751,504.45,497.48
23.8995,492.36,488.59
23.92,486.49,482.07
23.9405,481.19,479.05
23.961,479.95,479.84
23.9815,480.76,483.87
24.0019,484.01,490.1
24.0265,485.81,498.08
24.0471,487.05,507.46
24.0676,486.84,516.77
24.0882,488.07,524.22
24.1085,491.66,528.57
24.133,493.92,530.86
24.1535,494.54,530.09
24.174,496.43,525.67
24.1944,496.15,518.74
24.215,497.72,510.59
24.2354,497.57,501.27
24.2599,498.66,492.42
24.2805,499.73,485.53
24.3009,500.98,482.03
24.3215,504.99,480.62
24.3419,504.99,483.7
24.3664,506.39,490.76
24.3869,508.71,499.21
24.4076,507.77,508.16
24.428,505.82,517.33
24.4485,498.65,527.07
24.4689,482.92,534.25
24.4935,461.54,537.4
24.5139,439.43,536.72
24.5345,421.54,533.38
24.555,411.84,527.7
24.5754,408.47,519.16
24.5999,409.97,509.53
24.6204,413.98,499.42
24.6409,419.58,492.54
24.6614,426.47,487.63
24.6819,434.97,485.9
24.7023,444.98,488.52
24.7272,452.58,496.22
24.7475,460.07,510.78
24.7679,465.85,532.02
24.7885,471.48,556.82
24.809,486.19,574.65
24.8335,507.15,575.52
24.8539,530.32,565.02
24.8744,551.86,550.81
24.895,565.68,534.85
24.9153,573.55,517.68
24.9358,574.44,502.75
24.9604,575.95,490
24.9809,572.76,478.6
25.0013,567.81,469.48
25.0218,565.65,463.58
25.0424,560.12,463.07
25.0628,557.49,465.65
25.0873,553.8,472.12
25.1079,550.84,480.5
25.1284,546.67,489.8
25.1487,542.74,500.44
25.1693,538.79,509.35
25.1938,536.03,515.48
25.2143,533.82,519.18
25.2348,531.46,522.95
25.2554,525.17,525.96
25.2758,521.93,524.37
25.2962,516.75,517.89
25.3207,514.6,510.71
25.3413,512.08,502.57
25.3617,511.06,496.06
25.3823,512.45,489.65
25.4027,512.76,487.92
25.4273,511.01,489.33
25.4478,513.01,494.47
25.4682,515.81,501.17
25.4888,518.04,509.34
25.5093,517.44,516.07
25.53,518.75,524.06
25.5542,518.6,530.45
25.5747,516.68,533.56
25.5952,515.14,534.25
25.6157,513.71,532
25.6362,512.97,526.4
25.6607,510.58,520.72
25.6812,507.86,512.17
25.7017,506.09,502.94
25.7223,507.87,492.75
25.7427,519.1,485.4
25.7631,532.88,481.72
25.7878,542.5,482.38
25.8082,547,487.1
25.8287,548.4,493.28
25.8492,548.72,501.82
25.8697,546.38,510.06
25.8941,544.5,519.65
25.9148,541.4,525.92
25.9353,538.52,531.73
25.9558,535.62,533.39
25.9761,532.89,531.31
25.9968,527.51,527.05
26.0212,524.81,520.64
26.0417,519.05,513.11
26.0623,516.64,505.09
26.0827,516.91,495.87
26.1033,517.33,490.1
26.1276,517.06,487.08
26.1483,516.85,486.26
26.1687,517.28,488.61
26.1892,515.62,494.69
26.2097,518.1,503.35
26.2302,516.68,511.48
26.2546,513.54,519.18
26.2751,514.44,526.15
26.2957,512.95,530.12
26.3161,511.16,532.89
26.3365,508.93,532.52
26.3571,508.74,527.41
26.3816,509.59,519.93
26.4022,508.07,511.94
26.4228,505.06,503.36
26.4431,498.05,495.08
26.4636,494.64,487.47
26.488,492.91,483.97
26.5086,492.53,481.98
26.5291,494.62,483.18
26.5495,495.1,486.95
26.57,496.48,495.76
26.5906,496.38,514.81
26.6151,487.51,536.44
26.6357,470.41,557.56
26.6561,451.92,567.44
26.6766,437.54,565.16
26.697,429.03,555.52
26.7217,423.03,542.42
26.742,415.02,526.74
26.7625,408.82,511.79
26.783,405.05,496.83
26.8035,405.04,484.06
26.8241,407.43,474.05
26.8485,411.95,468.04
26.8691,418.76,466.03
26.8895,426.61,468.83
26.91,434.48,477.66
26.9306,447.79,493.33
26.9551,469.63,513.26
26.9756,500.5,526.81
26.9961,533,531.85
27.0166,554.8,534.28
27.0371,566.84,531.62
27.0574,571.67,526.3
27.0819,572.34,520.44
27.1024,571.67,513.15
27.1229,567.14,504.12
27.1435,561.71,494.9
27.164,555.37,484.92
27.1844,551.69,477.13
27.2089,546.16,472.91
27.2294,541.72,470.33
27.2499,537.58,471.86
27.2704,536.86,477.29
27.2909,532.49,484.83
27.3154,527.99,493.66
27.3359,524.59,502.73
27.3565,522.48,511.39
27.3769,519.98,519.11
27.3974,519.58,522.89
27.4178,517.67,523.31
27.4424,515.33,522.45
27.4629,513.07,518.36
27.4834,509.25,511.69
27.5039,508.4,504.35
27.5245,508.12,495.88
27.5488,506.1,489.9
27.5693,505.88,485.52
27.5899,508.9,483.62
27.6105,511.52,484.69
27.6309,509.22,488.96
27.6513,509.57,497.16
27.6758,508.26,505.33
27.6964,510.21,513.27
27.7169,510.17,521.61
27.7373,510.13,528.29
27.7579,510.31,532.63
27.7823,509.85,534.11
27.8029,508.68,532.08
27.8233,508.14,528.27
27.8439,506.51,522.21
27.8643,507.41,514.37
27.8848,506.93,505.3
27.9093,506.74,497.64
27.9298,504.39,492.51
27.9503,504.72,488.41
27.9708,506.57,488.13
27.9913,507.46,490.7
28.0158,508.37,497.56
28.0364,509.09,506.25
28.0568,509.07,515
28.0773,508.86,524.2
28.0977,508.49,532.16
28.1184,508.79,540.33
28.1429,508.43,546.46
28.1634,506.75,551.57
28.1838,506.4,554.26
28.2043,506.72,554.2
28.2247,506.57,547.76
28.2492,504.86,537.01
28.2697,505.69,528.01
28.2903,506.35,524.61
28.3107,506.48,532.09
28.3312,507.78,557.07
28.3517,505.43,604.25
28.3762,501.34,658.6
28.3967,495.07,707.48
28.4173,485.86,745.19
28.4378,478.69,773.55
28.4582,471.15,782.64
28.4786,471.52,771.11
28.5033,476.62,734.29
28.5238,487.69,678.43
28.5443,507.35,609.75
28.5648,527.88,538.2
28.5852,544.91,467.76
28.6096,554.93,412.81
28.6302,558.74,371.84
28.6507,558.19,349.68
28.6712,555.75,336.34
28.6917,550.4,337.87
28.7121,545.92,346.7
28.7367,546.54,359.76
28.7572,542.63,375.41
28.7777,537.3,394.13
28.7981,529.84,410.3
28.8187,519.47,425.84
28.8431,516.38,440.47
28.8636,514.9,451.18
28.8841,508.32,459.14
28.9046,504.06,463.71
28.9251,501.65,469.57
28.9456,505.32,476.86
28.9703,505.65,501.09
28.9907,503.72,536.67
29.0111,504.58,550.13
29.0317,500.66,541.71
29.0521,502.33,524.77
29.0766,504.66,507.41
29.0971,505.93,494.73
29.1176,506.35,487.18
29.1381,508.08,483.55
29.1586,509.06,481.04
29.179,508.05,483.23
29.2036,506.24,485.38
29.2241,506.19,488.91
29.2446,507.95,488.73
29.265,506.56,488.38
29.2857,501.25,488.7
29.3101,499.2,492.96
29.3306,507.56,480.57
29.3511,498.25,475.86
29.3716,524.4,475.89
29.392,531.52,463.31
29.4126,527.02,466.25
29.437,531.01,465
29.4575,534.21,467.4
29.478,526.77,479.72
29.4985,523.21,483.37
29.519,517.17,491.1
29.5395,517.14,500.08
29.564,511.11,509.66
29.5846,504.89,518.33
29.605,518.71,518.86
29.6255,518.97,523.89
29.6459,522.97,519.51
29.6705,511.38,513.81
29.6911,514.9,509.45
29.7116,509.32,506.16
29.732,504.26,498.93
29.7525,508.61,494.14
29.7729,507.89,490.11
29.7974,504.91,493.69
29.818,501.53,502.75
29.8385,500.82,534
29.859,504.86,570.4
29.8795,510.69,589.92
29.904,513.35,592.14
29.9246,514.28,580.91
29.945,519.62,567.93
29.9655,521.1,551.94
29.9859,515.88,536.75
30.0064,515.5,519
30.0309,509,505.8
30.0516,507.2,493.84
30.0721,505.96,487.47
30.0924,503.37,492.78
30.1129,500.5,517.02
30.1374,497.4,544.62
30.158,493.72,558.69
30.1785,494.77,555.16
30.1992,496.62,543.72
30.2196,498.7,526.98
30.24,502.36,512.38
30.2644,502.48,502.71
30.2849,505.79,496.37
30.3054,507.63,492.29
30.3259,510.1,487.83
30.3464,510.08,485.67
30.3668,508.07,482.13
30.3914,505.45,477.91
30.4119,497.76,472.13
30.4324,490.41,466.3
30.4529,485.53,462.24
30.4733,483.42,459.79
30.4979,482.74,458.43
30.5184,484.79,461.75
30.5389,487.03,466.4
30.5594,489.03,473.12
30.5799,492.82,480.89
30.6003,498.86,489.32
30.6249,502.09,497.65
30.6454,505.27,505.32
30.6659,509.41,511.46
30.6863,508.33,515.97
30.7069,507.67,516.37
30.7313,505.53,514.5
30.7518,504.43,511.4
30.7723,501.94,508.12
30.7929,500.55,501.7
30.8134,499.04,496.96
30.8338,501.83,495.56
30.8583,508.47,496.05
30.8789,514.57,495.24
30.8993,519.26,497.79
30.9198,522.81,501.63
30.9403,526.25,506.31
30.9648,527.2,513.85
30.9853,527.96,520.88
31.0058,524.57,525.3
31.0263,525.05,529.64
31.0467,524.04,530.31
31.0674,522.83,529.05
31.0917,521.67,524.24
31.1123,518.33,521.19
31.1328,515.47,516.55
31.1534,512.77,509.44
31.1737,512.22,503.55
31.1982,508.38,494.44
31.2188,506.1,490.35
31.2393,506.08,488.08
31.2598,506.26,489.27
31.2802,506.81,492.61
31.3007,505.45,497.29
31.3252,505.16,503.23
31.3457,507.33,509.59
31.3662,509.26,515.47
31.3868,508.61,519.58
31.4071,508.49,522.66
31.4277,507.99,521.13
31.4522,507.39,517.9
31.4727,507.11,513.12
31.4932,512.89,508.3
31.5137,515.71,501.24
31.5342,513.97,495.19
31.5587,514.38,489.75
31.5792,516.7,483.4
31.5997,516.76,480.72
31.6203,519.01,480.78
31.6408,520.61,483.22
31.6612,520.49,487.98
31.6856,518.99,492.58
31.7062,519.19,500.07
31.7267,521.95,506.45
31.7472,522.36,510.96
31.7676,521.49,514.17
31.7921,516.99,515.34
31.8127,514.39,514.67
31.8331,512.71,512.33
31.8537,508.17,506.67
31.8741,497.14,500.73
31.8946,481.71,492.59
31.9191,472.57,487.87
31.9397,467.65,484.1
31.9601,467.52,481.48
31.9806,470.62,482.58
32.0011,476.7,484.07
32.0256,481.76,491.65
32.0461,486.4,496.92
32.0667,489.92,503.74
32.0871,496.14,509.39
32.1076,502.91,513.91
32.128,505.73,517.93
32.1526,508.18,519.14
32.1731,508.15,520.11
32.1936,508.72,522.69
32.214,507.17,535.95
32.2346,505.94,560.96
32.259,501.95,584.97
32.2796,501.36,587.98
32.3001,503.49,572.38
32.3205,504.99,549.7
32.341,506.99,526.56
32.3615,508.59,508.05
32.386,512.68,496.64
32.4066,519.34,489.91
32.427,520.67,486.13
32.4476,521.34,485.7
32.468,524.87,486.96
32.4925,526.7,489.37
32.513,526.56,490.1
32.5336,524.05,489.28
32.5541,520.04,489.42
32.5745,517.83,486.34
32.5951,514.46,483.27
32.6195,509.77,478.42
32.64,507.02,472.33
32.6606,503.01,468.47
32.681,503.01,468.17
32.7015,499.61,469.34
32.7219,499.29,473.47
32.7465,499.83,479.98
32.7671,502.66,488.18
32.7875,503.73,495.35
32.808,507.38,502.88
32.8285,508.11,510.5
32.8529,508.69,516.6
32.8735,509.15,520.28
32.894,511.52,520.82
32.9145,513.02,520.26
32.935,511.21,517.41
32.9554,509.77,515.73
32.9799,505.42,510.18
33.0006,503.13,503.54
33.0209,501.11,498.44
33.0414,499.88,495.75
33.0619,498.51,494.4
33.0864,499.21,494.72
33.1069,498.37,498.18
33.1274,494.89,502.34
33.1479,493.91,509.07
33.1684,491.53,515.66
33.1889,493.02,520.13
33.2134,493.62,523.5
33.234,493.9,525.2
33.2545,495.72,524.16
33.275,496.57,520.73
33.2954,495.26,515.18
33.3198,495.41,510.35
33.3404,496.53,504.48
33.3609,494.42,498.58
33.3814,493.54,493.67
33.4019,494.63,489.93
33.4223,495.5,488.15
33.4469,497.8,488.32
33.4674,502.84,492.05
33.488,505.67,497.64
33.5083,509.54,504.51
33.5289,510.83,510.81
33.5533,512.66,516.85
33.5738,512.13,521.28
33.5944,514.11,523.82
33.6149,513.68,525.06
33.6354,512.35,522.85
33.6559,510.88,518.08
33.6803,508.9,512.66
33.7009,506.72,505.73
33.7213,500.78,499.98
33.7418,499.62,492.99
33.7623,499.1,488.99
33.787,499.28,487.39
33.8074,503.02,486.31
33.8279,504.02,489.25
33.8484,506.01,495.2
33.8688,507.01,502.36
33.8893,509.21,508.29
33.9138,511.57,515.63
33.9343,511.65,520.9
33.9549,511.12,524.12
33.9753,509.7,525.5
33.9958,508.96,524.2
34.0162,505.77,520.16
34.0408,502.01,515.13
34.0613,501.21,507.7
34.0817,499.77,499.36
34.1022,498.22,492.29
34.1228,496.77,488.03
34.1473,497.62,485.43
34.1678,498.09,486.54
34.1885,500.88,491.03
34.2087,503.9,496.23
34.2292,504.92,502.18
34.2497,507.74,508.54
34.2742,509.19,514.84
34.2948,511.15,520.07
34.3152,512.52,523.65
34.3358,513.02,525.12
34.3561,510.81,523.5
34.3806,510.25,520
34.4012,510,516.6
34.4217,508.8,511.88
34.4422,505.84,503.7
34.4627,504.47,495.36
34.4831,505.18,491.09
34.5078,507.14,487.87
34.5283,505.31,487.7
34.5487,506.05,490.36
34.5692,510.44,495.89
34.5897,516.95,502.11
34.6141,521.36,508.69
34.6347,524.29,514.55
34.6552,526.23,521.84
34.6756,527.39,525.87
34.6961,527.11,528.3
34.7166,526.29,528.04
34.7411,523.83,525.43
34.7618,520.66,519.54
34.7822,515.53,512.44
34.8027,513.02,504.95
34.8231,510.62,498.76
34.8436,507.3,494.41
34.8681,505.24,492.13
34.8887,506.19,490.9
34.9091,506.55,493.32
34.9297,507.24,502.26
34.9501,508.99,517.41
34.9746,510.19,545.52
34.9951,509.16,585.22
35.0156,509.12,613.98
35.0361,511.1,616.38
35.0566,513.68,602.5
35.077,512.54,578.4
35.1016,509.63,552.32
35.1222,506.31,530.26
35.1426,505.25,509.41
35.1631,504.8,491.53
35.1836,501.64,476.02
35.208,498.71,465.22
35.2286,500.17,457.37
35.2491,503.33,455.1
35.2695,503.47,456.88
35.29,503.77,461.7
35.3105,504.42,469.56
35.335,506.34,478.65
35.3557,509.87,487.72
35.3762,511.69,497.38
35.3967,513.36,502.7
35.417,513.48,506.56
35.4415,515.39,507.45
35.4621,516.91,506.76
35.4826,515.53,503.01
35.503,511.42,497.81
35.5236,509.14,491.64
35.544,506.91,487.32
35.5686,504.33,481.65
35.5891,503.26,478.92
35.6096,502.81,479.74
35.6301,502.05,484.79
35.6507,505.24,496.83
35.675,505.99,521.67
35.6955,506.59,563.53
35.7161,505.27,598.03
35.7366,509.22,610.42
35.7572,511.58,601.34
35.7775,514.66,584.07
35.802,515.93,562.86
35.8225,516.74,540.48
35.843,513.19,520.39
35.8636,508.76,501.91
35.8839,507,485.93
35.9044,506.2,472.74
35.9291,507.76,464.79
35.9494,506.21,459.44
35.9699,507.37,457.55
35.9904,508.09,459.04
36.0109,508.28,463.83
36.0354,507.62,471.46
36.0559,508.5,480.17
36.0765,511,490.34
36.0969,511.8,498.87
36.1174,511.04,505.1
36.1379,508.83,509.68
36.1624,508.46,511.54
36.183,507.57,510.63
36.2034,505.46,507.31
36.2239,504.37,504.65
36.2444,504.49,498.72
36.2689,501.79,493.17
36.2894,500.44,488.34
36.31,498.35,486.27
36.3304,498.48,484.42
36.3509,500.78,485.53
36.3713,505.03,489.43
36.3959,506.42,495.54
36.4164,509.74,502.83
36.4368,512.79,509.87
36.4574,515.83,516.49
36.4779,517.67,520.99
36.5023,518.73,524.2
36.5228,517.79,525.56
36.5434,517.63,525.25
36.5639,516.3,521.6
36.5845,509.84,516.68
36.6049,496.07,508.14
36.6293,484.06,499.91
36.6499,475.65,492.93
36.6703,472.12,487.74
36.6909,471.29,486.4
36.7113,473.04,487.52
36.7357,474.43,491.41
36.7563,479.14,495.73
36.7769,482.91,502.78
36.7973,495.73,511.43
36.8177,513.39,517.94
36.8382,525.31,523.15
36.8627,532.05,525.52
36.8833,536.44,526.02
36.9039,536.35,524.61
36.9243,534.48,521.69
36.9448,532.58,515.95
36.9652,529.47,508.96
36.9897,525.17,501.97
37.0103,520.94,494.98
37.0308,518.95,491.18
37.0513,516.76,488.94
37.0717,518.01,488.16
37.0962,521.01,490.32
37.1167,525.01,494.66
37.1372,527.8,500.53
37.1579,528.64,506.82
37.1782,528.91,514.26
37.1987,528.73,519.81
37.2232,528.79,524.25
37.2439,528.03,526.4
37.2642,526.42,525.72
37.2849,522.94,522.57
37.3053,520.15,517.66
37.3298,518.12,511.33
37.3502,514.1,503.86
37.3708,511.48,497.29
37.3912,506.98,491.03
37.4117,501.99,487.23
37.4321,488.79,485.78
37.4567,473.23,485.82
37.4772,465.38,490.86
37.4978,461.91,496.09
37.5182,462.93,503.47
37.5386,466.54,510.38
37.5631,471.43,515.3
37.5837,474.75,518.84
37.6043,479.2,521.67
37.6248,481.56,522.34
37.6451,483.85,519.07
37.6656,484.88,514.66
37.6902,484.3,509.73
37.7107,485.44,503.58
37.7313,485.95,497.26
37.7518,487.76,492.01
37.7723,489.21,486.81
37.7967,491.17,486.05
37.8172,494.13,487.84
37.8378,497.11,492.47
37.8583,499.49,499.38
37.8787,504.19,505.5
37.8992,507.35,514
37.9241,509.88,520.2
37.9443,507.9,524.76
37.9646,507.92,527.61
37.9851,506.94,526.89
38.0057,504.75,524.71
38.0261,503.2,522.17
38.0507,499.36,517.93
38.0712,505.49,511.15
38.0917,508.79,504.32
38.1121,510.83,497.85
38.1326,512.27,493.08
38.1571,513.01,492.47
38.1776,513.61,491.37
38.1981,516.69,494.1
38.2186,516.55,499.68
38.2391,516.24,506.94
38.2595,520.59,514.15
38.2841,523.87,519.12
38.3045,525.1,522.9
38.3251,523.88,525.72
38.3455,523.1,525.38
38.366,521.08,523.9
38.3905,518.47,519.12
38.411,515.57,515.1
38.4315,513.06,512.48
38.452,510.65,518.78
38.4725,504.72,537.63
38.4929,504.37,564.5
38.5175,506.9,589.8
38.538,513.52,600.24
38.5586,520.62,595.19
38.5789,526.69,577.55
38.5995,527.75,556.44
38.6239,528.2,538.75
38.6445,527.16,524.8
38.665,525.53,514.44
38.6856,525.22,504.95
38.706,523.58,497.36
38.7264,519.26,491.29
38.7509,514.01,483.83
38.7716,512.41,477.27
38.792,509.53,472.41
38.8124,507.22,465.93
38.8329,504.78,460.94
38.8574,501.42,459.16
38.8779,501.14,460.32
38.8984,503.71,463.46
38.9189,503.97,469.17
38.9394,506.37,476.13
38.9599,507.5,486.11
38.9844,508.6,494.69
39.005,510.68,501.95
39.0255,510.94,509.56
39.046,510.96,515.45
39.0664,510.56,517.76
39.0871,509.25,518.01
39.1116,509,515.6
39.1321,506.6,510.08
39.1525,504.28,505.87
39.173,504.02,498.69
39.1933,503.42,492.76
39.218,502.14,489
39.2385,500.91,486.2
39.2589,499.53,485.96
39.2795,500.62,488.57
39.2999,503.5,493.66
39.3204,506.2,501.52
39.3449,508.96,508.62
39.3654,508.97,516.5
39.386,512.17,522.6
39.4065,513.54,526.08
39.427,511.23,527.86
39.4514,508.18,527.49
39.472,505.95,524.99
39.4924,503.76,518.39
39.5128,502.41,514.31
39.5334,499.73,507.85
39.5538,498.98,500.88
39.5784,497.78,494.91
39.5989,497.43,492.12
39.6193,499.34,491.5
39.6399,500.27,493.4
39.6603,502.62,496.52
39.6849,503.7,499.82
39.7053,496.16,504.65
39.7259,489.92,511.12
39.7464,487.34,518.5
39.7669,487.27,522.8
39.7875,486.82,523.44
39.8119,486.45,523.95
39.8324,485.96,520.76
39.8528,485.57,517.41
39.8733,485.46,511.33
39.8939,485.57,504.06
39.9182,486.45,497.25
39.9389,490.16,492.6
39.9595,491.93,489.08
39.9799,495.34,487.06
40.0002,497.47,488.85
40.0207,500.18,492.28
40.0452,501.94,497.62
40.0657,504.16,503.5
40.0863,507.72,510.4
40.1067,508.98,516.32
40.1272,508.98,521.26
40.1477,508.39,523
40.1722,509.11,523.4
40.1927,508.09,521.72
40.2133,505.87,518.18
40.2337,504.1,513.54
40.2542,502.08,507.43
40.2786,500.46,499.95
40.2992,498.17,493.96
40.3197,498.14,491.17
40.3402,499.31,489.93
40.3607,500.05,489.95
40.3811,502.84,493.76
40.4057,503.47,499.21
40.4262,505.38,507.96
40.4467,511.3,516.37
40.4672,525.84,523.3
40.4877,535.07,528.64
40.5121,539.46,531.51
40.5328,542.37,533.01
40.5532,540.89,531.01
40.5737,538.11,527.01
40.5941,534.89,520.4
40.6146,530.71,512.92
40.6391,525.97,505.74
40.6597,523.58,499.79
40.6801,521.26,495.83
40.7006,520.41,494.07
40.7211,521.13,493.45
40.7456,521.7,495.76
40.7661,520.96,500.21
40.7868,518.57,505.57
40.8071,517.86,511.45
40.8276,518.48,517.76
40.848,518.79,523.21
40.8726,519.23,527.17
40.8931,515.98,528.53
40.9136,513.59,527.23
40.934,509.87,522.58
40.9546,508.1,517.07
40.979,506.08,508.85
40.9996,499.46,500.08
41.0201,492.17,492.47
41.0406,487.34,487.17
41.061,486.07,485.54
41.0816,485.65,485.43
41.1061,485.92,487.74
41.1267,488.14,492.8
41.1471,491.71,498.44
41.1675,494.37,505.75
41.1881,495.7,512.2
41.2085,496.76,517.76
41.233,497.4,521.41
41.2536,498.52,523.93
41.274,498.42,523.34
41.2946,496.94,519.87
41.315,497.15,515.1
41.3395,497.12,508.68
41.3601,497.09,502.74
41.3806,495.88,497.39
41.401,494.1,491.72
41.4215,493.88,488.77
41.4419,493.5,487.42
41.4665,494,489.53
41.487,497.2,492.83
41.5076,499.96,498.86
41.528,500.97,505.69
41.5484,502.58,512.35
41.573,503.46,518.08
41.5935,503.57,522.47
41.6141,505.05,524.17
41.6347,503.84,524.54
41.6549,502.08,521.63
41.6755,501.06,516.3
41.6999,498.05,511.64
41.7205,495.44,505.51
41.741,494.75,498.81
41.7616,495,493.65
41.782,498.6,489.72
41.8065,503.28,488.18
41.827,503.82,489.74
41.8475,506.26,493.79
41.868,508.61,498.63
41.8884,511.09,504.11
41.9089,513.67,509.29
41.9334,513.74,515.43
41.9539,513.79,520.34
41.9744,514.83,523.87
41.995,512.86,525.5
42.0154,512.29,523.4
42.0359,509.43,519.92
42.0606,509.15,515.14
42.0811,506.92,508.71
42.1015,507.93,503.77
42.1219,514.55,499.21
42.1424,517.44,495.57
42.1668,519.15,494.46
42.1874,519.72,494.77
42.2079,517.78,498.41
42.2284,520.62,503.73
42.2489,521.7,509.58
42.2693,522.16,515.47
42.2939,521.73,521.57
42.3144,520.98,525.06
42.3349,519.58,527.05
42.3554,518.07,528.04
42.3759,516.65,526.63
42.4003,515.92,521.9
42.4209,512.14,517.32
42.4414,509.31,510.86
42.462,506.25,502.49
42.4823,504.6,497.39
42.5028,503.68,493.11
42.5273,501.14,489.89
42.5479,499.91,490.11
42.5684,497.33,492.29
42.5888,495.47,496.03
42.6093,496.17,501.63
42.6339,494.54,508.5
42.6543,494.23,516.4
42.6748,494.78,522.12
42.6953,497.23,526.7
42.7158,499.78,527.76
42.7362,500.63,526.21
42.7608,499.7,522.56
42.7814,499.76,518.25
42.8018,498.01,511.4
42.8222,497.61,504.52
42.8428,495.69,497.82
42.8672,495.35,493.85
42.8877,496.88,491.88
42.9083,497.1,492.11
42.9289,500.28,493.69
42.9494,501.43,497.15
42.9699,503.14,502.12
42.9943,503.51,508.49
43.0149,504.01,514.4
43.0354,504.21,518.12
43.0559,505.37,521.49
43.0764,505.49,523.19
43.1007,504.39,522.56
43.1212,505.52,522.84
43.1418,513.81,520.68
43.1622,519.25,514.94
43.1827,523.8,508.75
43.2032,523.04,501.8
43.2276,522.83,496.84
43.2482,522.07,493.67
43.2688,522.45,491.94
43.2891,522.56,493.55
43.3097,522.25,497.24
43.3302,521.4,501.99
43.3546,520.52,507.59
43.3752,519.42,514.08
43.3958,516.73,520.66
43.4162,515.99,523.73
43.4368,513.39,524.38
43.4613,509.11,523.71
43.4817,506.09,520.36
43.5022,503.67,515.89
43.5226,500.54,510.31
43.5431,497.63,504.85
43.5637,497.1,497.68
43.5881,494.48,490.74
43.6087,485.59,485.6
43.6291,479.47,483.68
43.6497,476.38,484.94
43.6701,477.3,489.15
43.6946,480.04,494.92
43.7151,482.83,501.34
43.7356,487.27,507.67
43.7561,489.21,514.74
43.7766,491.97,518.59
43.7971,493.78,521.47
43.8216,493.62,521.58
43.8422,493.3,520.06
43.8626,492.24,516.45
43.8831,491.19,511.36
43.9036,490.55,506.09
43.9281,490.84,499.07
43.9485,490.67,493.06
43.9691,491.14,489.04
43.9896,492.71,488.44
44.0102,494.97,488.95
44.0305,496.77,492.56
44.055,498.82,498.45
44.0757,502.06,504.76
44.096,506.04,510.81
44.1165,506.84,516.65
44.1371,506.87,521.32
44.1575,507.09,523.85
44.182,507.28,525.68
44.2025,507.22,524.35
44.2231,507.58,520.68
44.2435,505.86,515.34
44.2641,505.69,508.47
44.2885,503.35,499.98
44.309,502.48,494.78
44.3296,501.78,490.23
44.3502,499.83,487.38
44.3705,498.26,487.1
44.3911,499.21,491.08
44.4155,501.77,497.67
44.436,504.61,504.73
44.4565,505.69,510.59
44.477,506.55,517.07
44.4974,509.84,523.26
44.5219,510.67,526.6
44.5425,510.14,527.08
44.563,510.31,525.27
44.5835,508.65,521.01
44.604,507.52,516.81
44.6245,505.42,510.05
44.649,503.73,503.44
44.6695,501.99,496.35
44.69,502.59,491.48
44.7105,502.27,488.38
44.731,504.02,489.11
44.7554,504.61,490.49
44.776,505.09,494.39
44.7967,505.87,499.31
44.8171,508.3,506.65
44.8375,509.44,512.92
44.858,509.15,518.74
44.8826,509.92,522.79
44.903,511.74,524.63
44.9234,511.19,526.3
44.9439,510.15,522.44
44.9644,509.32,517.15
44.9849,507.46,511.92
45.0094,505.17,505.54
45.0299,503.73,499.23
45.0504,503.79,493.59
45.0709,502.43,490.67
45.0914,503.94,493.53
45.1159,505.75,504.23
45.1364,506.2,524.58
45.1569,507.56,567.07
45.1774,513.25,614.05
45.1979,521.4,651.24
45.2183,531.72,667.59
45.2429,538.98,657.87
45.2634,542.18,627.1
45.284,536.34,588.08
45.3043,529.88,549.66
45.3248,520.1,516.73
45.3495,513.88,489.58
45.3699,508.7,467.07
45.3903,503.96,450.65
45.4109,501.57,439.52
45.4314,498.66,434.42
45.452,501.13,433.54
45.4763,502.5,437.03
45.4969,505.6,444.42
45.5174,503.48,453.14
45.5379,504.58,461.51
45.5583,505.27,471.01
45.5827,504.41,480.61
45.6033,504.33,489.09
45.6239,503.66,494.47
45.6443,503.33,496.97
45.6647,501.07,498.78
45.6854,501.45,497.62
45.7098,500.76,495.9
45.7304,502.01,490.92
45.7509,503.21,485.54
45.7714,502.97,482.63
45.7918,504.77,482.3
45.8163,507.22,482.64
45.8368,508.57,485.11
45.8574,511.26,490.89
45.8779,510.01,497.31
45.8984,513.41,504.65
45.9188,513.92,512.72
45.9432,515.34,519.58
45.9637,516.27,525.46
45.9843,517.82,528.97
46.0048,514.85,529.98
46.0254,512.48,527.78
46.0457,509.39,524.62
46.0702,507.51,520.3
46.0907,512.81,515.64
46.1112,519.25,508.51
46.1317,524.4,502.81
46.1521,525.72,499.05
46.1766,528.37,495.84
46.1972,526.9,495.27
46.2177,527.12,496.22
46.2382,526.9,501.97
46.2587,525.32,508.18
46.2791,525.85,513.54
46.3037,526.28,518.83
46.3242,524.43,521.67
46.3447,521.74,524.73
46.3651,517.99,526.19
46.3857,515.99,523.55
46.4101,515.4,520.84
46.4307,514.92,514.07
46.4511,511.93,506.46
46.4717,497.75,500.37
46.4921,483.8,492.69
46.5126,477.04,488.55
46.5371,473.43,486.04
46.5576,472.74,486.23
46.5782,473,487.99
46.5987,475,492.99
46.6191,478.6,499.39
46.6436,482.28,507.71
46.6641,484.42,515.57
46.6847,486.14,522.26
46.7052,488.71,526.61
46.7256,489.17,528.68
46.7461,490.33,527.55
46.7706,491.47,524.44
46.7911,493.17,521.95
46.8116,493.74,516.76
46.8321,494.19,510.61
46.8525,494.95,503.69
46.877,496.56,499.75
46.8976,496.25,498.8
46.9181,498.4,502.04
46.9386,504.52,506.03
46.9592,509.22,512.43
46.9796,510.97,517.74
47.0041,511.38,523.79
47.0246,513.3,529.23
47.0451,512.84,533.39
47.0656,513.07,535.91
47.0861,515.06,537.93
47.1065,510.85,533.94
47.131,517.88,528.55
47.1516,530.7,523.24
47.1721,538.76,515.59
47.1927,542.81,507.48
47.213,543.25,498.98
47.2375,542.4,491.78
47.258,540.32,486.83
47.2785,537.65,486.46
47.299,537.72,487.77
47.3195,536.38,492.02
47.3399,535.1,497.21
47.3645,532.88,504.17
47.385,529.11,510.34
47.4055,528.08,516.27
47.426,526.67,521.22
47.4465,520.73,521.17
47.471,518.39,521.54
47.4914,516.31,519.83
47.5121,513.85,514.46
47.5325,510.48,509.17
47.5531,508.18,501.74
47.5734,506.95,495.79
47.5982,506.16,489.83
47.6187,504.53,487.27
47.639,506.82,484.61
47.6595,506.46,486.89
47.6799,505.97,491.51
47.7045,506.57,497.21
47.7251,505.26,504.57
47.7456,507.01,511.25
47.766,509.4,518.4
47.7864,515.92,522.52
47.8069,520.54,525.62
47.8314,521.03,525.89
47.8519,518.43,524.52
47.8725,516.34,522.21
47.8929,513.87,516.57
47.9134,510.3,511.06
47.9379,510.04,504.04
47.9584,509.03,498.64
47.9789,508.22,494.71
47.9994,506.78,492.17
48.0201,507.02,493.33
48.0403,506.02,496.47
48.0649,504.22,500.97
48.0855,504.77,508.98
48.1059,506.62,514.58
48.1264,506.69,521.67
48.1469,506.36,526.73
48.1714,504.08,530.99
48.1919,504.27,530.59
48.2124,503.61,528.27
48.2329,501.49,525.02
48.2534,500.79,519.41
48.2739,498.83,513.33
48.2985,499.67,506.66
48.319,501.53,500.93
48.3394,493.03,503.35
48.36,475.02,511.28
48.3803,458.62,517.82
48.4009,448.89,523.46
48.4253,445.12,525.57
48.446,442.49,527.65
48.4665,446.19,530.32
48.4869,450.16,532.66
48.5075,460.52,532.33
48.5318,463.82,528.06
48.5523,472.66,518.05
48.5729,486.72,509.84
48.5933,496.58,502.67
48.6138,502.66,497.54
48.6342,507.93,489.83
48.6588,510.54,482.46
48.6793,510.84,475.77
48.6997,514.47,473.42
48.7203,515.97,475.13
48.7408,512.38,476.91
48.7652,511.3,481.93
48.7858,510.24,486.94
48.8062,511.39,494.55
48.8267,514.12,502.44
48.8472,515.49,509.35
48.8678,516.39,515.48
48.8923,513.92,520.19
48.9127,516.93,524.15
48.9332,518.55,523.72
48.9538,517.84,520.38
48.9743,515.07,516.7
48.9987,513.86,510.56
49.0192,514.28,503.85
49.0398,513.83,497.48
49.0603,511.66,491.18
49.0807,507.53,488.35
49.1012,507.62,486.68
49.1257,506.3,488.74
49.1462,507.64,494.59
49.1668,509.51,500.47
49.1872,512.21,507.38
49.2077,514.77,511.7
49.2322,517.61,514.36
49.2527,517.29,518.29
49.2732,516.43,521.23
49.2937,512.95,521.39
49.3141,512.36,518.11
49.3346,512.89,512.29
49.3592,511.31,506.83
49.3798,507.45,501.06
49.4003,505.36,494.65
49.4209,504.89,489.92
49.4412,504.91,488.74
49.4617,506.73,488.19
49.4863,509.38,490.35
49.5067,511.71,495.08
49.5273,513.96,500.47
49.5476,517.17,507.57
49.5681,517.74,513.46
49.5927,517.79,519.97
49.6132,517.23,523.37
49.6336,516.59,525.3
49.6542,518.87,527.64
49.6747,525.09,525.31
49.6951,527.68,521.25
49.7196,528.14,516
49.7402,527.91,509
49.7606,525.73,505
49.7811,524.18,505.8
49.8017,522.95,518.24
49.826,522.56,555.19
49.8466,527.65,609.75
49.8672,536.12,666.4
49.8876,546.09,715.72
49.9081,555.27,750.58
49.9287,567.02,777.06
49.9533,573.42,793.45
49.9736,576.13,798.36
49.9942,573.91,789.69
50.0147,565.53,766.55
50.0351,555.02,732.04
50.0597,541.42,688.23
50.0802,526.33,637.59
50.1007,510.27,572.67
50.1212,490.41,500.33
50.1415,469.53,431.67
50.162,451.62,378.13
50.1866,437.1,344.91
50.2071,432.68,330.73
50.2277,431.34,328.38
50.248,434.67,334.5
50.2686,439.94,346.2
50.293,446.55,363.16
50.3136,452.24,380.13
50.3341,457.59,396.5
50.3545,462.47,407.4
50.375,464.38,412.72
50.3955,458.7,415.58
50.42,453.96,417.66
50.4405,454.57,420.73
50.461,456.66,423.38
50.4815,460.73,422.51
50.5019,464.78,423.61
50.5264,470.02,424.68
50.5469,476.62,429.15
50.5677,482.9,434.92
50.5881,489.72,443.93
50.6086,497.17,453.55
50.6291,500.14,462.64
50.6534,504.31,474.91
50.6739,508.85,484.53
50.6944,511.48,494.22
50.7149,515.38,499.38
50.7354,517.31,503.7
50.7559,515.25,504.56
50.7804,511.6,503.25
50.8009,512.08,500
50.8214,508.26,496
50.842,507.41,491.6
50.8624,506.53,488.88
50.887,504.22,486.3
50.9075,505.98,482.84
50.928,509.98,478.47
50.9485,527.19,475.38
50.9688,550.95,477.1
50.9893,565.36,480.48
51.014,572.69,487.79
51.0344,574.15,494.03
51.0549,573.32,500.22
51.0755,567.26,503.98
51.0958,560.2,508.58
51.1203,553.96,509.67
51.1408,543.17,509.33
51.1614,536.54,507.07
51.1818,531.83,504.85
51.2023,529.86,500.88
51.2228,529.69,495.31
51.2474,527.75,492.84
51.2679,525.4,491.28
51.2884,522.12,491.62
51.3089,516.7,493.3
51.3294,513.16,498.24
51.3538,512.53,503.59
51.3743,511.82,509.47
51.3948,511.26,516.38
51.4153,512.61,521.5
51.4358,516.08,526.2
51.4564,513.27,527.36
51.4808,509.01,525.89
51.5014,504.61,522.91
51.522,506.69,518.93
51.5423,503.75,514.14
51.5628,502.2,507.31
51.5832,500.96,501.05
51.6078,502.17,496.64
51.6284,504.13,493.71
51.6488,506.11,494.97
51.6693,504.89,497.78
51.6897,506.11,501.42
51.7142,506.89,507.14
51.7347,510.11,512.91
51.7552,511.69,517.93
51.7757,511.75,522.14
51.7964,507.4,526.51
51.8167,508.12,531.01
51.8412,510.5,532.61
51.8618,510.2,530.29
51.8822,507.56,529.03
51.9028,509.25,525.22
51.9232,507,516.38
51.9478,504.4,507.5
51.9683,501.32,499.4
51.9888,491.05,500.32
52.0092,492.64,494.86
52.0298,490.71,493.49
52.0501,490.57,494.79
52.0747,491.06,501.03
52.0953,498.85,502.42
52.1157,501.88,508.54
52.1362,498.5,509.03
52.1567,494.2,512.23
52.1812,487.36,515.78
52.2018,491.89,513.02
52.2224,493.31,508.62
52.2428,483.45,510.1
52.2632,492.76,504.08
52.2837,483.81,501.46
52.3083,494.45,498.97
52.3287,505.56,494.78
52.3492,508.05,492.62
52.3697,508.24,487.9
52.3904,508.79,489.12
52.4146,509.23,491.89
52.4353,513.19,497.11
52.4557,511.35,501.49
52.4762,514.08,508.59
52.4968,522.06,513.67
52.5171,514.05,518.94
52.5416,514.24,522.75
52.5622,517.39,525.2
52.5827,513.51,523.96
52.6032,510.21,520.97
52.6236,506.37,517.58
52.6442,503.3,512.46
52.6686,499.64,504.77
52.6892,499.71,500.81
52.7097,498.97,498.45
52.7301,497.57,496.16
52.7505,497.46,495.33
52.7752,493.37,498.06
52.7957,494.09,503.65
52.8162,492.27,508.32
52.8366,494.42,512.46
52.8571,497.74,519.17
52.8775,497.39,522.13
52.902,493.51,525.51
52.9226,493.81,526.2
52.943,495.65,524.76
52.9636,492.32,520.81
52.9842,490.05,515.05
53.0085,487.44,508.44
53.0291,486.55,502.95
53.0496,488.24,496.76
53.07,488.8,492.21
53.0905,494.44,490.17
53.111,498.75,488.93
53.1356,500.2,492.55
53.1561,500.76,498.24
53.1766,504.41,504.59
53.197,508.33,509.47
53.2175,509.26,514.38
53.2419,508.61,520.7
53.2625,505.49,523.56
53.283,505.99,524.05
53.3035,508.99,523.24
53.3239,510.19,520.79
53.3445,506.55,515.63
53.3689,500.24,510.31
53.3895,496,502.65
53.4102,493.8,497.52
53.4305,493.84,492.61
53.4509,493.67,489.69
53.4755,495.74,488.75
53.4959,499.39,491.8
53.5165,501.71,497.04
53.5369,502.97,501.63
53.5574,504.17,507.31
53.578,506.94,512.65
53.6024,507.75,519.72
53.623,508.4,522.77
53.6436,507.52,526.22
53.664,508.02,526.57
53.6844,507.01,523.66
53.7049,506.41,519.73
53.7294,504.73,514.58
53.7501,503.58,509.67
53.7705,503.87,503.93
53.7909,502.29,501.95
53.8114,503.83,504.36
53.8359,505.47,512.09
53.8564,506.17,526.87
53.877,506.14,546.69
53.8975,508.51,563.36
53.9179,511.61,574.48
53.9384,513.29,575.79
53.963,516.43,569.63
53.9835,516.34,560.7
54.004,517.08,549.36
54.0244,516.26,536.69
54.045,515.01,524.35
54.0693,515.01,511.28
54.0899,513.21,499.03
54.1104,510.96,487.42
54.1308,509.17,477.94
54.1513,507.14,471.15
54.1719,505.91,466.12
54.1964,505.13,464.1
54.2171,505.1,464.68
54.2374,507.48,468.14
54.2579,508.39,475.11
54.2783,510.31,483.89
54.3029,510.65,492.11
54.3233,509.92,500.69
54.3441,510.53,507.15
54.3644,508.83,511.92
54.3849,507.26,514.54
54.4053,505.81,514.83
54.4298,503.65,511.66
54.4504,501.92,506.73
54.4709,501.33,501.78
54.4913,500.27,496.43
54.5119,499.01,490.74
54.5362,498.61,487.79
54.5568,498.89,485.24
54.5773,499.71,485.39
54.5978,500.17,487.91
54.6183,500.34,491.73
54.6389,503.07,498.38
54.6634,506.25,506.31
54.6839,508.2,513.44
54.7043,510.16,521.76
54.7247,509.73,531.8
54.7453,501.98,547.04
54.7657,485.19,561.64
54.7903,463.75,568.91
54.8108,442.4,566.13
54.8313,424.32,558.3
54.8518,408.26,545.84
54.8722,399.2,533.27
54.8967,395.36,522.62
54.9174,396.69,513.49
54.9378,401.75,507
54.9584,409.6,503.6
54.9788,417.48,504.28
54.9992,425.99,506.62
55.0238,435.79,511.9
55.0442,445.43,518.12
55.0648,453.34,524.29
55.0852,459.28,534.24
55.1056,468.62,546.79
55.1302,488.9,545.43
55.1508,515.52,530.54
55.1713,544.21,512.64
55.1917,567.57,497.91
55.2122,582.86,484.73
55.2327,589.69,473.18
55.2572,591.95,464.15
55.2777,589.36,460.92
55.2982,587.89,461.53
55.3187,583.91,463.83
55.3391,578.73,468.66
55.3636,572.78,476.53
55.3844,568.63,485.02
55.4049,563.1,493.22
55.4252,557.68,500.77
55.4457,551.14,506.42
55.4662,544.52,511.14
55.4907,537.61,512.91
55.5113,533.49,511.53
55.5317,529.59,508.42
55.5522,526.27,504.34
55.5727,521.82,498.67
55.5971,517.46,493.34
55.6177,514.36,488.47
55.6381,513.09,485.77
55.6586,512.07,484.62
55.679,510.66,487.3
55.6995,511.93,494.44
55.7242,510.94,508.75
55.7446,511.55,535.8
55.765,509.44,569.44
55.7856,504.95,596.75
55.806,500.16,602.4
55.8266,496.93,591.72
55.851,495.54,572.18
55.8716,495.64,551.34
55.892,494.71,530.07
55.9125,494.57,510.06
55.933,496.45,492.25
55.9575,496.16,478
55.978,498.33,467.6
55.9985,499.26,460.08
56.019,500.81,455.86
56.0395,502.85,456.69
56.06,505.28,460.15
56.0846,507.02,467.52
56.105,509.62,475.62
56.1255,511.1,484.09
56.1461,511.28,492.28
56.1666,513.22,497.82
56.1909,513.38,502.26
56.2115,514.3,504
56.232,513.84,505.8
56.2525,513.87,504.64
56.273,511.1,500.91
56.2935,509.28,495.73
56.3179,506.62,489.79
56.3385,507.9,484.03
56.3591,507.52,480.22
56.3795,507.61,478.58
56.4,509.09,481.06
56.4244,510.27,484.85
56.4449,513.02,490.08
56.4655,513.42,496.86
56.4859,511.93,504.69
56.5066,513.35,512.15
56.527,513.48,517.72
56.5514,513.98,520.78
56.572,511.19,523.02
56.5925,508.75,523.42
56.613,507.2,520.13
56.6334,505.96,515.31
56.6539,504.77,509.45
56.6785,504.41,502.56
56.699,502.13,496.05
56.7195,502.9,491.24
56.74,504.12,488.19
56.7604,505.1,488.55
56.7849,506.68,490.24
56.8054,505.94,494.79
56.8259,508.35,501.23
56.8465,511.48,508.19
56.8671,511.79,514.55
56.8873,510.83,520.84
56.9119,509.06,524.87
56.9325,508.45,526.5
56.953,507.96,526.2
56.9736,508.97,524.56
56.994,508.77,521.85
57.0185,506.42,516.88
57.0389,500.14,511.5
57.0595,494.31,504.2
57.0799,489.85,498.36
57.1004,488.28,495.29
57.1209,487.62,493.43
57.1454,489.5,494.14
57.166,491.2,3.75325e-29
