Program Time [s],data 0,data 1
4.70811,510.88,520.16
4.7326,510.7,524.13
4.75317,510.36,527.3
4.7736,507.89,529.44
4.79409,507.91,530.55
4.81456,505.13,528.24
4.83905,505.3,523.99
4.85958,503.64,519.6
4.88014,502.91,513.48
4.90058,503.13,506.98
4.92112,501.91,500.18
4.94161,502.32,495.35
4.96608,503.66,493.08
4.9866,505.13,491.46
5.00718,509.5,493.17
5.02763,512.6,496.94
5.04805,515.28,501.95
5.07257,517.03,508.76
5.09313,518.02,514.81
5.11354,518.02,519.05
5.13404,518.41,522.04
5.15454,517.33,523.83
5.17503,516.86,522.66
5.19953,515.29,519.33
5.22004,512.63,515.06
5.24061,512.91,510.05
5.26109,513.93,504.44
5.28159,514.34,499.35
5.30204,514.67,494.88
5.3265,514.34,492.71
5.34713,512.47,492.96
5.36755,512.38,494.17
5.38803,512.1,497.54
5.40851,512.68,502.43
5.43297,513.34,509.54
5.45355,513.88,516.24
5.47402,514.5,520.99
5.49453,512.6,522.59
5.51497,512.08,523.07
5.53564,511.66,523.06
5.55997,508.73,520.85
5.58057,507.39,516.08
5.60102,504.91,510.06
5.62159,503.73,504.45
5.642,502.18,499.56
5.66642,502.94,494.25
5.68701,503.76,491.4
5.70752,504.8,491.52
5.72799,505.84,493.81
5.74845,506.68,498.25
5.76904,503.94,502.2
5.79345,497.75,503.96
5.81396,495.2,506.97
5.83444,495.16,511.38
5.85494,493.93,513.9
5.87542,493.34,515.32
5.89992,492.27,515.66
5.92048,489.62,514.52
5.94096,490.5,510.82
5.96149,491.6,505.86
5.98192,490.88,500.28
6.00236,492.5,495.63
6.02687,493,493.1
6.0474,491.6,492.88
6.06791,491.28,493.91
6.08841,493.42,494.92
6.10886,496.34,499.34
6.13333,498.07,505.27
6.15384,500.26,511.42
6.17438,505.81,516.93
6.19489,509.04,521.35
6.2154,511.04,525.08
6.23582,512.23,526.66
6.26039,511.38,525.93
6.28085,510.51,523.34
6.30144,511.01,518.68
6.32183,511,512.74
6.34232,508.2,506.19
6.36278,506.76,499.95
6.38732,506.41,494.96
6.40789,507.53,491.97
6.42838,509.02,490.98
6.44885,509.42,491.78
6.46932,511.33,495.02
6.49377,512.87,500.22
6.5143,514.89,506.98
6.5348,514.92,512.78
6.55536,516.13,517.42
6.57581,514.91,522.14
6.5964,513.52,523.91
6.62084,512.62,523.93
6.64143,511.3,520.94
6.66184,509.84,516.95
6.68231,508.87,512.36
6.70275,505.5,505.69
6.72732,504.2,498.95
6.74781,504.36,493.36
6.76835,505.09,490.49
6.78874,506.87,489.59
6.80927,506.89,490.27
6.8297,508.52,495.02
6.85426,508.81,500.42
6.87475,509.45,506.53
6.89525,510.56,512.03
6.91574,510.45,517.82
6.93621,508.16,522.26
6.9608,507.93,523.61
6.98126,509.34,522.68
7.00176,508.47,519.75
7.02224,508.98,514.8
7.0427,506.98,511.24
7.0632,505.19,505.19
7.08768,504.15,499.35
7.10823,505.92,493.48
7.1287,506.54,490.19
7.14927,507.23,489.35
7.16969,508.38,491.08
7.1942,509.51,494.86
7.21481,512.2,500.09
7.2353,514.76,506.67
7.25572,514.21,513.14
7.27621,514.37,518.31
7.29661,512.5,521.85
7.32115,512.4,523.88
7.34167,511.92,524.1
7.36221,510.53,522.08
7.38265,507.83,518.87
7.40316,506.06,514.69
7.4236,507.45,509.55
7.44822,506.36,503.24
7.46866,505.09,498.39
7.48913,504.67,494.32
7.50963,506.54,492.85
7.5301,509.03,493.68
7.55459,511.42,496.95
7.57516,511.74,501.36
7.59564,511.59,507.49
7.61614,513.87,513.39
7.6366,516.5,519.11
7.65709,514.2,522.49
7.6816,512.76,523.99
7.70219,511.41,523.79
7.72273,510.33,521.63
7.74316,509.06,517.31
7.76356,507.25,511.85
7.78807,506.8,506.28
7.80871,505.44,499.82
7.82909,505.35,495.06
7.84968,506.88,491.65
7.87006,506.5,489.52
7.89054,507.6,490.81
7.9151,509.48,493.25
7.93569,510.99,498.8
7.95613,511.39,505.24
7.97654,511.91,511.19
7.99711,513.93,516.35
8.02154,512.34,519.88
8.04208,510.87,522.71
8.0626,511.1,524.17
8.08307,510.08,523.93
8.10356,507.46,520.35
8.12409,505.77,515.08
8.1485,504.62,508.26
8.16906,505.09,502.21
8.18974,505.07,497.77
8.21003,505.06,494.41
8.23052,506.05,491.93
8.25502,507.64,492.74
8.27554,511.71,495.4
8.29608,517.77,499.72
8.31655,521.21,504.37
8.337,523.17,509.7
8.35759,525.14,514.36
8.38207,526.51,517.49
8.40261,525.01,520.19
8.4231,520.61,521.15
8.44352,518.09,520.92
8.46397,517.27,517.94
8.4845,514.41,512.75
8.50899,511.53,506.2
8.52957,509.43,499.16
8.54999,507.34,493.53
8.57054,507.27,490.02
8.59106,510.02,488.22
8.61545,510.61,488.77
8.63599,511.29,492.82
8.6566,512.03,498.86
8.67702,513.23,504.48
8.69746,514.18,510.39
8.71794,513.54,515.11
8.74253,511.24,519.09
8.76301,509.59,522.67
8.78342,507.87,523.34
8.80396,507.5,521.67
8.8244,506.4,517.74
8.84894,505.12,512.19
8.86944,504.29,506.35
8.88996,503.24,500.28
8.91046,503.79,495.62
8.93098,506.23,493.5
8.95148,506.78,492.8
8.97599,506.63,493.44
8.99653,506.9,496.35
9.01692,510.32,501.48
9.03749,511.06,507.39
9.05801,511.65,513.51
9.08236,511.92,518.81
9.10287,512.53,524.05
9.12347,504.23,532.44
9.14424,484.58,547.75
9.16442,458.27,565.2
9.18492,432.61,572.56
9.20943,411.29,568.45
9.22998,396.03,556.76
9.25048,385.03,539.21
9.27096,382.02,521.57
9.29136,383.42,506.85
9.31591,388.93,495.68
9.33635,398.15,486.35
9.35688,408.52,483.68
9.37744,420.01,485.34
9.39788,430.21,489.47
9.41836,439.17,494.58
9.44304,447.34,501.66
9.46336,453.27,509.93
9.48387,472.41,512.14
9.50439,503.93,510.72
9.52477,539.55,504.97
9.54926,575.44,497.98
9.56988,596.15,490.58
9.59035,606.12,484.07
9.61091,608.7,478.85
9.63132,608.16,475.08
9.65176,603.93,472.87
9.67624,596.94,473.09
9.69683,591.75,475.67
9.71731,584.8,480.34
9.73783,578.24,487.27
9.75828,572.59,494.62
9.77877,567.07,501.09
9.80357,559.66,508.88
9.8238,554.53,514.1
9.84428,549.62,516.68
9.86477,544.3,517.54
9.88525,538.44,515.64
9.90969,534.75,512.31
9.93026,533.2,508.05
9.95073,532.56,501.64
9.97133,530.45,496.11
9.99172,527.96,491.49
10.0122,527.17,488.59
10.0368,525.33,486.87
10.0573,524.67,487.9
10.0778,523.33,491.52
10.0982,522.87,496.61
10.1187,521.69,503.29
10.1432,520.75,509.63
10.1638,520,515.31
10.1842,515.4,518.45
10.2047,507.32,522.16
10.2252,500.46,523.33
10.2456,496.57,521.86
10.2701,493.85,517.89
10.2907,491.28,513.51
10.3112,492.63,508.41
10.3318,491.7,503.53
10.3522,491.76,498.42
10.3766,491.61,493.94
10.3972,493.29,492.15
10.4178,496.43,492.32
10.4381,497.54,495.26
10.4586,499.03,499.2
10.4791,501.43,504.56
10.5036,505.34,510.25
10.5242,507.27,515.8
10.5446,507.22,520.84
10.5651,507.18,524.07
10.5856,508.14,524.66
10.6101,506.91,523.13
10.6307,505.73,518.9
10.6513,503.38,514.32
10.6716,501.91,509.06
10.6921,501.73,503.45
10.7126,499.98,499.56
10.7371,508.78,495.45
10.7576,517.23,493.56
10.7782,524.18,493.44
10.7987,528.35,496.56
10.8191,531.08,501.84
10.8395,531.46,507.08
10.8641,530.57,512.86
10.8848,531.46,518.29
10.9051,530.36,523.23
10.9258,527.09,525.78
10.9462,523.27,526.63
10.9707,518.82,525.5
10.9912,517.05,521.8
11.0116,516.24,517.04
11.0322,514,511.03
11.0528,505.8,508.43
11.073,489.84,512.54
11.0977,467.67,519.23
11.1183,443.34,523.39
11.1386,421.67,525.51
11.159,404.93,524.61
11.1796,394.35,524.69
11.2041,389.88,524.15
11.2245,390.3,523.52
11.245,392.84,523.02
11.2656,398.67,521.81
11.2861,406.54,520.65
11.3067,414.43,519.32
11.331,423.14,517.66
11.3516,431.12,514.52
11.372,435.69,515.62
11.3926,447.35,518.3
11.4131,473.08,518.84
11.4376,508.07,515.07
11.4581,545.85,507.26
11.4785,583.08,499.8
11.4991,605.87,493.84
11.5194,619.09,491.47
11.5399,623.07,491.98
11.5645,623.46,494.18
11.5851,617.77,500.35
11.6057,610.41,505.68
11.6259,603.33,509.54
11.6464,595.47,513.43
11.671,586.77,514.95
11.6914,576.42,515.16
11.712,570.13,511.33
11.7326,570.31,506.66
11.7531,568.45,501.93
11.7734,564.76,496.94
11.7981,561.21,491.95
11.8186,554.56,488.36
11.8391,549.85,486.89
11.8597,546.68,488.31
11.8801,544.74,491.45
11.9005,541.8,495.76
11.925,537.24,501.01
11.9456,533.99,507.21
11.966,531.79,513.77
11.9864,528.03,518.81
12.007,526.23,521.85
12.0314,523.58,523.08
12.052,520.86,522.26
12.0725,519.49,519.61
12.0929,516.39,515.09
12.1137,514.51,510.07
12.1338,511.01,504.86
12.1583,509.21,499.49
12.179,508.77,495.99
12.1995,509.21,492.99
12.2201,509.17,491.79
12.2405,509.34,494.63
12.2648,510.47,498.91
12.2855,511.38,504.13
12.3061,512.1,509.9
12.3264,514.08,516.12
12.347,517.26,521.7
12.3673,518.61,525.16
12.392,519.09,527.53
12.4123,517.07,526.22
12.4329,515.26,524.38
12.4534,512.61,520.7
12.4738,511.88,515.36
12.4985,509.71,508.09
12.5189,506.77,500.87
12.5395,506.81,495.9
12.5599,506.25,492.72
12.5804,505.8,491.57
12.6009,507.24,492.86
12.6255,508.19,496.69
12.646,509.35,503.15
12.6663,511.28,509.72
12.6868,507.83,516.78
12.7073,494.26,528.22
12.7318,471.21,539.58
12.7523,443.77,549.66
12.7728,417.01,551.33
12.7933,393.41,544.46
12.8138,375.73,531.17
12.8344,364.38,516.74
12.8589,359.91,502.19
12.8793,360.93,488.75
12.8999,367.14,479.8
12.9202,376.91,474.44
12.9408,388.53,472.75
12.9613,401.02,474
12.9857,414.22,478.8
13.0062,423.78,486.84
13.0268,447.42,496.87
13.0473,483.94,509.1
13.0679,523.95,517.28
13.0923,553.76,520.42
13.1129,568.81,521.34
13.1334,576.65,522.27
13.1538,580.12,520.02
13.1742,579.49,516.01
13.1949,575.99,511.21
13.2192,569.4,504.77
13.2398,563.72,498.01
13.2603,563.37,492.01
13.2808,575.5,487.21
13.3012,584.6,485.97
13.3258,587.88,487.57
13.3462,589.1,491.86
13.3667,586.28,497.69
13.3874,583.83,503.35
13.4078,578.46,509.88
13.4283,571.97,515.7
13.4529,565.58,520.16
13.4734,559.26,522.73
13.4939,552.21,522.38
13.5143,545.17,520.11
13.5348,538.13,516.29
13.5591,533.31,511.03
13.5796,535.25,506.22
13.6002,533.6,499.38
13.6208,532.68,494.1
13.6412,530.74,491.68
13.6616,529.99,490.55
13.6861,529.79,491.64
13.7069,529.64,495.31
13.7273,522.91,500.65
13.7478,504.53,508.92
13.7682,483.62,517.33
13.7926,471.5,522.87
13.8133,463.6,526.69
13.8337,459.88,527.36
13.8541,458.7,526.08
13.8745,459.36,522.47
13.8951,461.49,517.17
13.9198,461.79,511.14
13.9403,466.83,504.31
13.9608,469.47,497.25
13.9811,472.17,494
14.0017,465.94,493.8
14.0262,451.35,497.64
14.0466,433.68,502.11
14.0672,418.54,505.49
14.0877,408.24,505.99
14.1081,404.59,509.39
14.1287,405.27,513.11
14.153,409.42,517.09
14.1736,416.53,519.67
14.194,423.43,521.34
14.2146,430.14,520.07
14.2351,437.71,517.86
14.2555,443.77,514.89
14.2801,451.42,511.11
14.3007,460.73,504.49
14.321,482.99,497.59
14.3416,517.59,492.47
14.3622,541.67,487.58
14.3867,558.34,484.46
14.407,567.27,486.37
14.4277,572.42,491.1
14.4482,573.53,496.28
14.4686,572.63,502.22
14.4889,568.7,508.38
14.5136,573.56,510.3
14.534,585.65,512.64
14.5546,590.52,514.11
14.5752,590.62,513.69
14.5955,586.69,510.75
14.6199,581.75,507.2
14.6406,576,503.76
14.661,567.8,497.81
14.6815,560.84,491.85
14.7021,555.07,486.28
14.7225,549.06,484.22
14.747,543.85,483.38
14.7676,539.88,484.9
14.7881,537.3,489.12
14.8084,535.04,495.1
14.8289,533.03,501.28
14.8534,531.63,508.62
14.8739,529.3,514.5
14.8945,526.24,519
14.9149,523.39,521.6
14.9354,519.71,522.88
14.9558,522.97,522.1
14.9804,525.98,518.68
15.0009,526.38,513.55
15.0215,525.91,507.84
15.042,524.52,502.67
15.0624,524.02,498.14
15.0868,522.62,494.11
15.1075,522.09,493.09
15.1279,526.27,495.07
15.1485,528.02,499.26
15.1689,529.62,504.8
15.1896,530.69,511.24
15.214,530.95,516.79
15.2344,529.56,522.44
15.2549,526.45,526.55
15.2753,525.16,528.04
15.2958,523.53,528.23
15.3163,521.02,526.38
15.3409,517.62,522.51
15.3615,516.89,517.01
15.3818,514.52,510.61
15.4025,512.41,504.28
15.4228,512.33,498.63
15.4473,512.66,496.1
15.4678,507.33,496.88
15.4883,488.86,503.91
15.5088,465.49,510.92
15.5293,441.19,518.54
15.5498,418.55,525.83
15.5743,399.44,528.87
15.5949,386.96,530.29
15.6153,379.36,530.23
15.6358,375.49,530.59
15.6563,378.79,528.87
15.6808,382.83,525.7
15.7013,389.87,520.56
15.7218,398.29,514.85
15.7423,407.44,508.68
15.7627,415.75,503.14
15.7836,436,496.91
15.8078,468,493.13
15.8283,494.2,490.3
15.8488,512.76,489.84
15.8693,524.21,491.67
15.8897,544.77,495.74
15.9144,570.41,501.79
15.9348,598.53,505.43
15.9552,617.22,508.15
15.9757,624.38,510.72
15.9962,622.9,512.57
16.0167,619.52,512.46
16.0413,612.02,510.77
16.0618,603.41,506.41
16.0823,593.73,500.93
16.1027,583.19,494.94
16.1232,574.55,489.56
16.1478,567.04,484.44
16.1682,559.43,481.56
16.1887,552.94,480.64
16.2092,548.96,482.72
16.2297,550.76,488.57
16.2502,548.41,495.06
16.2747,545.93,501.65
16.2952,543.74,509.52
16.3158,541.79,516.21
16.3361,539.04,521.77
16.3567,535.23,524.82
16.3771,530.38,526.25
16.4016,526.91,524
16.4222,524.93,521.4
16.4427,523.14,516.52
16.4631,519.51,509.62
16.4837,514.81,503.09
16.5081,513.25,496.28
16.5287,512.4,492.42
16.5492,511.92,490.54
16.5698,511.13,490.83
16.5903,510.71,492.86
16.6106,510.37,497.49
16.6352,511.29,503.99
16.6558,511.23,509.99
16.6761,510.99,516.4
16.6967,510.39,520.72
16.7172,509.31,524.17
16.7416,508.45,525.14
16.7621,507.36,523.71
16.7826,505.29,520.37
16.8031,504.03,515.69
16.8236,503.82,509.36
16.8441,502.26,502.88
16.8686,501.61,497.31
16.8892,500.69,494.25
16.9096,501.95,492.4
16.9302,502.96,492.92
16.9506,505.17,495.13
16.975,507.53,499.51
16.9955,510.23,504.81
17.0161,512.18,511.24
17.0365,509.95,516
17.057,509.16,520.4
17.0776,507.73,523.32
17.102,507.78,524.65
17.1226,506.62,522.52
17.143,505.5,518.62
17.1635,503.8,513.69
17.184,502.24,508.76
17.2085,501.59,502.2
17.2291,501.47,495.96
17.2497,500.98,493.57
17.27,493.38,498.66
17.2905,477.51,510.93
17.3111,457.01,525.14
17.3357,433,532.31
17.3562,413,533.45
17.3767,397.2,532.56
17.397,387.16,531.65
17.4175,381.73,529.72
17.438,382.18,526.17
17.4625,386.15,523.34
17.4831,391.72,520.27
17.5035,398.77,516.22
17.5241,406.22,509.57
17.5445,414.18,502.86
17.569,422.34,496.49
17.5895,431.27,490.39
17.6099,439.22,487.91
17.6304,459.17,486.33
17.6509,491.94,488.26
17.6714,530.35,491.21
17.6961,567.68,493.97
17.7165,598.35,496.78
17.737,615.08,499.82
17.7577,623.06,504.86
17.7779,625.45,509.48
17.8024,622.36,511.99
17.823,614.49,513.59
17.8436,605.99,512.87
17.864,597.19,510.3
17.8844,588.55,507.04
17.9049,579.64,502.23
17.9294,568.71,496.38
17.9499,558.97,490.51
17.9705,557.98,486.01
17.9909,558.38,484
18.0115,554.51,485.4
18.0358,552,488.72
18.0564,549.8,494.58
18.0771,547.24,501.06
18.0974,545.39,508.25
18.118,542.72,514.6
18.1384,537.77,519.68
18.1629,534.42,523.34
18.1835,532.73,525.08
18.2038,527.59,524.66
18.2244,522.87,521.33
18.2448,520.3,517.26
18.2695,517.24,511.61
18.2898,513.99,506.49
18.3104,513.19,500.59
18.3309,513.35,495.67
18.3514,511.88,493.94
18.3719,513.11,494.95
18.3963,513.08,496.76
18.4168,514.07,500.81
18.4373,515.25,506.25
18.4578,515.8,512.2
18.4783,515.24,516.96
18.4988,516.59,522.17
18.5233,517.68,526.13
18.5438,515.74,528.31
18.5643,512.99,528.85
18.5848,511.79,526.08
18.6053,509.44,520.66
18.6298,507.55,515.13
18.6503,502.64,510.1
18.6709,489.91,507.88
18.6914,467.53,508.71
18.7119,442.02,509.96
18.7323,416.82,508.57
18.7568,397.65,506.46
18.7773,384.52,504.77
18.7978,378.82,504.61
18.8183,382.06,506.89
18.8389,389.04,509.71
18.8634,395.84,513.37
18.8837,403.67,515.5
18.9043,411.13,516.4
18.9247,418.91,515.52
18.9452,427.93,513.21
18.9659,435.34,508.37
18.9903,443.27,503.3
19.0109,449.22,496.84
19.0313,456.77,491.67
19.0517,464.02,486.94
19.0723,470.02,484.95
19.0967,474.41,484.16
19.1172,479.93,486.53
19.1377,483.34,492.22
19.1583,499.48,497.58
19.1787,524.38,505.66
19.1991,557.3,509.73
19.2238,593.44,510.18
19.2442,622.95,511.35
19.2647,637.96,511.88
19.2852,641.97,510.9
19.3057,639.38,508.12
19.3301,632.9,503.1
19.3506,624.92,498.08
19.3713,615.54,492.86
19.3916,603.83,488.69
19.4124,594.46,486.35
19.4326,585.17,485.28
19.4571,576.74,485.63
19.4777,571.39,488.3
19.4983,563.51,493.64
19.5188,556.61,499.91
19.5392,551.29,506.73
19.5636,546.03,512.98
19.5841,542.42,519.19
19.6049,536.54,522.95
19.6251,532.43,524.76
19.6456,527.55,523.81
19.6661,523.64,521.45
19.6907,520.11,517.56
19.7112,517.69,513.05
19.7317,511.75,506.84
19.752,508.4,501.07
19.7726,507.52,496.46
19.793,507.42,494.56
19.8177,506.73,493.85
19.8381,506.19,496.88
19.8586,505.35,500.9
19.879,506.68,506.52
19.8995,509.74,512.22
19.924,511.19,517.98
19.9447,509.96,524.18
19.9651,510.16,528.34
19.9856,509.53,528.88
20.006,509.63,527.9
20.0267,508.3,524.52
20.0511,505.44,520.42
20.0716,503.55,514.73
20.0922,503.04,506.79
20.1125,504.23,499.63
20.133,504.39,495.5
20.1576,502.91,493
20.1781,503.33,492
20.1987,505.26,494.2
20.219,507.41,498.16
20.2397,508.93,504.53
20.26,511.54,510.62
20.2846,513.43,522.3
20.3052,505.75,536.64
20.3256,484.4,555.91
20.346,456.72,573.93
20.3666,426.77,578.74
20.3909,404.02,569.59
20.4116,388.42,554.08
20.432,380.53,535.86
20.4526,380.83,518.29
20.473,386.86,502.03
20.4936,393.69,489.42
20.518,405.35,481.14
20.5385,415.68,478.11
20.5591,426.14,478.89
20.5796,435.52,481.51
20.5999,452.41,487.21
20.6205,483.53,497.37
20.6449,508.82,506.69
20.6655,526.06,512.96
20.6861,536.25,516.96
20.7064,541.6,520.17
20.727,545.28,520.94
20.7514,545.42,518.95
20.7719,555.34,511.36
20.7925,570.27,503.89
20.813,579.22,495.11
20.8335,583.17,487.69
20.8538,582.74,483.15
20.8784,581.39,481.32
20.899,578.51,481.86
20.9194,576.01,485.29
20.94,572.61,490.63
20.9604,567.49,496.3
20.9848,561.59,502.24
21.0056,557.27,506.79
21.0259,560.42,511.83
21.0464,561.53,514.07
21.0669,560.03,515.25
21.0873,556.42,515
21.1118,551.54,512.4
21.1324,546.23,508.12
21.1528,541.38,503.3
21.1735,537.31,498.24
21.1938,532.45,492.99
21.2184,530.36,489.19
21.239,528.09,487.35
21.2594,526.87,486.68
21.2798,524.89,488.35
21.3003,524.32,493.28
21.321,524.05,500.02
21.3453,523.64,506.62
21.3659,522.71,512.69
21.3864,521.37,518.56
21.4068,519.1,522.44
21.4273,515.68,524.56
21.452,513.14,524.24
21.4724,511.31,521
21.4929,510.05,517.2
21.5133,509.84,512.36
21.5338,506.07,508.69
21.5542,502.26,507.15
21.579,485.41,526.52
21.5994,455.53,571.62
21.6198,424.82,617.89
21.6403,395.66,643.91
21.6608,374.12,645.33
21.6853,363.1,629.66
21.7059,358.68,602.53
21.7264,361.34,572.03
21.7469,368.48,544.82
21.7675,377.98,521.86
21.7877,389.98,504.49
21.8123,400.99,492.59
21.8327,412.39,482.27
21.8532,420.71,473.62
21.8737,431.37,467.09
21.8945,440.3,461.27
21.9147,445.84,457.82
21.9393,465.47,454.66
21.9597,496.18,454.32
21.9802,536.34,452.26
22.0008,577.67,451.41
22.0212,612.74,453.33
22.0458,633.19,458.26
22.0662,643.55,465.81
22.0867,645.04,475.65
22.1072,641.43,484.32
22.1276,632.35,489.85
22.1482,622.08,494.08
22.1727,610.86,497.67
22.1933,600.09,498.53
22.2139,588.47,498.03
22.2343,577.18,496.62
22.2546,566.14,491.9
22.2791,558.31,486.92
22.2997,552.05,483.53
22.3201,545.04,482.43
22.3408,540.43,483.94
22.3612,537.15,486.15
22.3816,533.72,490.92
22.4062,530.77,497.54
22.4266,529.22,504.43
22.4473,527.78,511.34
22.4676,524.82,517.88
22.4882,521.66,521.7
22.5127,518.72,524.36
22.5334,516.98,525.49
22.5538,515.98,522.79
22.5741,514.39,519.03
22.5947,512.71,514.23
22.6153,510.57,508.18
22.6396,509.45,501.74
22.6601,508.36,497.2
22.6806,508.29,494.56
22.7011,509.03,493.65
22.7216,510.03,495.52
22.742,510.42,499.61
22.7667,511.94,504.49
22.7871,514.15,510.59
22.8076,514.12,516.67
22.8281,514.1,521.74
22.8486,512.88,525.39
22.873,511.7,527.31
22.8936,509.96,527.05
22.9141,509.17,524.44
22.9346,507.34,520.15
22.955,506.67,514.92
22.9757,504.93,508.14
23,504.95,501.51
23.0206,505.36,497.21
23.041,504.69,494.97
23.0615,504.95,494.37
23.082,506.96,496.3
23.1066,508.97,499.64
23.127,509.57,505.31
23.1475,510.06,511.85
23.168,510.85,517.08
23.1886,511.08,523.06
23.2089,508.86,526.45
23.2337,508.69,528.16
23.254,506.75,527.53
23.2746,505.8,524.22
23.295,504.04,519.58
23.3155,501.83,514.06
23.34,501.87,507.05
23.3605,502.29,500.44
23.381,496.23,499.15
23.4015,478.39,502.92
23.4219,456.11,510.14
23.4424,429.89,517.51
23.4669,407.11,524.41
23.4874,388.69,528.33
23.5081,378.15,530.46
23.5285,373.52,531.97
23.5489,374.22,533.58
23.5734,378.77,533.86
23.594,385.62,534.49
23.6146,393.29,534.99
23.6349,401.24,542.19
23.6554,420.59,558.75
23.6758,451.87,577.8
23.7003,492.7,583.44
23.7209,530.36,572.75
23.7417,564.89,551.2
23.762,593.71,524.76
23.7825,610.17,502.81
23.8029,618.33,488.65
23.8274,621.27,481.32
23.848,619.41,478.85
23.8685,613.73,481.88
23.8889,606.18,484.91
23.9094,597.95,488.93
23.9339,588.16,491.54
23.9544,579.53,493.83
23.9749,570.62,494.87
23.9953,562.9,493.29
24.0158,555.72,491.23
24.0363,548.17,486.39
24.0609,540.34,481.91
24.0815,535.07,479.33
24.1019,529.26,476.26
24.1225,526.81,474.41
24.143,525.44,471.53
24.1673,523.96,473.62
24.1878,523.56,479.3
24.2085,523.85,485.64
24.2289,522.88,492.51
24.2494,521.31,499.61
24.2698,520.24,506.89
24.2943,518.4,511.51
24.3149,516.52,514.41
24.3353,515.21,513.93
24.3558,513.97,511.94
24.3765,511.78,509.15
24.4009,508.42,504.52
24.4214,506.74,498.22
24.4418,505.19,492.57
24.4624,501.95,489.66
24.4827,491.56,487.73
24.5033,483.05,487.78
24.5278,481.04,490.43
24.5483,480.43,495.34
24.5688,480.95,501.07
24.5894,481.56,507.66
24.6098,482.04,514.33
24.6342,484.64,519.26
24.6547,486.11,521.81
24.6754,487.89,522.65
24.6958,490.11,520.52
24.7162,490.89,517.21
24.7367,492.51,513.57
24.7612,492.81,508.26
24.7819,494.05,501.01
24.8024,494.44,495
24.8228,495.55,490.8
24.8432,496.44,489.04
24.8678,499.55,489.43
24.8883,502.24,492.15
24.9087,505.39,496.92
24.9293,506.31,503.33
24.9498,509.05,510.47
24.9702,506.04,514.77
24.9947,497.43,518.02
25.0152,491.15,520.22
25.0359,487.32,521.77
25.0561,484.25,520.82
25.0767,483,517.25
25.0972,481.8,512.6
25.1216,482.44,507.08
25.1422,483.15,500.47
25.1626,483.92,494.37
25.1831,485.54,489.5
25.2037,487.63,489.2
25.2281,481.1,499.16
25.2486,466.08,515.53
25.2694,448.07,531.22
25.2898,428.85,542.38
25.3101,414.48,548.9
25.3306,407.39,552.32
25.3551,405.51,553.46
25.3757,407.21,551.97
25.3962,411.37,548.77
25.4167,418.49,544.82
25.4371,424.39,539.05
25.4616,430.12,530.64
25.4821,441.09,522.11
25.5026,464.87,509.69
25.5231,501.1,492.35
25.5436,540.08,475.28
25.5641,565.46,463.43
25.5886,579.97,457.94
25.6091,588.78,458.15
25.6295,592.22,462.92
25.6501,593.18,469.14
25.6706,589.34,476.71
25.695,583.67,484.77
25.7156,574.94,493.41
25.7361,566.75,500.53
25.7565,558.2,505.63
25.777,549.16,507.1
25.7975,541.33,506.28
25.822,536.06,503.42
25.8425,530.45,499.94
25.863,525.56,495.35
25.8837,522.25,490.88
25.904,520.4,487.7
25.9245,518.52,486.36
25.949,518.02,487.89
25.9696,518.81,492.11
25.9901,519.05,497.49
26.0106,519.64,504.19
26.031,519.31,511.75
26.0555,517.65,518
26.076,516.52,522.4
26.0966,514.62,525.52
26.117,512.49,526.82
26.1375,512.39,526.05
26.158,511.32,522.44
26.1826,509.65,516.95
26.2032,508.92,509.96
26.2235,508.34,503.57
26.244,507.67,499.06
26.2646,508.34,495.25
26.289,508.47,493.4
26.3095,508.58,493.92
26.3301,509.66,497.33
26.3504,512.53,502.27
26.3711,512.02,507.81
26.3914,513.02,514.45
26.4159,515.01,520.96
26.4364,515.21,524.97
26.4572,514.57,527.97
26.4774,512.46,526.78
26.4979,509.56,524.42
26.5225,507.85,520.34
26.5429,507.68,515.07
26.5635,506.54,508.86
26.5839,507.04,502.09
26.6044,506.83,496.67
26.6249,507.46,493.73
26.6494,508.17,492.99
26.67,508.94,494.59
26.6904,509.55,499.07
26.7108,509.84,504.66
26.7315,510.27,509.93
26.7559,511.02,516.34
26.7764,512.61,521.67
26.7969,511.89,525.74
26.8174,512.11,528.19
26.8378,511.49,528.95
26.8583,509.39,525.16
26.8828,505.31,515.33
26.9034,503.45,504.46
26.9238,502.96,494.37
26.9444,502.37,485.7
26.9649,502.89,479.36
26.9893,503.52,475.69
27.0098,505.41,473.15
27.0304,507.33,475.32
27.0508,508.06,479.86
27.0714,509.85,485.88
27.0918,512.88,491.91
27.1163,514.9,498.93
27.1368,515.32,505.94
27.1574,518.46,510.55
27.1778,520.37,513.84
27.1983,519.49,515.27
27.2187,517.2,514.82
27.2433,516.76,511.26
27.2638,516,507.4
27.2843,512.6,502.72
27.3047,510.08,496.98
27.3252,519.87,491.78
27.3497,529.49,491.43
27.3703,534.19,490.74
27.3908,537.76,493.39
27.4112,537.8,497.71
27.4317,537.44,503.77
27.4522,535.95,510.02
27.4767,533.96,515.81
27.4973,531.57,521.05
27.5177,529.26,524.04
27.5382,526.81,526.83
27.5587,520.44,526.27
27.5832,516.36,523.41
27.6037,515.08,519.93
27.6242,514.27,517.34
27.6447,515.81,511.68
27.6652,513.45,505.54
27.6857,511.96,500.23
27.7103,510.97,496.39
27.7308,513.18,495.51
27.7512,512.14,497.61
27.7717,509.91,499.89
27.7922,503.73,500.51
27.8167,501.98,504.61
27.8372,500.79,509.69
27.8577,499.63,515.55
27.8782,501.5,520.24
27.8987,499.8,522.39
27.9193,501.04,522.91
27.9437,500.43,520.53
27.9643,501.35,516.82
27.9847,500.48,511.26
28.0052,498.38,507.61
28.0256,489.71,503.69
28.0501,481.16,501.75
28.0707,479.33,499.6
28.0912,479.67,498.28
28.1116,481.93,501.02
28.1322,488.15,504.82
28.1526,493.92,508.66
28.1771,498.93,512.92
28.1977,505.15,519.74
28.2181,503.32,521.39
28.2386,501.45,523.11
28.2591,499.16,522.49
28.2835,496.93,520.59
28.3041,498.14,517.67
28.3247,497.92,512.94
28.3452,498.73,507.35
28.3656,499.19,501.08
28.386,500.55,496.46
28.4106,499.04,490.17
28.4311,500.83,483.34
28.4516,500.87,479.27
28.4721,503.09,479.82
28.4926,506.07,483.45
28.513,510.86,490.16
28.5376,514.09,497.73
28.5581,515.07,504.98
28.5786,516.26,509.19
28.5991,515.8,513.35
28.6195,513.84,514.88
28.6441,511.27,514.9
28.6646,511.82,513.12
28.6851,509.86,509.7
28.7056,507.28,508.96
28.7261,505.83,515.17
28.7466,504.66,522.53
28.771,502.53,523.03
28.7916,506.62,524.02
28.812,513.1,523.02
28.8325,511.28,522.01
28.853,520.42,522.41
28.8775,523.34,531.53
28.898,521.07,541.62
28.9185,524.26,541.1
28.9391,547.41,545.28
28.9596,539.32,533.22
28.98,531.26,531.18
29.0045,542.61,528.94
29.0251,543.49,528.15
29.0455,536.59,530.52
29.066,521.27,520.82
29.0866,513.62,509.85
29.111,496.89,512.28
29.1316,522.31,514.63
29.152,517.85,505.3
29.1726,539.48,506.84
29.193,533.59,505.87
29.2134,539.67,507.1
29.2379,543.53,522.68
29.2586,554.43,523.94
29.2789,546.14,529.55
29.2995,549.51,537.64
29.32,533.21,541.11
29.3445,519.57,537.29
29.365,527.46,534.83
29.3855,514.96,528.27
29.4059,508.57,524.01
29.4265,506.46,517.41
29.447,495.17,500.93
29.4714,496.93,491.94
29.492,493.75,488.55
29.5126,506.8,491.84
29.533,505.44,488.67
29.5534,499.15,489.34
29.5739,507.92,496.87
29.5984,507.74,505.7
29.619,505.79,509.76
29.6394,511.03,516.61
29.6599,509.82,519.89
29.6803,508.46,523.31
29.7048,505.97,522.85
29.7255,502.77,520.88
29.7459,498.62,515.3
29.7664,496.7,507.84
29.7869,494.16,500.27
29.8074,490.93,492.42
29.832,489.54,485.73
29.8524,487.83,481.19
29.8729,490.67,481.35
29.8934,492.53,481.68
29.9139,495.03,485.94
29.9384,503.82,489.36
29.9589,509.26,497.28
29.9794,511.21,503.43
29.9999,514.16,510.54
30.0203,515.93,515.43
30.0409,515.15,517.75
30.0653,516.32,520.6
30.0859,511.85,519.28
30.1064,509.28,513.42
30.1269,503.83,506.34
30.1474,503.66,499.27
30.1719,499.93,491.62
30.1924,500.14,486.69
30.2129,499.51,483.55
30.2334,500.81,482.84
30.2538,501.05,481.87
30.2743,505.44,483.5
30.2988,507.15,488
30.3194,513.52,497
30.3398,517.82,504
30.3603,520.25,512.2
30.3808,522.2,517.16
30.4053,522.16,521.73
30.4258,516.73,522.18
30.4463,514.38,519.55
30.4668,512.31,516.24
30.4872,506.65,511.99
30.5077,505.52,507.19
30.5322,503.41,500.95
30.5528,502.53,495.56
30.5733,503.02,492.25
30.5937,503.02,490.8
30.6142,505.42,494.24
30.6347,509.13,498.39
30.6592,511.91,504.51
30.6798,515.32,512.21
30.7004,519.86,519.17
30.7207,522.29,524.74
30.7412,523.23,529.19
30.7657,521.38,531.35
30.7862,518.91,532.08
30.8067,515.53,528.66
30.8272,512.42,522.33
30.8477,509.54,515.27
30.8682,505.43,507.41
30.8929,502.14,499.73
30.9134,505.11,493.18
30.9339,505.89,489.55
30.9544,506.51,487.64
30.9746,507.61,491.11
30.9993,506.89,498.69
31.0198,506.11,506.15
31.0403,506.89,511.92
31.0609,506.31,519.14
31.0813,505.65,523.91
31.1018,506.32,525.73
31.1262,506.06,524.58
31.1468,505.04,521.47
31.1673,504.84,518.97
31.1878,506.07,515.58
31.2082,506.05,512.46
31.2326,504.44,509.97
31.2532,504.36,505.78
31.2737,505.08,504.02
31.2941,506.47,503.22
31.3146,500.97,508.57
31.3351,484.18,521.26
31.3597,462.94,536.41
31.3802,441.15,550.33
31.4007,420.92,561.66
31.4213,407.34,568.53
31.4416,402.07,571.22
31.4661,401.46,567.58
31.4867,402.97,562.46
31.5072,407.77,555.57
31.5276,414.22,547.26
31.5481,421.37,537.8
31.5685,430.9,527.24
31.5931,439.52,518
31.6136,447.62,507.8
31.6341,455.29,499.64
31.6546,460.43,499.31
31.6751,477.95,505.85
31.6996,504.56,512.68
31.72,539.05,505.74
31.7406,570.24,494.39
31.7611,588.99,488.12
31.7816,596.59,487.69
31.802,599.07,489.95
31.8266,597.46,492.76
31.847,592.37,494.61
31.8678,585.29,494.69
31.888,577.63,492.55
31.9086,570.51,488.64
31.929,563.81,482.71
31.9538,558.45,476.37
31.974,547.96,468.3
31.9947,540.36,462.24
32.0152,535.49,459.39
32.0356,529.99,460.51
32.0601,527.99,466.61
32.0807,528.6,476.09
32.1011,525.48,486.87
32.1217,524.98,498.5
32.142,522.79,507.6
32.1624,520.03,516.88
32.187,518.62,522.5
32.2075,515.5,524.8
32.2281,514.2,524.64
32.2485,512.56,522.31
32.269,511.45,517.05
32.2936,510.76,510.24
32.314,510.21,502.19
32.3345,509.56,494.55
32.355,510.85,489.04
32.3755,512.28,486.63
32.3961,514.83,485.31
32.4206,516.66,488.25
32.441,517.33,494.6
32.4614,517.26,502.48
32.4819,515.61,512.18
32.5024,515.89,522.75
32.5269,514.51,531.8
32.5474,511.61,536.04
32.5679,508.89,537.63
32.5885,508.11,535.7
32.6089,507.49,531.16
32.6294,506.59,524.13
32.6539,505.67,513.9
32.6745,505.94,504.32
32.6949,506.75,495.26
32.7154,507,488.81
32.7358,507.6,484.85
32.7605,508.48,484.28
32.7809,509.98,488.62
32.8014,509.19,496.5
32.8219,507.35,504.4
32.8424,505.08,514.32
32.8629,504.26,523.45
32.8874,502.01,530.56
32.908,500.21,535.45
32.9284,499.17,536.96
32.9489,498.13,535.17
32.9695,498.11,530.33
32.9899,498.69,523.27
33.0144,499.35,513.21
33.0351,498.48,502.77
33.0556,499.38,492.62
33.0758,499.91,486.49
33.0964,500.93,483
33.121,502.94,482.4
33.1414,504.75,486.72
33.1618,505.4,493.97
33.1824,506.32,502.78
33.2029,506.86,512.22
33.2233,506.09,522.38
33.2479,505.27,530.5
33.2684,504.01,535
33.2888,503.21,537.2
33.3093,503.57,534.76
33.3298,503.66,529.61
33.3543,502.92,522.29
33.3748,504.54,513.03
33.3953,505.43,503.82
33.4158,505.95,495.06
33.4363,506.76,488.05
33.4569,508.61,484.64
33.4812,511.08,484.91
33.5019,514.27,489.13
33.5223,513.61,496.5
33.5428,514.89,504.8
33.5633,516.11,514.84
33.5877,516.29,524.47
33.6083,516.83,534.38
33.6288,514.67,542.3
33.6493,511.93,544.04
33.6698,509.55,544.43
33.6903,508.24,541.95
33.7147,507.59,536.16
33.7352,507.87,526.93
33.7557,507.3,517.14
33.7763,509.24,508.71
33.7968,510.19,501.37
33.8212,510.55,496.1
33.8418,512.04,495.28
33.8623,513.23,498.82
33.8829,514.99,505.66
33.9032,515.39,514.33
33.9237,516.71,523.26
33.9482,515.57,531.21
33.9687,515.86,537.17
33.9892,514.68,540.73
34.0098,515.75,541.59
34.0302,514,536.07
34.0506,514.2,528.06
34.0751,514.16,518.24
34.0957,513.33,507.8
34.1162,514.46,496.64
34.1368,515.57,486.31
34.1572,511.26,484.85
34.1817,496.2,494.28
34.2022,475.16,508.62
34.2227,454.33,520.9
34.2432,434.86,529.52
34.2637,419.29,535.61
34.2841,407.43,540.89
34.3086,402.15,546.31
34.3292,400.72,547.65
34.3496,401.37,546.92
34.3701,405.5,542.94
34.3906,410.8,536.75
34.4151,417.84,528.6
34.4357,426.27,518.68
34.4562,434.22,507.74
34.4766,441.17,496.59
34.4971,449.14,488.28
34.5176,456.91,482.22
34.5422,464.13,478.98
34.5627,470.7,480.38
34.5832,476.16,485.71
34.6036,481.13,493.16
34.6241,485.7,503.33
34.6487,485.36,518.27
34.6691,492.49,542.81
34.6897,505.59,574.45
34.7101,528.27,607.16
34.7306,555.82,623.73
34.7511,581.06,612.18
34.7757,603.44,582.35
34.7961,617.56,546.88
34.8166,621.64,511.1
34.8371,622.12,479.08
34.8579,617.29,455.06
34.8822,610.63,438.05
34.9026,602.91,427.04
34.9232,594.93,424.03
34.9436,587.94,427.43
34.9641,580.55,436.34
34.9846,571.64,448.07
35.0091,563.91,460.06
35.0296,557.93,471.65
35.05,551.14,481.92
35.0706,544.32,488.53
35.0911,537.25,494.03
35.1115,533.6,494.02
35.136,528.48,492.02
35.1566,524.79,487.21
35.1771,520.63,481.37
35.1975,517.1,473.5
35.2182,514.68,468.2
35.2425,513.35,465.36
35.263,512.28,465.29
35.2836,512.42,468.63
35.3041,515.14,477.7
35.3245,515.11,488.16
35.3451,513.89,498.93
35.3695,513.71,510.54
35.3901,513.17,520.64
35.4106,511.33,527.51
35.4311,508.67,532.01
35.4515,507.53,532.21
35.4759,506.43,528.56
35.4965,504.94,522.65
35.517,505.15,514.32
35.5374,505.12,504.06
35.5579,506.7,495.65
35.5784,507.76,488.32
35.6029,507.21,482.85
35.6235,507.77,480.88
35.6439,509.01,482.31
35.6644,509.61,487.44
35.6848,510.49,495.16
35.7093,510.99,504.52
35.7299,511.19,513.42
35.7504,511.35,522.14
35.7709,510.88,528.91
35.7913,508.91,533.33
35.8118,508.93,539.86
35.8363,508.34,544.89
35.8569,506.07,564.11
35.8773,503.06,591.69
35.8978,502.45,602.15
35.9184,503.56,588.32
35.9429,504.45,563.86
35.9634,506.96,537.49
35.9839,509.57,513.59
36.0044,510.85,497.27
36.0248,510.88,487.42
36.0454,511.51,482.93
36.0699,511.2,483.75
36.0903,512.16,487.4
36.1109,513.13,491.52
36.1313,513.5,495.81
36.1518,511.8,497.85
36.1764,511.64,498.28
36.1968,510.31,495.62
36.2173,509.85,491.7
36.2379,509.88,484.76
36.2583,509.71,477.01
36.2788,509.56,470.21
36.3033,510.85,465.77
36.3238,511.08,462.81
36.3444,513.46,463.05
36.3649,515.57,467.64
36.3853,516.66,475.31
36.4057,518.33,485.05
36.4303,518.06,496.64
36.4508,517.45,508.71
36.4712,509.56,524.17
36.4918,493.25,545.54
36.5123,469.6,564.03
36.5367,446.28,574.82
36.5573,426.42,577.86
36.5778,410.74,575.29
36.5983,400.79,568.83
36.6188,400.43,557.46
36.6393,402.75,542.97
36.6637,409,530.38
36.6843,416,520.5
36.7048,426.6,514.2
36.7252,435.08,513.16
36.7457,440.86,515.73
36.7702,449.29,520.38
36.7907,456.63,526.91
36.8113,463.11,534.13
36.8318,467.88,540.5
36.8523,469.91,544.2
36.8727,466.93,545.36
36.8972,463.14,542.89
36.9177,461.71,537.71
36.9383,460.37,528.37
36.9587,462.1,516.09
36.9792,468.68,500.88
37.0036,479.34,485.1
37.0242,499.47,473.48
37.0447,531.38,464.38
37.0652,567.9,458.51
37.0857,605.52,456.61
37.1061,635.02,461.48
37.1308,651.81,469.39
37.1512,656.25,478.91
37.1717,653.2,489.13
37.1922,647.16,499.5
37.2126,636.53,508.4
37.2331,624.22,513.32
37.2577,610.78,514.86
37.2782,599.62,513.29
37.2987,589.3,508.63
37.3191,578.44,501.7
37.3396,570.95,494.76
37.3641,570.76,489.81
37.3846,572.81,487.45
37.4051,572.05,485.96
37.4256,569.44,486.37
37.4462,566.15,490.09
37.4666,560.92,495.47
37.4912,554.94,502.98
37.5117,548.15,512.38
37.5322,542.72,521.71
37.5526,526.78,522.37
37.573,503.22,518.29
37.5976,486.38,516.23
37.6181,475.1,512.99
37.6386,469.08,508.79
37.659,466.66,503.23
37.6796,466.73,496.39
37.7,467.19,488.31
37.7245,470.55,480.25
37.7451,474.64,474
37.7656,479.11,470.8
37.7861,482.09,471.44
37.8066,484.07,473.95
37.831,486.06,479.76
37.8516,486.65,487.21
37.872,489.32,497.17
37.8927,492.65,508.13
37.913,495.12,517.91
37.9335,494.7,524.73
37.958,495.76,529.38
37.9786,495.01,529.7
37.999,495.41,526.56
38.0195,495.72,521.25
38.0399,496.38,514.8
38.0645,496.7,512.04
38.085,497.56,524.03
38.1056,498.45,544.03
38.1261,499.76,555.62
38.1465,504.01,549.1
38.167,505.81,537.08
38.1915,508.65,525.66
38.2121,509.12,518.53
38.2325,507.49,514.62
38.2529,507.39,512.5
38.2734,507.12,511
38.2939,507.29,510.6
38.3185,506.43,510.08
38.339,506.35,508.06
38.3595,506.68,504.05
38.3799,507.74,496.64
38.4005,509.19,487.51
38.4249,509.76,477.01
38.4455,509.8,468.41
38.4659,509.64,462.73
38.4865,510.11,459.38
38.5069,511.89,458.7
38.5274,512.71,463.16
38.5519,512.97,471.93
38.5724,513.78,481.54
38.5929,514.82,492.64
38.6134,515.66,503.31
38.6339,516.13,513.45
38.6585,513.5,518.96
38.6789,512,522.97
38.6994,510.4,522.57
38.72,509.92,518.66
38.7404,510.34,513.53
38.7609,510.27,507.02
38.7854,508.82,497.62
38.8059,511.85,488.69
38.8264,513.08,481.95
38.8468,515.27,478.36
38.8674,516.01,477.69
38.8918,516.41,480.55
38.9123,515.73,489.04
38.9329,514.98,500.43
38.9535,515.19,509.15
38.9738,513.95,536.52
38.9943,511.16,581.01
39.0188,510.53,611.21
39.0395,513.02,618.17
39.0599,514.42,605.34
39.0803,514.73,582.67
39.101,514.99,557.53
39.1253,515.99,532.83
39.1458,516.79,509.86
39.1663,516.83,490.09
39.1869,517.67,474.87
39.2073,517.93,465.3
39.2278,517.95,461.84
39.2522,517.36,463.07
39.2728,516.89,468.46
39.2934,516.51,476.57
39.3138,516.81,486.45
39.3343,516.65,496.76
39.3547,516.92,505.81
39.3793,516.13,511.85
39.3998,516.11,516.08
39.4203,514.89,516.66
39.4408,515.91,514.53
39.4613,510.93,508.22
39.4857,506.34,499.98
39.5063,503.47,491.38
39.5267,501.98,483.11
39.5473,502.78,478.29
39.5678,502.83,474.83
39.5883,503.66,475.26
39.6128,503.33,479.41
39.6332,503.86,485.73
39.6538,504.69,493.78
39.6742,504.35,504.23
39.6948,503.08,512.98
39.7192,499.87,520.98
39.7398,497.49,526.99
39.7603,495.99,530.59
39.7807,495.4,530.47
39.8013,496.32,526.78
39.8216,496.85,520.82
39.8462,497.08,513.26
39.8669,498.67,504.01
39.8872,499.93,493.8
39.9077,503.15,486.84
39.9282,508.12,483.88
39.9527,512.29,483.5
39.9732,514.23,487.2
39.9939,514.99,493.76
40.0142,515.39,502.01
40.0346,516.31,511.01
40.0552,515.25,520.01
40.0796,514.2,527.8
40.1002,513.56,533.24
40.1208,510.85,534.59
40.1411,509.68,534.28
40.1616,511.74,530.02
40.186,510.59,523.22
40.2066,507.88,516.17
40.2271,511.7,512.94
40.2476,523.76,518.35
40.2681,535.61,520.48
40.2886,542.29,518.78
40.3131,543.43,519.23
40.3336,544.54,520.58
40.3541,542.63,524.47
40.3746,539.71,529.77
40.395,534.97,535.22
40.4156,529.97,540.97
40.4401,526.38,546.38
40.4606,521.3,549.7
40.4811,517.64,548.96
40.5016,513.31,544.97
40.522,508.25,538.18
40.5466,506.6,530.94
40.5671,505.08,522.55
40.5876,503.46,512.84
40.6081,502.77,503.07
40.6286,502.42,494.26
40.649,503.13,489.01
40.6736,504.51,487.21
40.6941,504.41,489.16
40.7146,504.12,494.33
40.735,505.5,501.07
40.7556,507,510.45
40.78,509.6,520.36
40.8008,505.28,525.69
40.821,490.82,524.55
40.8415,479.26,522.44
40.862,474.01,518.15
40.8825,472.21,512.12
40.9071,473.76,505.7
40.9276,477.01,497.56
40.9481,482.01,488.85
40.9685,485.01,479.08
40.9889,487.81,473.26
41.0134,491.24,469.21
41.0341,492.8,468.57
41.0545,495.04,472.65
41.0751,496.63,479.72
41.0956,497.5,487.98
41.116,501.8,496.98
41.1404,503.64,505.79
41.161,505.31,512.83
41.1815,504.85,518.66
41.202,502.68,517.73
41.2225,498.94,517.58
41.2429,496.76,514.07
41.2674,498.6,510.25
41.288,497.68,503.2
41.3085,497.75,496.56
41.3289,495.6,491.45
41.3494,495.48,488.76
41.3739,497.18,493.21
41.3945,500.55,498.17
41.415,501.24,502.93
41.4355,502.79,509.55
41.456,504.63,516.44
41.4764,506.71,521.95
41.5009,508.16,527.96
41.5215,508.33,530.97
41.542,507.87,531.17
41.5624,506.49,532.54
41.5829,506.79,529.03
41.6073,503.63,519.03
41.6279,504.51,513.82
41.6484,495.81,506.86
41.6689,507.25,501.68
41.6894,489,483.15
41.7098,490.8,472.92
41.7344,488.24,465.53
41.7549,490.59,465.03
41.7754,495.87,468.22
41.7961,502.9,475.78
41.8164,507.52,485.22
41.8408,510.01,495.18
41.8613,512.21,505.14
41.8819,511.77,513.71
41.9023,510.82,518.97
41.9228,509.25,523.18
41.9433,506.4,523.34
41.9678,506.92,524.47
41.9883,508.74,523.78
42.0088,505.79,520.42
42.0293,506.23,515.74
42.0498,505.99,511.39
42.0743,505.39,506.71
42.0949,504.51,502.77
42.1154,505.41,502.22
42.1358,505.93,500.57
42.1563,508.54,503.06
42.1768,512.43,509.45
42.2013,511.35,516.16
42.2218,512.08,522.93
42.2423,515.26,529.74
42.2627,515.81,533.79
42.2832,515.65,537.23
42.3038,518.32,536.99
42.3283,516.85,534.19
42.3488,517.28,527.35
42.3693,514.03,521.88
42.3898,508.82,514.11
42.4102,504.26,507.28
42.4348,503.01,501.03
42.4553,505.8,502.42
42.4759,505.64,499.54
42.4963,507.11,498.83
42.5167,507.89,501.46
42.5373,507.91,505.57
42.5617,508.73,510.46
42.5824,507.78,515.17
42.6028,505.23,524.53
42.6233,504.58,529.03
42.6437,503.07,532.42
42.6682,503.25,534.14
42.6887,503.2,532.51
42.7092,501.96,528.21
42.7297,499.57,522.37
42.7502,498.66,515.89
42.7707,497.12,507.71
42.7952,497.3,502.37
42.8157,497.84,498.5
42.8362,498.27,496.4
42.8566,500.02,497.32
42.8772,503.01,500.25
42.9016,504.61,505
42.9222,507.09,510.4
42.9427,509.07,517.12
42.9631,508.86,524.1
42.9837,510.49,528.48
43.0042,510.59,531.18
43.0286,510.07,530.95
43.0492,505.86,528.56
43.0697,505.29,523.45
43.0902,503.23,517.76
43.1106,502.18,511.21
43.1351,500.75,504.16
43.1556,500.6,497.93
43.1762,500.88,495.15
43.1967,501.7,493.72
43.2171,504.36,495.37
43.2377,505.89,501.9
43.2621,508.91,516.72
43.2826,510.73,535.57
43.3032,513.78,560.86
43.3236,517.03,585.89
43.3441,520.22,603.71
43.3646,522.18,610.17
43.3892,520.74,605.13
43.4096,519.19,587.71
43.4301,516.55,561.77
43.4505,514.04,534.41
43.4711,510.44,508.53
43.4956,507.75,484.22
43.5161,506.4,465.38
43.5367,504.72,452.5
43.5572,504.58,445.8
43.5776,506.26,445.64
43.598,501.81,450.11
43.6226,483.85,465.29
43.6432,460.28,483.83
43.6637,436.62,498.87
43.6841,417.9,511.69
43.7045,404.92,521.15
43.729,394.33,527.32
43.7495,391.47,530.06
43.77,391.57,528.25
43.7906,396.86,523.8
43.8111,401.89,518.44
43.8315,408.71,511.95
43.856,415.97,505.56
43.8766,424.57,499.65
43.8971,435.86,496.52
43.9175,444.29,496.02
43.9381,451.63,504.41
43.9625,471.1,518.33
43.983,508.08,525.06
44.0036,550.47,520.65
44.024,592.57,512.52
44.0446,621.06,506.62
44.065,635.85,502.09
44.0894,640.48,499.87
44.11,637.98,497.9
44.1305,630.39,494.12
44.151,620.31,489.1
44.1716,609.65,484.68
44.196,597.72,480.14
44.2164,587.97,475.11
44.237,570.58,467.89
44.2576,554.66,463.31
44.2779,543.73,462.85
44.2984,535.58,464.08
44.3229,531.07,467.86
44.3434,527.65,474.69
44.364,526.12,482.95
44.3845,524.1,491.56
44.4049,521.68,498.85
44.4254,519.14,504.28
44.4499,516.91,508.82
44.4704,512.73,512.06
44.4909,509.39,511.85
44.5114,505.31,509.88
44.5319,503.45,506.7
44.5564,501.96,502.56
44.5769,499.17,497.85
44.5974,499.73,494.28
44.6178,500.99,493.02
44.6383,501.19,492.82
44.6588,502.55,494.66
44.6833,503.44,499.72
44.7039,505.35,505.18
44.7244,506.08,512.34
44.7448,507.87,519.27
44.7653,508.09,525.62
44.7899,508.07,529.7
44.8104,507.06,532.36
44.831,507.25,533.09
44.8513,505.6,529.07
44.8718,503.68,524.25
44.8924,502.74,517.4
44.9169,499.79,509.32
44.9374,498.04,500.46
44.9578,496.63,492.77
44.9784,497.5,486.81
44.9988,500.4,483.05
45.0233,503.12,481.24
45.0438,505.1,480.79
45.0644,507.68,482.83
45.085,509.74,486.07
45.1055,512.19,490.65
45.1259,512.56,494.72
45.1503,512.84,496.78
45.1708,511.28,497.42
45.1913,509.22,496.34
45.2118,507.38,493.87
45.2322,505.7,490.3
45.2527,503.76,486.24
45.2772,502.01,481.39
45.2978,500.61,476.11
45.3183,499.89,471.49
45.3387,500.31,468.79
45.3592,502.45,468.83
45.3837,506.56,471.07
45.4042,509.45,475.25
45.4248,511.96,481
45.4452,512.97,489.2
45.4657,515.17,496.96
45.4862,516.54,503.97
45.5107,517.23,509.78
45.5312,516.78,513.62
45.5517,513.03,514.7
45.5722,509.42,513.96
45.5927,505.74,511.77
45.6171,502.39,507.81
45.6378,500.11,501.85
45.6582,498.09,496.48
45.6787,497.47,491.78
45.6992,498.78,490.43
45.7197,499.62,491.34
45.7442,501.9,494.67
45.7647,502.52,501.14
45.7853,506.01,509.51
45.8057,507.01,516.41
45.8261,507.61,520.53
45.8507,506.29,522.22
45.8712,507.43,520.18
45.8917,508.54,517.34
45.9122,508.44,515.07
45.9327,507.95,512.26
45.9532,506.36,509.81
45.9776,505.89,508.25
45.9981,505.31,505.2
46.0187,505.25,501.16
46.0392,504.6,497.33
46.0597,504.88,494.46
46.0842,507.5,494.77
46.1046,510.6,496.41
46.1252,513.08,500.53
46.1456,515.67,506.43
46.1663,516.33,514.14
46.1866,518.67,521.51
46.2111,519.93,528.61
46.2317,518.75,534.09
46.2521,518.4,537.47
46.2726,518.72,538.58
46.293,517.17,536.86
46.3136,515.14,533.69
46.3381,512.11,528.55
46.3586,508.89,522.64
46.3791,506.51,517.31
46.3996,505.01,512.25
46.4201,505.01,508.8
46.4446,506.21,507.24
46.465,509.56,509.19
46.4856,512.25,512.55
46.506,513.8,516.04
46.5267,515.24,522.63
46.5471,517.59,529.11
46.5715,519.27,535.89
46.5921,518.62,540.11
46.6127,517.1,541.49
46.633,515.28,539.59
46.6535,511.82,534.67
46.6781,510.46,527.14
46.6986,506.37,520.51
46.719,502.09,512.81
46.7396,497.87,505.25
46.76,496.1,499
46.7804,496.88,495
46.805,498.1,493.2
46.8256,500.48,494.36
46.8461,503.99,498.09
46.8665,507.59,504.07
46.887,511.47,511.06
46.9115,512.98,518.24
46.9321,514.58,526
46.9525,514.67,531.2
46.9729,513.93,536.56
46.9936,513.15,538.25
47.0139,511.92,537
47.0384,509.73,533.2
47.0591,506.79,528.96
47.0795,504.23,522.17
47.0999,501.58,514.53
47.1204,501.47,506.83
47.1449,502.37,502.86
47.1655,503.9,500.89
47.1859,506.12,500.31
47.2065,508.5,502.25
47.2269,509.8,506.6
47.2475,512.04,513.08
47.2719,515.23,520.66
47.2925,517.58,526.33
47.313,518.67,531.86
47.3334,518.33,534.49
47.3539,517.07,535.79
47.3744,514.85,534.03
47.3989,511.48,529.83
47.4194,507.79,523.46
47.4399,505.03,514.17
47.4604,503.02,505.94
47.4808,503.22,498.35
47.5054,503.77,494.48
47.5259,504.62,492.38
47.5464,505.5,493.31
47.5668,507,496.25
47.5874,508.4,502
47.6078,511.12,507.6
47.6323,513.09,514.08
47.6529,515.28,520.26
47.6734,516.02,525.41
47.6938,517.82,529.53
47.7143,515.65,530.82
47.7388,513.12,528.86
47.7594,511.1,524.89
47.7798,508.08,519.51
47.8004,506.66,512.81
47.8208,503.53,503.85
47.8413,500.62,497.28
47.8659,501.5,494.22
47.8864,502.2,492.18
47.9068,503.76,492.94
47.9273,506.01,496.55
47.9478,509.41,502.04
47.9723,511.92,509.63
47.9928,515.74,516.91
48.0133,518.19,522.93
48.0338,518.95,526.94
48.0543,517.36,529.75
48.0748,516.09,529.8
48.0992,515.67,527.24
48.1198,513.14,522.19
48.1403,509.51,517.15
48.1608,507.21,521.12
48.1813,505.37,524.7
48.2057,504.09,521.56
48.2263,504.87,517.85
48.2468,505.9,515.08
48.2673,507.32,513.86
48.2877,509.26,514.69
48.3082,513.2,515.75
48.3327,516.56,520
48.3533,517.85,525
48.3737,518.48,528.8
48.3942,518.78,530.44
48.4147,519.23,531.35
48.4351,517.98,529.68
48.4597,514.39,525.95
48.4803,511.71,519.36
48.5007,508.37,512.49
48.5213,504.89,504.79
48.5417,501.71,496.03
48.5662,499.17,488.02
48.5868,499.54,482.42
48.6072,499.63,480.34
48.6277,503.1,480.47
48.6482,505.88,483.77
48.6687,509.51,489.82
48.6932,511.41,495.86
48.7137,514.12,503.68
48.7343,515.1,510.95
48.7546,516.08,517.16
48.7752,514.46,522.53
48.7996,513.37,534.42
48.8201,511.9,545.74
48.8407,508.52,546.79
48.8612,505.81,542.43
48.8816,502.85,534.15
48.9021,500.08,523.72
48.9268,497.86,513.97
48.9473,497.09,505.78
48.9678,497.67,500.62
48.9881,500.94,497.1
49.0086,505.15,497.68
49.0331,507.92,500.74
49.0537,511.14,506.59
49.0741,514.51,512.28
49.0947,515.81,518.82
49.1151,515.25,525.06
49.1355,513.4,535.05
49.1601,511.92,559.24
49.1807,512.13,583.19
49.2011,511.91,584.15
49.2216,509.53,566.92
49.242,505.42,541.74
49.2665,502.34,514.99
49.2872,501.67,490.19
49.3076,502.34,470.55
49.3281,502.47,457.44
49.3486,502.97,448.55
49.3691,504.98,448.64
49.3937,509.58,451.31
49.4142,513.07,458.25
49.4346,516.25,466.8
49.4552,517.6,476.24
49.4756,517.68,484.39
49.4961,516.75,491.71
49.5207,514.8,495.57
49.5414,513.64,497.86
49.5615,507.31,496.49
49.5821,501.45,493.39
49.6025,497.76,487.11
49.627,496.01,481.49
49.6476,494.41,475.59
49.6681,494.32,473.67
49.6887,495.06,473.94
49.709,496.65,476.15
49.7295,499.92,479.32
49.7541,502.73,486.66
49.7748,506.19,499.93
49.795,511.35,522.54
49.8155,514.28,536.23
49.8361,516.82,544.79
49.8605,516.06,548.43
49.881,515.25,547.74
49.9017,513.4,545.59
49.9222,511.32,539.48
49.9425,509.05,531.58
49.9631,506.84,521.86
49.9875,505.68,511.69
50.008,504.34,503.35
50.0285,503.47,496.68
50.049,504.98,491.55
50.0695,505.38,490.24
50.0939,507.71,492.79
50.1145,511.36,497.63
50.1349,515.49,503.31
50.1555,517.99,510.44
50.1759,519.79,516.76
50.1964,518.84,521.2
50.2211,517.27,524.96
50.2415,515.41,525.57
50.262,513.53,523.86
50.2824,511.23,520.29
50.303,508.18,514.83
50.3275,505.34,509.06
50.348,506.08,502.45
50.3685,506.46,496.76
50.3889,507.37,492.01
50.4094,509.09,490.41
50.4299,510.28,492.53
50.4545,511.42,498.42
50.4749,513.54,506.74
50.4954,515.63,516.59
50.5159,517.1,527.87
50.5364,517.88,528.5
50.5608,517.71,517.4
50.5813,514.36,503.12
50.6019,511.09,494.49
50.6224,508.47,488.4
50.6429,505.78,481.92
50.6634,502.22,476.93
50.6878,498.58,471.35
50.7084,496.06,465.88
50.7288,496.25,462.1
50.7494,497,459.28
50.7699,498,459.03
50.7902,500,462.22
50.8148,504.2,468.58
50.8353,508.36,478.06
50.8558,512.89,487.65
50.8763,514.91,496.72
50.8968,515.73,505.18
50.9213,516.98,512.94
50.9418,517.59,517.55
50.9624,516.67,519.64
50.9828,512.94,520.11
51.0032,509.15,517.29
51.0237,505.12,512.43
51.0482,501.49,505.35
51.0688,498.6,498.68
51.0894,497.28,492.14
51.1098,498.22,487.71
51.1303,499.78,486.37
51.1547,501.42,488.1
51.1753,503.94,491.88
51.1958,506.75,497.7
51.2162,510.2,504.16
51.2367,513.16,511.93
51.2573,515.33,519.54
51.2818,516.86,525.23
51.3023,517.09,529.99
51.3227,516.27,530.99
51.3432,513.62,529.39
51.3637,510.09,525.51
51.3882,507.28,519.61
51.4087,503.22,512.69
51.4294,500.98,503.35
51.4497,499.38,497.08
51.4703,500.3,492.86
51.4907,500.04,490.49
51.5154,501.44,490.79
51.5357,504.55,492.63
51.5563,508.44,497.71
51.5767,512.75,505.57
51.5972,516.6,513.45
51.6178,518.28,521.36
51.6423,519.22,527.09
51.6629,518.98,531.07
51.6833,517.98,532.06
51.7038,515.39,530.05
51.7242,511.51,526.24
51.7488,509.41,519.59
51.7694,506.53,512.87
51.7898,503.42,504.9
51.8103,500.74,498.12
51.8307,503.79,492.49
51.8511,505.83,488.2
51.8758,509.27,488.16
51.8963,513.01,490.93
51.9167,515.41,497.94
51.9373,516.33,505.15
51.9577,518.26,512.92
51.9822,520.61,520.54
52.0028,521.09,525.63
52.0232,520.27,528.7
52.0437,518.42,530.36
52.0641,516.33,528.69
52.0848,513.67,524.15
52.1093,511.93,518.12
52.1298,506.75,510.7
52.1502,504.8,501.76
52.1707,502.44,495.01
52.1911,501.55,491.41
52.2156,502.04,489.12
52.2362,502.43,488.9
52.2567,505.95,491.92
52.2771,509.36,497.94
52.2976,511.49,505.15
52.3181,514.39,512.32
52.3425,516.71,519.66
52.3631,518.17,524.52
52.3837,517.93,527.82
52.4041,515.95,529.46
52.4247,513.76,527.76
52.4491,509.81,523.61
52.4696,506.85,517.49
52.4901,503.88,509.19
52.5106,500.3,500.55
52.5311,499.04,492.64
52.5515,498.03,487.71
52.576,499.83,484.37
52.5965,501.66,485.1
52.6171,503.13,488.28
52.6375,507.5,493.42
52.6581,510.2,501.34
52.6825,512.36,509.47
52.703,513.69,517.98
52.7236,514.35,523.98
52.7441,514.88,527.58
52.7645,514.31,528.67
52.785,512.44,528.73
52.8096,509.76,528.99
52.83,506.4,526.19
52.8506,502.72,521.35
52.8711,499.58,513.68
52.8915,499.06,505.15
52.912,500.05,499.12
52.9368,499.64,495.69
52.9571,500.71,495.35
52.9776,503.77,497.48
52.998,508.42,502.79
53.0185,511.93,508.23
53.0429,513.95,515.18
53.0635,516.36,521.75
53.0841,517.49,527
53.1046,516.59,529.2
53.1251,514.27,529.56
53.1454,511.62,527.05
53.17,509.09,522.24
53.1905,506.87,515.39
53.211,504.5,508.51
53.2314,501.2,500.41
53.2519,499.36,493.33
53.2764,496.49,489.86
53.2969,494.99,487.89
53.3175,495.59,488.51
53.3379,497.27,493.61
53.3584,500.02,499.69
53.3789,502.82,513.55
53.4034,506.65,533.04
53.4239,508.92,560.03
53.4443,512.94,586.23
53.4649,519.35,609.58
53.4854,523.08,624.86
53.5099,521.26,624.29
53.5304,518.41,602.63
53.5508,513.53,568.91
53.5713,507.22,535.13
53.5921,502.38,505.3
53.6123,499.9,480.64
53.6369,499.12,463.11
53.6575,499.7,450.69
53.678,500.96,446.95
53.6984,502.17,447.36
53.719,505.33,452.09
53.7433,508.47,459.47
53.7638,511.17,468.58
53.7843,509.94,477.66
53.8048,508.55,484.93
53.8254,507.84,490.34
53.8458,506.47,495.07
53.8703,504.58,496.06
53.8908,501.46,495.05
53.9114,499.37,491.44
53.9318,497.3,487.35
53.9523,494.84,482.88
53.9729,493.87,479.3
53.9974,493.5,476.24
54.0178,493.8,474.39
54.0383,496.04,477.12
54.0588,499.23,482.09
54.0793,501.98,488.47
54.1037,505.59,496.18
54.1242,508.07,503.14
54.145,509.26,509.51
54.1654,511.2,514.41
54.1857,511.76,514.93
54.2062,513.21,512.54
54.2308,510.57,514.43
54.2513,508.46,518.35
54.2718,506.76,520.28
54.2923,505.01,519.82
54.3128,505.21,515.06
54.3372,505.37,508.85
54.3577,506.09,503.68
54.3783,510.28,499.74
54.3987,514.02,498.79
54.4192,519.22,500.63
54.4397,522.77,505.31
54.4644,523.82,510.65
54.4848,524.25,515.12
54.5052,522.2,520.69
54.5257,519.96,523.35
54.5462,517.77,525.68
54.5708,514.62,525.95
54.5913,512.09,524.36
54.6118,509.87,519.69
54.6322,506.7,514.15
54.6526,504.96,506.72
54.6732,504.37,498.58
54.6976,504.49,491.06
54.7182,504.2,486.65
54.7387,505.36,483.92
54.7592,506.49,484.73
54.7797,507.99,487.79
54.8041,507.99,493.03
54.8246,508.59,501.22
54.8451,509.27,509.98
54.8656,509.62,518.58
54.8861,508.7,524.67
54.9066,507.76,529.93
54.9311,506.21,531.35
54.9517,504.76,527.68
54.9722,505.21,522.94
54.9926,504.17,516.15
55.0132,504.34,507.52
55.0336,504.67,498.22
55.0581,505.73,491.57
55.0789,506.19,486.86
55.0993,507.95,484.69
55.1196,508.16,487.55
55.1403,510.73,491.44
55.1646,511.58,498.95
55.1851,508.47,506.76
55.2056,504.97,514.81
55.2261,502.78,522.45
55.2466,501.62,529.36
55.267,500.3,532.69
55.2916,499.44,532.15
55.3121,499.55,528.72
55.3326,499.04,522.58
55.3531,499.63,515.06
55.3736,500.31,506.65
55.398,500.44,497.32
55.4186,501.36,488.65
55.439,502.48,484.12
55.4596,503.39,481.5
55.48,502.91,482.4
55.5005,503.73,487.72
55.525,503.58,494.98
55.5456,503.47,502.38
55.566,502.97,510.9
55.5865,501.58,519.12
55.6069,500.66,526.3
55.6314,500.13,530.44
55.652,499.5,532.55
55.6726,501.4,532.44
55.693,501.32,530.55
55.7135,501.86,524.84
55.734,502.89,517.67
55.7585,502.71,510.14
55.779,502.97,505.31
55.7995,503.17,503.85
55.82,504.34,506.28
55.8404,506.27,513.62
55.8649,506.42,524.3
55.8854,504.53,552.24
55.9059,500.83,605.19
55.9265,493.66,665.15
55.9469,484.33,713.12
55.9674,477.46,740.3
55.9919,479.57,744.04
56.0125,485.26,718.03
56.033,491.81,672.42
56.0534,497.84,619.54
56.0739,501.68,569.43
56.0944,506.34,523.15
56.1189,509.87,484.72
56.1394,513.9,455.17
56.16,515.72,432.74
56.1804,516.37,419.99
56.2009,516.7,415.39
56.2253,517.36,417.51
56.2459,517.69,424.81
56.2666,516.35,434.25
56.2869,515.88,445.4
56.3074,514.5,457.12
56.3279,513.8,466.5
56.3524,512.44,474.6
56.3729,509.95,479.68
56.3934,508.96,480.74
56.4139,508.57,479.39
56.4344,509.86,475.51
56.4589,509.49,465.81
56.4795,508.79,457.25
56.4999,509.23,450.6
56.5203,510.58,449.68
56.5408,510.67,449.74
56.5614,511.13,454.4
56.5861,510.71,461.72
56.6063,511.97,472.17
56.6268,512.57,482.74
56.6474,514.26,492.99
56.6678,512.81,502.79
56.6923,512.25,510.43
56.7128,509.8,515.95
56.7333,509.24,518.76
56.7538,508.79,523.01
56.7743,509.43,529.8
56.7948,509.35,529.84
56.8193,509.08,524.68
56.8398,509.26,516.54
56.8603,509.01,508.63
56.8808,510.01,502.91
56.9013,508.61,500.32
56.9257,509.68,500.26
56.9463,511.75,502.41
56.9668,511.8,507.73
56.9872,511.24,514.58
57.0078,511.99,522.46
57.0282,511.59,528.97
57.0528,509.87,532.38
57.0733,511.1,533.7
57.0938,511.28,532.56
57.1143,511.62,528.45
57.1347,510.3,522.96
57.1552,509.44,515.77
57.1797,509.75,509.21
57.2003,509.8,504.97
57.2208,509.84,512.38
57.2412,508.87,534.7
57.2617,508.1,559.16
57.2862,506.28,569.73
57.3069,506.22,567.78
57.3273,504.38,559.83
57.3477,504.7,549.86
57.3682,507.36,540.49
57.3887,508.29,531.99
57.4132,507.83,524.79
57.4337,506.27,519.03
57.4542,504.61,512.03
57.4747,504.49,505.42
57.4952,504.99,497.14
57.5196,503.59,489.51
57.5402,503.87,481.01
57.5606,505.3,472.21
57.5812,506.84,465.37
57.6017,507.87,462.09
57.6221,508.5,462.27
57.6466,508.2,465.02
57.6672,509.16,472.42
57.6877,509.73,482.13
57.7081,509.78,493.11
57.7286,510.23,503.48
57.7531,508.78,512.99
57.7737,507.82,519.19
57.7942,507.46,522.55
57.8147,507.57,522.04
57.8351,506.45,519.23
57.8556,505.16,513.99
57.8801,504.53,508.59
57.9007,503.02,501.47
57.9211,503.02,493.78
57.9416,504.22,488.42
57.9621,505.17,483.94
57.9826,506.74,482.75
58.0071,511.39,484.8
58.0276,514.31,490.84
58.0481,517.05,496.87
58.0686,519.04,505.1
58.089,518.43,512.88
58.1135,517.15,521.3
58.1341,515.52,527.64
58.1548,512.61,529.91
58.1751,511.29,529.73
58.1956,509.43,525.98
58.216,508.15,520.79
58.2406,507.32,513.63
58.2611,507.05,505.5
58.2816,506.44,497.4
58.302,506.15,490.92
58.3226,507.32,486.74
58.3471,509.26,485.19
58.3675,509.41,486.75
58.388,510.53,491.6
58.4086,510.02,497.88
58.429,510.62,506.51
58.4496,510.69,514.6
58.474,509.95,521.88
58.4945,507.16,526.51
58.5151,503.73,531.21
58.5356,501.78,531.56
58.556,501.03,528.05
58.5805,501.62,522.44
58.601,501.1,515.55
58.6215,502.28,507.44
58.642,502.62,499.55
58.6625,503.9,492.24
58.683,506.72,487.79
58.7075,508.97,484.64
58.7283,512.78,487.31
58.7485,515.42,493.65
58.769,516.14,500.92
58.7896,515.91,508.53
58.814,514.73,517.83
58.8345,505.98,529.46
58.8551,488.79,542.77
58.8755,465.43,553.02
58.896,441.94,556.01
58.9165,422.55,553.61
58.941,407.84,548.29
58.9616,401.08,540.63
58.9819,401.06,529.7
59.0025,404.85,517.56
59.023,412.08,506.25
59.0435,421.26,499
59.068,430.61,493.8
59.0885,438.69,493.04
59.109,446.95,495.23
59.1295,453.96,498.99
59.15,460.97,505.79
59.1744,467.37,513.23
59.195,471.1,520.98
59.2155,475.08,527.39
59.2359,475.46,533.11
59.2564,490.57,536.69
59.2769,515.86,529.35
59.3014,545.89,513.48
59.3219,573.51,497.38
59.3424,591.41,483.11
59.3629,598.93,472.29
59.3833,600.94,465.63
59.4078,600.15,461.9
59.4284,595.92,459.52
59.4489,591.14,463.22
59.4694,585.91,470.57
59.4898,579.93,479.26
59.5104,573.54,489.81
59.5349,564.83,499.25
59.5553,559.47,507.6
59.5758,552.77,513.88
59.5964,546.42,517.9
59.6168,541.14,519.32
59.6413,532.11,516.86
59.6618,525.09,513.09
59.6823,521.67,508.07
59.7029,518.34,501.26
59.7234,516.07,492.2
59.7439,515.25,485.76
59.7683,514.2,482.41
59.7888,513.76,481.53
59.8093,515.81,484.22
59.8298,515.25,490.78
59.8502,514.4,498.22
59.8748,515.32,506.38
59.8952,514.46,515.1
59.9159,511.96,522.88
59.9363,510.97,527.51
59.9568,510.58,531.4
59.9772,509.06,531.52
60.0018,506.25,529.82
60.0224,507,526.06
60.0428,506.2,518.84
60.0633,507.56,510.88
60.0838,508.25,503.3
60.1085,509.4,496.64
60.1288,509.92,491.11
60.1493,510.13,489.69
60.1697,511.31,491.35
60.1902,513.05,496.88
60.2107,513.44,502.91
60.2352,512.75,510.52
60.2557,511.6,519.02
60.2762,509.48,526.62
60.2968,506.58,531.89
60.3172,503.27,534.11
60.3377,502.01,531.89
60.3624,501.41,528.31
60.3828,500.93,522.45
60.4033,501.94,515.36
60.4237,502.15,505.89
60.4441,502.92,497.11
60.4687,505.14,493.09
60.4892,498.51,495.87
60.5098,482.61,507.9
60.5302,461.89,519.12
60.5508,442.91,525.29
60.5713,426.93,530.44
60.5956,414.94,534.35
60.6162,408.15,539.28
60.6367,407.72,542.22
60.6572,411.58,542.98
60.6776,417.66,542.18
60.7021,424.73,540.75
60.7227,430.98,536.2
60.7432,437.19,530.96
60.7637,445.35,525.57
60.7842,464.88,514.45
60.8047,493.1,493.36
60.8292,524.08,469.09
60.8497,554.07,445.67
60.8702,576.05,430.94
60.8907,588.44,425.55
60.9111,593.35,428.24
60.9355,593.28,436.79
60.9561,590.23,448.03
60.9767,584.98,461.03
60.9972,578.99,473.62
61.0175,571.79,485.9
61.0381,564.23,494.72
61.0626,557.78,499.77
61.0831,552.03,501.82
61.1036,546.42,501.66
61.1242,539.94,498.72
61.1446,536.15,493.78
61.165,532.92,487.62
61.1897,530.34,482.9
61.2101,528.27,479.92
61.2306,527.62,479.94
61.2511,525.69,482.35
61.2716,525.15,487.88
61.296,523.52,494.9
61.3166,522.02,503.72
61.3371,519.81,512.98
61.3576,517.65,520.38
61.378,516.12,526.11
61.3985,514.1,529.88
61.423,512.88,530.51
61.4436,511.1,528.01
61.464,508.08,523.21
61.4845,508.67,515.76
61.505,508.93,507.21
61.5294,510.15,498.77
61.55,510.72,493.42
61.5705,512.17,489.73
61.591,513.34,487.99
61.6115,514.07,488.99
61.632,513.86,494.39
61.6565,513.89,500.91
61.677,512.31,508.13
61.6974,513.85,516.1
61.7179,514.88,523.48
61.7384,513.3,528.99
61.7629,510.64,533.19
61.7835,510.11,533.75
61.804,508.29,533.4
61.8245,506.03,547.12
61.845,503.63,570.3
61.8654,502.7,589.84
61.8899,503.96,595.07
61.9105,505.77,580.86
61.931,508.01,557.68
61.9516,508.61,533.95
61.9719,509.89,515.96
61.9964,511.91,504.37
62.0169,511.93,498.09
62.0374,511.94,496.07
62.0579,512.75,495.66
62.0784,512.8,497.13
62.0989,511.44,498.9
62.1234,510.15,500.92
62.144,508.72,501.14
62.1644,508.18,500.11
62.1849,506.94,496.29
62.2054,508.55,491.43
62.2258,509.44,485.74
62.2505,507.75,479.2
62.271,507.2,474.96
62.2914,506.76,471.17
62.3119,506.81,471.73
62.3324,507.85,475.19
62.3569,507.88,481.35
62.3774,507.5,488.68
62.3979,506,497.74
62.4184,505.8,507.39
62.4389,505.44,515.72
62.4593,504.15,522.57
62.4838,504.52,525.86
62.5044,503.62,526.29
62.5249,504.49,524.63
62.5454,504.4,519.3
62.566,505.52,512.64
62.5903,506.21,504.11
62.6109,507.57,496.29
62.6314,508.26,489.63
62.6518,508.81,485.31
62.6723,509.44,483.45
62.6927,510.16,484.96
62.7173,511.32,490.36
62.7379,511.26,497.69
62.7583,510.01,505.55
62.7787,510.41,514.04
62.7992,509.72,521.03
62.8238,507.98,527.03
62.8442,504.98,530.82
62.8648,503.59,531.06
62.8853,502.87,529.65
62.9057,503.5,524.52
62.9262,503,517.21
62.9507,502.2,509.77
62.9713,502.56,501.82
62.9917,505.45,495.05
63.0122,507.56,490.24
63.0327,508.45,488.99
63.0572,508.56,489.4
63.0777,510.65,493.52
63.0983,511.52,499.01
63.1188,512.21,507.41
63.1392,510.37,524.73
63.1597,507.7,551.18
63.1842,506.36,566.55
63.2047,504.89,572.64
63.2252,503.71,571.51
63.2458,501.57,565.41
63.2662,502.25,555.53
63.2867,502.4,542.82
63.3112,502.52,530.66
63.3317,503.22,518.33
63.3522,502.57,508.06
63.3726,503.66,499.45
63.3931,504.93,495.96
63.4176,506.54,495.17
63.4382,508.23,497.93
63.4586,509.39,504.15
63.4791,509.31,511.72
63.4996,508.05,518.97
63.5201,507.44,525.38
63.5446,507.15,531.9
63.5652,505.52,538.52
63.5856,504.42,540.82
63.6061,504.13,541.25
63.6266,504.11,539.2
63.6512,505.49,520.96
63.6717,506.39,496.57
63.6922,506.91,478.46
63.7126,507.93,466.17
63.7331,509.34,459.53
63.7536,509.87,456.63
63.7781,510.9,458.5
63.7987,511.92,463.2
63.8191,514.34,471.16
63.8396,514.87,481.53
63.8601,513.09,492.22
63.8845,511.48,501.78
63.9051,510.98,509.82
63.9256,509.18,515.06
63.9461,506.15,518.05
63.9666,504.32,517.64
63.9871,504.65,513.71
64.0116,505.52,508.97
64.0321,507.22,501.57
64.0526,508.58,492.86
64.0731,509.06,485.89
64.0935,510.05,481.71
64.118,511.24,480.37
64.1385,511.99,482.29
64.159,512.39,486.24
64.1796,513.51,493.79
64.2,513.41,502.23
64.2205,512.53,510.38
64.245,512.82,518.11
64.2656,510.86,524.49
64.2861,509.09,528.39
64.3067,508.07,529.71
64.3271,507.86,528.77
64.3476,507.08,526.22
64.372,505.67,527.57
64.3925,506.53,536.66
64.413,511.63,550.93
64.4335,519.9,562.34
64.454,529.92,566.67
64.4785,537.14,561.74
64.499,541.11,554.59
64.5195,543.69,547.47
64.54,544.15,542.18
64.5605,542.72,539.14
64.581,539.98,538.31
64.6055,536.58,538.25
64.626,533.46,537.8
64.6465,529.77,537.44
64.667,526.62,533.95
64.6874,523.49,529.16
64.7119,520.4,522.33
64.7325,518.72,515.46
64.753,517.97,508.37
64.7734,516.38,500.9
64.7939,511.3,493.32
64.8144,499.04,486.65
64.8389,486.83,483.12
64.8595,480.47,483.1
64.8799,476.17,486.08
64.9004,475.14,491.86
64.9209,475.31,500.29
64.9454,476.05,508.63
64.966,477.84,516.71
64.9865,478.27,523.16
65.007,470.02,526.53
65.0274,456.41,528.23
65.0479,441.53,525.58
65.0724,432.82,520.06
65.0929,428.66,512.65
65.1136,427.93,502.92
65.134,431.94,493.14
65.1544,437.55,486.11
65.1789,444.04,480.49
65.1994,450.03,478.59
65.2199,455.43,479.07
65.2404,456.94,485.06
65.2609,456.35,492.85
65.2814,456.68,501.68
65.3059,456.95,510.74
65.3265,459.96,518.59
65.3469,462.77,523.87
65.3674,466.21,527.1
65.3878,468.97,528.28
65.4123,472.58,525.22
65.4328,479.26,519.18
65.4535,480.21,512.54
65.4739,486.97,505.63
65.4944,507.97,500.11
65.5148,529.98,495.09
65.5393,545.78,491.47
65.5599,554.23,490.78
65.5803,558.58,492.22
65.6008,560.86,496.58
65.6213,562.29,502.86
65.6418,559.63,510.09
65.6664,556.11,516.87
65.6869,549.29,524.3
65.7076,544.83,530.44
65.728,541.46,533.55
65.7482,535.97,534.84
65.7728,533.98,532.87
65.7933,542.78,524.9
65.8139,552.02,515.92
65.8343,557.62,506.73
65.8547,557.9,497.79
65.8752,555.72,490.83
65.8998,554.57,484.66
65.9203,554.26,481.13
65.9408,552.21,481.51
65.9612,550.57,486.6
65.9819,546.65,492.88
66.0062,543.72,501.51
66.0268,539.18,509.41
66.0473,534.14,518.12
66.0677,530.91,524.1
66.0882,527.53,527.48
66.1087,530.02,529.78
66.1333,537.22,531.63
66.1538,540.98,529.1
66.1743,543.78,524.28
66.1947,544.02,517.03
66.2152,543.02,508.82
66.2398,542.02,500.86
66.2602,539.41,494.28
66.2807,536.53,491.83
66.3012,535.02,491.86
66.3217,533.62,494.89
66.3421,531.7,500.11
66.3667,527.76,506.49
66.3872,525.01,514.99
66.4077,522.4,523.39
66.4283,520.32,528.91
66.4486,517.06,532.13
66.4732,513.85,533.11
66.4936,511.08,531.08
66.5143,508.66,527.67
66.5347,508.73,519.53
66.5552,508.78,511.43
66.5756,508.83,501.74
66.6001,509.46,494.59
66.6208,511.57,490.47
66.6411,512.66,489.18
66.6617,513.92,492.54
66.6821,510.14,498.04
66.7028,501.51,502.43
66.7271,491.41,502.74
66.7477,481.93,499.39
66.7681,472.34,494.12
66.7886,467.27,491.69
66.8091,466.82,491.55
66.8335,467.26,490.84
66.8541,467.4,489.67
66.8746,465.92,486.54
66.8951,470.34,482.23
66.9156,472.67,475.79
66.936,475.94,469.63
66.9606,479.75,464.7
66.9811,483.2,461.96
67.0016,488.16,462.57
67.022,493.13,466.06
67.0426,495.7,471.44
67.067,496.56,479.76
67.0876,498.45,489.2
67.108,499.76,499.56
67.1286,500.61,508.25
67.149,501.09,516
67.1695,500.47,521.2
67.194,500.38,524.36
67.2146,501.5,523.89
67.235,502.2,520.51
67.2556,501.36,515.01
67.276,502.69,506.61
67.3005,503.75,498.09
67.321,505.4,490.47
67.3416,507.12,485.37
67.362,508.9,482.1
67.3825,509.52,481.48
67.403,509.61,485.98
67.4275,509.89,491.79
67.448,509.71,500.23
67.4685,507.17,507.78
67.4889,506.34,515.23
67.5094,505.87,521.78
67.5299,503.7,525.83
67.5545,501.76,528.26
67.575,500,527.21
67.5955,500.4,523.57
67.616,499.72,518.45
67.6364,499.78,511.36
67.6609,500.82,502.89
67.6814,500.66,495.11
67.7019,502.53,489.29
67.7224,504.62,486.63
67.743,507.3,487.11
67.7634,507.64,489.88
67.7879,508.51,495.71
67.8086,508.41,503.37
67.8289,507.73,511.69
67.8494,506.18,521.15
67.8699,505.35,527.72
67.8944,504.28,531.78
67.9149,503.42,533.22
67.9354,503.34,532.38
67.9559,501.87,529.1
67.9764,501.7,522.28
67.9969,502.16,515.63
68.0214,502.13,506.7
68.0419,502.3,498.56
68.0624,503.44,491.65
68.0829,504.55,487.72
68.1034,506.04,486.57
68.1279,508.63,489.26
68.1483,509.71,496.21
68.1689,510.57,503.17
68.1895,511.05,510.53
68.2098,511.64,519.23
68.2304,511.91,525.98
68.2549,510.13,531.78
68.2754,511.3,537.63
68.2958,522.84,552.3
68.3163,539.47,565.24
68.3368,550.98,567.79
68.3613,556.78,563.23
68.3818,558.03,553.59
68.4023,557.02,542.07
68.4228,555.22,530.66
68.4433,553.17,521.92
68.4637,550.34,515.94
68.4883,547.27,513.75
68.5088,542.82,515.2
68.5293,539.05,517.56
68.5498,533.64,523.05
68.5703,528.91,529.64
68.5947,524.53,535.51
68.6153,521.03,539.81
68.6358,517.82,541.25
68.6563,512.86,539.6
68.6767,511.68,535.28
68.6972,509.75,527.42
68.7217,507.2,518.34
68.7423,506.76,508.67
68.7627,505.01,499.34
68.7832,505.41,492.67
68.8037,506.32,488.34
68.8242,506.06,487.07
68.8487,509.05,489.85
68.8693,512.64,497.08
68.8897,514.31,504.87
68.9102,515.65,513.09
68.9307,516.52,521.07
68.9552,514.21,528.46
68.9757,512.57,533.57
68.9962,511.66,535.85
69.0167,510.73,533.68
69.0372,509.38,529.75
69.0576,509.5,524.4
69.0822,508.8,516.92
69.1027,508.04,508.73
69.1232,507.83,499.99
69.1436,508.87,490.79
69.1641,509.69,487.03
69.1886,511.36,486.23
69.2092,512.68,488.58
69.2297,513.35,493.46
69.2502,512.48,499.97
69.2706,511.58,507.78
69.2911,510.27,515.22
69.3157,507.21,523.98
69.3362,509.77,530.38
69.3567,510.82,533.51
69.3772,511.65,533.2
69.3976,510.92,530.96
69.4222,511.34,526.17
69.4427,509.87,519.34
69.4632,509.3,510.27
69.4837,508.24,501.42
69.5041,509.59,494.33
69.5246,511.07,489.67
69.5492,511.66,487.33
69.5697,513.73,488.87
69.5901,514.38,493.89
69.6106,513.9,501.91
69.6311,514.12,512.53
69.6555,503.9,515.83
69.6761,486.12,508.26
69.6966,467.3,496.61
69.7171,454.64,487.49
69.7375,447.11,482.39
69.758,445.09,477.71
69.7826,446.87,473.37
69.8031,451.1,469.7
69.8236,455.08,465.16
69.844,458.66,460.73
69.8646,463.93,458.58
69.885,469.94,459.06
69.9096,475.95,462.65
69.9301,480.76,467.92
69.9506,487.01,475.94
69.971,492.61,485.15
69.9916,497.09,494.92
70.016,499.27,506.14
70.0366,500.62,514.11
70.057,502.29,520.49
70.0776,502.83,525.19
70.0981,502.87,527.75
70.1185,502.69,526.6
70.143,501.56,522.48
70.1636,501.44,517.18
70.184,500.76,511.35
70.2045,501.4,504.28
70.225,502.92,496.62
70.2494,504.74,492.3
70.27,504.99,491.24
70.2906,506.79,492.59
70.3111,507.83,498.07
70.3315,508.47,504.46
70.352,508.77,510.97
70.3765,509.22,518.57
70.397,509.18,526.66
70.4175,507.74,532.33
70.438,507.39,534.86
70.4584,507.71,535.89
70.483,506.57,533.51
70.5034,506.46,528.61
70.524,505.17,522.09
70.5445,505.53,514.87
70.5651,505.83,506.3
70.5855,506.66,499.24
70.61,506.73,494.19
70.6305,507.18,491.95
70.651,508.75,492.36
70.6714,509.4,495.49
70.6919,509.72,501.59
70.7165,509.77,508.67
70.737,510.82,516.34
70.7574,511.26,522.67
70.7779,509.4,527.54
70.7984,507.52,532.03
70.8189,507.22,533.42
70.8434,506.78,531.54
70.8639,506.02,527.03
70.8844,503.82,521.42
70.9049,504.45,513.74
70.9254,503.96,505.59
70.9459,505.17,498.07
70.9705,507.34,492.86
70.991,507.67,489.69
71.0115,510.53,489.75
71.0319,511.03,493
71.0524,513.22,500
71.0769,516.18,507.4
71.0974,516.14,515.32
71.1179,515.71,521.86
71.1384,515.17,527.28
71.159,514.74,531.43
71.1793,513.79,532.74
71.2038,511.43,530.99
71.2244,508.95,526.8
71.2448,508.36,520.24
71.2654,507.69,512.99
71.2858,508.15,504.59
71.3103,507.52,496.87
71.3308,508.21,491.9
71.3514,508.57,488.92
71.3718,510.06,488.93
71.3924,511.05,491.95
71.4128,511.64,496.36
71.4373,511.51,502.89
71.4578,510.61,510.91
71.4784,509.89,518.93
71.4988,509.51,524.54
71.5194,507.01,528.43
71.5438,507.01,530.35
71.5643,506.6,529.88
71.5848,505.28,526.1
71.6053,506.23,519.28
71.6258,505.78,512.03
71.6463,504.83,504.42
71.6708,504.66,497.14
71.6913,505.73,491.31
71.7118,506.98,487.65
71.7323,507.99,487.12
71.7527,509.59,488.89
71.7732,512.07,493.12
71.7978,511.66,500.49
71.8184,510.53,508.59
71.8388,509.02,516.08
71.8593,508.82,521.66
71.8798,507.45,526.13
71.9043,506.76,528.5
71.9247,506.41,528.2
71.9453,504.93,524.96
71.9658,504.74,519.17
71.9862,504.39,512.34
72.0067,504.72,504.87
72.0312,504.77,498.09
72.0518,506.02,491.88
72.0722,506.41,487.9
72.0927,508.73,486.92
72.1133,510.19,488.34
72.1377,511.35,493.47
72.1582,513.28,498.98
72.1788,513.42,506.58
72.1992,512.94,512.86
72.2197,512.35,519.69
72.2402,511.28,524.35
72.2646,510.82,525.48
72.2852,509.46,525.19
72.3057,507.77,523.75
72.3262,505.61,519.4
72.3466,504.49,513.52
72.3711,503.99,506.82
72.3916,504.99,499.45
72.4121,506.2,493.56
72.4327,506.56,490.45
72.4531,507.65,488.96
72.4737,508.52,490.97
72.4982,508.41,494.77
72.5187,509.13,500.62
72.5392,508.9,507.5
72.5596,507.52,514
72.5802,507.62,520
72.6045,507.5,522.6
72.6251,506.8,523.88
72.6457,505.04,521.9
72.6661,504.63,516.12
72.6866,505.7,511.5
72.707,505.76,511.2
72.7316,505.41,513.16
72.7521,505.33,517.33
72.7726,507.06,520.26
72.793,507.65,521.21
72.8136,508.52,519.97
72.834,507.42,520.37
72.8586,507.53,521.7
72.8791,508.03,525.36
72.8996,508.02,531.69
72.92,510.42,530.95
72.9406,513.33,520.76
72.965,517.87,506.01
72.9855,521.69,495.21
73.0061,521.15,488.77
73.0266,518.92,483.21
73.0471,515.34,478.37
73.0675,513.27,474.5
73.092,511.42,470.6
73.1126,508.53,467.88
73.133,505.03,466.5
73.1535,504.22,467
73.174,504.98,468.4
73.1985,506.38,472.12
73.219,507.11,478.3
73.2396,509.08,485.04
73.26,511.27,492.23
73.2805,513.21,498.58
73.3009,513.37,506.27
73.3255,512.1,513.01
73.346,511.28,517.41
73.3665,510.42,518.13
73.387,509.94,517.5
73.4075,508.55,515.2
73.432,506.04,523.96
73.4525,500.23,546.37
73.4729,495.39,567.9
73.4934,491.91,576.52
73.5139,489.53,574.21
73.5344,489.02,566.57
73.5589,492.42,556.46
73.5794,494.53,548.17
73.5999,499.23,541.73
73.6204,504.18,537.19
73.6409,507.55,532.95
73.6654,509.24,531.96
73.6859,513.19,529.97
73.7065,515.75,526.57
73.7269,514.6,522.66
73.7474,513.08,518.13
73.7679,510.86,512.7
73.7924,508.29,505.56
73.8129,508.43,496.85
73.8334,504.75,489.08
73.8539,504,483.46
73.8743,502.8,480.37
73.8949,504.64,478.7
73.9195,506.11,479.96
73.9401,507.89,482.97
73.9604,508.71,487.77
73.9809,510.37,493.82
74.0013,511.29,500.05
74.0258,512.64,506.44
74.0466,512.11,512.75
74.0669,509.09,516.4
74.0875,507.67,517.92
74.1079,506.74,517.54
74.1283,506.99,514.03
74.1529,504.59,508.62
74.1735,502.27,503.7
74.1939,500.62,498.96
74.2144,500.69,495.77
74.2348,503.16,493.21
74.2594,501.72,491.77
74.28,501.58,493.42
74.3003,502.26,495.53
74.3209,504.41,502.43
74.3413,507.13,511.14
74.3617,510.5,524.11
74.3863,520.6,547.09
74.4068,537.88,572.87
74.4273,551.91,589.7
74.4478,557.92,593.36
74.4682,557.14,586.69
74.4927,552.91,573.95
74.5133,549.13,559.36
74.5338,544.1,544.89
74.5543,535.68,529.51
74.5747,530.35,517.41
74.5952,525.68,507.53
74.6197,522.14,499.02
74.6403,518.51,495.22
74.6607,516.81,495.17
74.6813,516.25,499.54
74.7017,513,505.03
74.7222,514.2,511.62
74.7467,511.96,519.5
74.7673,510.77,525.6
74.7877,512.41,533.68
74.8082,510.93,541.14
74.8286,507.34,552.72
74.8532,505.68,576.97
74.8737,501.54,612.98
74.8942,497.63,652.18
74.9147,488.71,683.35
74.9352,477.36,705.48
74.9557,467.09,719.58
74.9802,459.47,719.07
75.0007,457.98,699.25
75.0212,462.98,653.6
75.0417,471.79,591.28
75.0621,484.43,529.63
75.0867,496.34,481.9
75.1071,504.47,448.92
75.1277,508.58,427.14
75.1482,510.46,412.91
75.1686,513.57,404.53
75.1891,514.86,400.62
75.2136,516.09,401.7
75.2342,515.27,401.56
75.2546,513.81,403.65
75.2751,512.65,406.92
75.2956,510.92,409.33
75.3202,501.34,415.67
75.3406,486.87,424.53
75.3611,497.7,436.03
75.3816,504.76,443.42
75.4021,528.61,452.14
75.4226,528.08,458.11
75.4475,519.67,463.89
75.4677,524.73,469.71
75.4881,525.39,473.17
75.5086,516.51,484.53
75.5291,526.61,490.23
75.5535,520.69,492.98
75.5741,517.75,496.99
75.5946,512.6,496.79
75.6151,509.08,495.23
75.6356,508.06,490.38
75.656,503.45,486.11
75.6805,502.56,484.89
75.7011,503.25,486.51
75.7215,501.6,485.61
75.7421,502.48,488.29
75.7626,502.78,493.03
75.787,500.23,498.62
75.8075,502.58,503.9
75.8281,503.07,509.72
75.8486,503.25,514.37
75.869,503,520.7
75.8896,500.2,520.96
75.914,498.76,521.17
75.9345,500.21,519.73
75.9551,501.57,517.59
75.9756,500.65,514.07
75.996,501.12,509.86
76.0165,500.5,505.28
76.041,501.6,500.23
76.0616,506.28,497.58
76.082,504.62,497.87
76.1025,508.7,499.89
76.1229,509.76,504.31
76.1475,510.61,508.65
76.168,510.29,513.72
76.1885,509.03,518.58
76.209,511.22,519.66
76.2295,512.58,520.73
76.25,510.66,519.18
76.2745,510.33,519.35
76.295,509.86,516.88
76.3155,509.49,515.1
76.336,507.99,509.28
76.3564,507.79,504.03
76.3809,506.44,497.42
76.4014,506.55,494.74
76.4219,506.04,493.39
76.4424,507.43,493.51
76.4629,507.14,494.01
76.4834,509.12,497.21
76.508,509.09,500.57
76.5284,503.07,504.85
76.5489,497.46,509.68
76.5694,493.77,514.15
76.59,493.61,517.72
76.6144,494.69,522.17
76.6349,494.55,522.34
76.6554,492.24,520.67
76.6759,492.19,517.74
76.6964,495.16,516.79
76.7168,503.32,518.03
76.7414,508.46,516.23
76.7619,511.97,511.58
76.7825,513.77,509.06
76.8029,515.82,508.05
76.8235,517.86,507.44
76.8438,519.08,509.15
76.8684,519.87,512.12
76.8889,521.09,516.3
76.9093,522.08,520.84
76.9299,521.66,524.67
76.9504,520.33,527.74
76.9748,518.46,528.99
76.9954,515.97,527.19
77.0159,516.58,524.95
77.0363,515.46,520.36
77.0568,513.57,514.89
77.0773,512.45,508.51
77.1018,511.36,503.21
77.1224,510.69,496.77
77.1428,511.95,492.61
77.1633,511.56,491.09
77.1838,512.25,492.87
77.2084,512.6,496.1
77.2288,514.88,499.88
77.2493,515.7,505.3
77.2699,515.16,510.64
77.2903,514.73,513.91
77.3108,513.98,517.33
77.3353,513.79,519.66
77.3559,512.03,519.73
77.3763,510.02,518.99
77.3968,509.82,515.39
77.4173,509.46,510.71
77.4418,507.56,505.77
77.4622,506.45,500.21
77.4828,506.76,495.37
77.5033,508.81,492.1
77.5238,510.65,491.28
77.5442,511.12,492.22
77.5688,512.89,494.58
77.5893,513.92,499.26
77.6098,516.13,505.01
77.6302,516.91,511.21
77.6507,517.52,515.77
77.6752,517.02,520.21
77.6957,515.02,522.57
77.7163,513.61,523.86
77.7368,511.49,522.09
77.7572,507.99,519.27
77.7777,507.59,516.21
77.8022,505.47,510.17
77.8227,504.58,503.94
77.8433,503.46,498.35
77.8637,504.17,493.88
77.8842,505.54,492.5
77.9046,506.83,493.8
