Program Time [s],data 0,data 1
3.3673,514.7,519.09
3.36734,501.16,515.07
3.36737,491.73,514.46
3.36741,497.38,511.37
3.36744,502.91,506.29
3.36748,502.33,501.83
3.36751,504.26,496.07
4.88407,512.2,515.8
4.90452,514.36,518.04
4.92504,514.29,519.43
4.94544,511.63,521.55
4.97003,508.7,519.44
4.99056,504.76,516.55
5.01099,502.41,512.24
5.03154,503.33,509.39
5.05196,500.86,504.31
5.07643,499.09,499.85
5.09698,499.07,497.68
5.11756,500.86,498.14
5.13809,503.89,499.52
5.15848,506.31,503.41
5.17897,508.25,506.33
5.20348,509,511.06
5.22406,512.2,515.45
5.24452,509.96,519.76
5.265,509.17,522.21
5.28548,505.93,522.37
5.30993,505.55,520.49
5.33046,505.64,517.39
5.35104,505.91,514.12
5.37148,506.13,508.89
5.39192,507.3,504.91
5.41236,507.84,500.93
5.43694,508.47,498.35
5.45741,507.38,499.48
5.47796,516.7,498.78
5.49839,530.76,498.22
5.51888,539.01,500.78
5.54332,542.61,505.62
5.5639,543.69,509.9
5.58439,540.55,515.52
5.60491,536.24,520.82
5.62542,534.59,521.85
5.64584,528.87,523.08
5.67054,525.7,523.67
5.69096,520.16,520.33
5.71138,517.13,518.67
5.73192,516.5,514.33
5.75232,512.2,509.67
5.77685,507.16,507.13
5.79735,504.73,502.51
5.81795,504.38,500.41
5.8384,502.51,499.72
5.8589,502.41,500.38
5.87934,504.12,504.5
5.90385,505.9,506.8
5.92433,508.12,509.24
5.94487,511.9,515.59
5.96529,510.32,518.88
5.98593,507.45,521.9
6.00637,505.36,523.72
6.03083,503.89,523.78
6.05142,503.51,522.02
6.07188,501.01,518.42
6.09233,500.61,514.13
6.11293,500.09,507.91
6.13741,501.07,501.93
6.15787,500.26,498.34
6.17839,502.6,495.67
6.19886,500.48,495.94
6.21929,502.59,497.35
6.23973,505.07,499.88
6.26435,505.86,502.9
6.28493,508.68,507.12
6.30545,510.55,511.5
6.32596,513.04,514.6
6.34639,512.43,517.88
6.37075,510.54,519.7
6.39125,510.24,521.16
6.41195,507.39,518.33
6.43247,506.71,515.06
6.45286,503.37,512.45
6.47341,501.29,509.96
6.49768,502.04,504.37
6.51839,499.43,500.1
6.53884,492.94,494.88
6.55926,483.75,494.5
6.57966,477.8,492.8
6.60416,475.04,496.44
6.6248,477.43,499.95
6.64529,479.35,505.56
6.66576,480.88,508.25
6.68619,485.7,513.8
6.70672,487.16,516.84
6.73126,489.33,518.07
6.75173,491.06,519.86
6.77221,492.85,519.09
6.79266,495.88,516.47
6.81315,497.3,514.78
6.83366,497.04,514.62
6.85815,496.23,517.9
6.87867,491.59,529.32
6.89914,478.87,558.65
6.91975,456.5,599.92
6.94031,433.6,635.14
6.96481,414.68,651.91
6.98522,402.34,645.73
7.00573,395.67,624.78
7.02627,395.54,595.43
7.04683,398.83,563.74
7.06725,404.86,533.59
7.09172,416.09,507.87
7.1122,424.67,485.5
7.13262,431.34,468.6
7.15324,440.87,455.28
7.17369,448.1,446.42
7.19826,454.68,440.34
7.21864,461.94,435.07
7.23917,466.75,433.46
7.25976,469.2,433.37
7.28033,473.36,435.49
7.30069,481.49,439.19
7.32516,485.99,443.96
7.34564,495.59,451.36
7.3662,519.07,460.09
7.3866,555.26,468.47
7.40711,593.41,473.58
7.43154,624.73,479.26
7.4521,639.38,485.01
7.47264,644.3,488.61
7.49319,642.04,491.49
7.51367,633.24,492.19
7.5342,626.19,492.55
7.55862,615.15,491.44
7.57919,605.52,489.75
7.59962,595.02,488.2
7.62003,582.01,483.76
7.64071,573.21,483.21
7.66109,564.37,484.17
7.68569,556.49,485.13
7.7062,550.4,488.51
7.72676,548.32,493.01
7.74713,548.05,497.8
7.76762,545.84,503.84
7.79205,540.47,508.08
7.81249,535.98,510.86
7.83317,533.18,513.49
7.85364,529.15,514.39
7.87413,522.92,513.51
7.89458,523.33,512.81
7.919,518.47,510.05
7.9395,516.57,506.44
7.96001,513.86,501.75
7.98049,511.69,496.4
8.001,508.35,493.32
8.02557,511.48,490.46
8.0461,514.58,490.97
8.06651,517.27,494.37
8.08705,520.41,497.3
8.10747,521.93,502.24
8.12804,522.94,507.59
8.15255,524.36,514.87
8.17298,523.28,517.7
8.19351,522.83,520.96
8.21399,519.86,521.17
8.23439,518.89,522.73
8.25895,519.11,520.39
8.27952,513.89,515.51
8.29996,507.11,511.61
8.32059,503.49,505.09
8.34104,502.39,498.67
8.36136,503.51,495.34
8.38589,506.61,492.67
8.40642,508.49,493.73
8.42689,509.79,494.59
8.44736,508.03,497.27
8.46793,507.03,500.02
8.49241,507.42,504.41
8.51297,509.34,508.33
8.5334,509.87,513.26
8.55394,508.5,515.81
8.57434,507.6,516.65
8.59482,507.08,515.52
8.61932,505.66,514.22
8.6399,503.73,511.17
8.66036,501.58,507.54
8.68083,501.47,504.23
8.70132,501.37,500.98
8.72188,497.9,496.99
8.7465,491.92,493.39
8.76688,480.74,492.11
8.78738,476.59,492.69
8.80789,474.07,494.95
8.82833,474.06,498.96
8.85286,475.65,502.77
8.87346,475.92,507.82
8.89398,477.93,512.25
8.9143,481.75,516
8.93501,485.2,518.2
8.95534,487.36,518.76
8.97994,486.69,517.01
9.00031,487.95,512.81
9.02084,490.76,510.45
9.04149,491.21,507.36
9.06175,492.77,504.49
9.08636,493.81,501.79
9.10693,497.65,497.23
9.12747,501.72,495.58
9.14789,503.18,495.27
9.16846,505.34,496.01
9.18894,504.67,500.21
9.2134,506.54,505.57
9.23388,510.43,510.46
9.25435,510.14,514.76
9.27486,510.72,517.01
9.29536,511.77,519.01
9.31979,510.82,522.81
9.34026,508.05,522.65
9.36089,508.24,518.72
9.38122,506.19,516.77
9.40187,504.36,512.02
9.42224,503.08,506.81
9.4467,502.47,501.05
9.46727,504.17,498.04
9.48779,504.14,494.63
9.5083,509.11,495.71
9.52885,522.09,499.77
9.55333,532.67,502.21
9.57381,538.34,508.17
9.59425,540.67,513.14
9.6147,541.14,518.11
9.63527,539.71,523.09
9.65576,537.57,523.67
9.68034,534.25,525.54
9.70084,531.4,523.83
9.72136,528.72,521.86
9.74181,525.38,517.49
9.76232,522.5,513.59
9.7867,520.6,509.87
9.80724,518.28,511.7
9.82782,510.03,517.76
9.84836,493.42,559.21
9.86886,467.14,610.17
9.88916,440.91,640.33
9.91368,417.73,645.27
9.93419,401.78,628.81
9.95489,391.63,598.85
9.97535,387.3,566.28
9.99565,391.04,537.82
10.0162,394.43,511.66
10.0407,401.15,493.13
10.0612,411.92,478.9
10.0817,423.73,466.52
10.1022,429.99,459.22
10.1227,436.39,453.77
10.1471,441.71,449.42
10.1677,445.97,447.54
10.1882,451.78,447.83
10.2086,457.02,448.26
10.2291,468.62,451.81
10.2495,494.09,456.05
10.2741,532.67,460.44
10.2946,571.74,462.15
10.3152,606.59,465.72
10.3355,631.07,471.38
10.3561,640.06,477.3
10.3806,641.25,484.24
10.4011,637.6,490.19
10.4216,629.68,494.15
10.4421,620.54,496.52
10.4626,610.63,498.42
10.4831,598.51,497.54
10.5075,587.21,496.23
10.5282,576.16,493.78
10.5485,568.33,490.63
10.5693,560.87,489.7
10.5897,553.89,488.56
10.614,548.71,489.85
10.6346,545.97,495.08
10.6551,541.78,500.46
10.6757,538.82,505.57
10.6961,532.86,510.66
10.7165,530.49,514.73
10.7411,531.59,518.78
10.7615,535.07,524.22
10.7821,536.06,526.78
10.8025,537.05,527.42
10.823,534.64,526.54
10.8474,530.31,521.83
10.868,527.65,517.46
10.8888,524.32,511.57
10.9092,520.85,507.86
10.9296,516.08,502.69
10.95,514.07,499.55
10.9744,512.25,499.64
10.995,516,501.91
11.0156,516,503.13
11.036,518.2,508.1
11.0564,516.56,512.48
11.0769,511.65,517.99
11.1015,512.32,521.99
11.122,512.66,524.39
11.1424,510.32,526.51
11.163,508.86,526.41
11.1836,505.89,523.93
11.2079,504.91,520.54
11.2285,503.93,515.83
11.249,502.34,511.67
11.2694,502.47,506.73
11.2899,502.98,503.59
11.3104,498.58,500.67
11.3349,488.27,497.54
11.3555,482.81,499.23
11.3759,480.85,499.78
11.3964,480.48,503.63
11.4169,480.38,508.5
11.4414,482.91,513.4
11.462,486.53,517.12
11.4827,488.22,521.5
11.5031,488.18,524.2
11.5234,488.74,524.96
11.5439,488.99,523.97
11.5684,490.59,522.57
11.5889,482.08,520.06
11.6094,464.46,520.65
11.6298,439.57,522.72
11.6503,418.45,520.97
11.6749,402.16,519.58
11.6956,389.93,517.46
11.7159,383.94,517.37
11.7363,382.56,518.7
11.7568,385.04,536.16
11.7773,387.04,565.93
11.8019,391.03,594.54
11.8224,395.82,621.63
11.8431,402.66,640.11
11.8635,410.93,640.08
11.8839,422.54,624.67
11.9083,433.83,593.13
11.9289,447.07,556.71
11.9494,462.45,523.37
11.9698,475.56,493.89
11.9903,485.45,469.71
12.0108,491.96,451.97
12.0353,497.97,442.58
12.0558,504.37,437.86
12.0765,514.9,435.69
12.097,537.92,433.55
12.1175,571.54,433.64
12.1378,608.83,433.51
12.1623,633.86,440.21
12.1828,647.89,447.77
12.2033,651.11,457.21
12.2238,646.49,465.37
12.2443,638.99,473.7
12.2688,631.19,477.76
12.2893,616.95,482.01
12.3097,601.96,484.21
12.3303,590.37,483.36
12.351,579.1,481.09
12.3713,572.08,479.87
12.3957,570.26,480.7
12.4163,570.81,484.16
12.4368,568.05,486.13
12.4573,562.84,488.3
12.4778,558.07,490.24
12.5024,553.66,496.99
12.523,549.73,503.59
12.5434,546.58,509.08
12.5639,542.86,514.26
12.5843,540.29,517.01
12.6047,536.03,520.61
12.6292,533.03,521.09
12.6497,529.02,520.07
12.6703,525.42,517.45
12.6909,519.93,513.76
12.7114,517.55,508.41
12.7357,513.64,503.53
12.7564,511.51,500.42
12.7769,509.81,497.74
12.7974,511.25,497.59
12.8178,510.2,498.07
12.8382,511.36,497.46
12.8627,510.89,499.97
12.8834,511.71,503.57
12.9037,511.97,508.26
12.9242,515.77,513.01
12.9447,512.42,516.81
12.9692,511.14,520.44
12.9898,508.51,522.36
13.0103,510.01,519.68
13.0308,506.61,516.35
13.0513,504.08,513.48
13.0718,502.47,509.78
13.0963,499.37,510.83
13.1167,490.5,518.06
13.1372,467,551.85
13.1577,440,586.68
13.1782,413,612.14
13.1987,390.4,614.51
13.2233,379.92,602.41
13.2437,376.34,582.53
13.2643,375.87,558.22
13.2847,382.49,535.18
13.3052,395,517.14
13.3297,405.4,504.51
13.3502,414.92,493.61
13.3708,424.13,485.49
13.3911,432.91,479.39
13.4117,439.73,474.51
13.4322,446.98,469.01
13.4566,452.78,467.81
13.4773,454.83,464.45
13.4977,461.06,464.16
13.5182,468.45,464.93
13.5386,472.16,469.74
13.5631,476.93,475.79
13.5837,478.94,482.23
13.6042,492.95,487.79
13.6249,524.96,494.83
13.6452,561.77,499.26
13.6657,596.62,501.41
13.6903,618.29,504.13
13.7106,628.03,505.7
13.7311,628.43,505.16
13.7516,625.34,504.33
13.772,618.07,502.86
13.7965,608.46,501.09
13.8172,599.17,498.87
13.8375,591.73,495.9
13.8581,580.59,494.72
13.8786,570.87,490.38
13.8991,563.7,489.5
13.9236,558.36,489.6
13.9441,557.69,492.48
13.9645,557.95,497.18
13.9852,555.36,501.55
14.0056,554.09,505.24
14.03,549.47,510.59
14.0506,547.78,515.47
14.071,542.62,516.98
14.0916,538.9,518.18
14.1121,533.92,518.35
14.1324,529.13,516.68
14.157,526.71,512.34
14.1775,519.97,507.27
14.198,515.57,502.62
14.2184,513.06,499.49
14.239,511.85,497
14.2637,512.48,496
14.284,513.58,496.2
14.3046,511.47,498.36
14.325,511.17,503.29
14.3455,513.74,508.63
14.366,512.99,513.1
14.3905,511.59,517.48
14.411,510.67,520.79
14.4317,509.54,524.23
14.4519,507.83,526.38
14.4724,508.66,525.11
14.493,507.73,524.29
14.5174,499.79,522.43
14.5379,483.03,521.14
14.5585,458.22,517.91
14.5791,433.98,513.93
14.5996,413.38,509.95
14.6239,393.91,508.96
14.6444,380.92,508.96
14.665,373.34,510.57
14.6855,374.07,509.86
14.706,379.26,511.29
14.7264,387.81,512.43
14.7509,399.04,514.54
14.7715,408.44,517.03
14.7918,419.75,517.63
14.8126,428.2,520.9
14.833,432.76,529.52
14.8575,435.41,534.42
14.8779,445.93,534.93
14.8986,468.74,533.35
14.9191,498.79,523.28
14.9394,527.03,511.02
14.96,546.83,499.62
14.9846,558.66,492.49
15.0048,566.93,488.6
15.0254,567.74,487.88
15.0459,568.19,489.3
15.0664,567.76,491.64
15.0909,566,495.51
15.1114,560.2,501.21
15.1319,567.16,504.77
15.1524,583.33,509.41
15.173,591.66,512.13
15.1933,593.93,513.71
15.2179,594.15,513.56
15.2385,589.92,512.25
15.2589,586.33,508.4
15.2794,578.47,504.52
15.2999,570.77,500.42
15.3244,565.22,497.33
15.3449,557.57,492.47
15.3654,551.66,490.37
15.3859,548.13,491.5
15.4062,547.1,495
15.4267,547.28,499.8
15.4514,543.83,504.64
15.4719,539.06,508.71
15.4924,536.65,514.57
15.5127,534.72,517.66
15.5334,532.57,519.52
15.5539,527.66,521.22
15.5784,525.13,519.38
15.5989,521.3,516.9
15.6193,517.24,512.12
15.6399,513.59,508.7
15.6602,512.47,503.76
15.6848,509.18,499.01
15.7054,508.94,494.2
15.7259,509.16,494.16
15.7462,511.92,494.93
15.7667,507.14,497.94
15.7873,501.91,501.96
15.8118,499.13,505.16
15.8322,499.1,509.13
15.8528,499.28,513.91
15.8733,497.63,517.32
15.8938,495.9,519.06
15.9183,495.52,519.05
15.9388,495.42,521.04
15.9592,489.93,522.43
15.9797,472.55,526.74
16.0002,449.84,532.6
16.0207,423.07,537.28
16.0452,404.66,536.22
16.0656,390.12,538.58
16.0861,384.3,548.26
16.1068,376.84,571.61
16.1273,373.47,605.09
16.1517,375.58,627.47
16.1722,381.86,632.18
16.1928,390.29,621.94
16.2132,405.83,597.75
16.2335,422.47,567.8
16.2542,445.37,535.84
16.2786,463.9,509.47
16.2992,475.92,488.18
16.3197,484.93,471.94
16.3403,493.55,459.75
16.3607,498.64,452.2
16.3851,498.71,447.76
16.4056,508.57,445.01
16.4263,532.25,439.21
16.4467,563.6,434.97
16.4671,592.68,432.57
16.4876,613.55,434.26
16.5122,622.64,440.21
16.5326,624.91,447.97
16.5531,623.13,458.37
16.5736,620.7,469.5
16.5942,611.76,479.4
16.6146,602.21,486.92
16.639,593.57,491.73
16.6595,584.05,498.79
16.6803,574.24,501.43
16.7007,563.39,502.54
16.7211,553.52,500.04
16.7456,547.41,498.83
16.7661,544.13,495.86
16.7867,541.7,493.69
16.8071,537.96,492.55
16.8275,533.57,492.44
16.848,530.66,492.95
16.8724,530.33,493.96
16.893,530.06,497.37
16.9135,528.25,502.5
16.9339,527.8,507.2
16.9546,527.24,512.96
16.979,525.19,517.57
16.9996,522.35,520.05
17.0203,519.88,522.24
17.0404,514.91,521.39
17.061,501.52,520.32
17.0816,479.42,519.65
17.1059,453.94,514.32
17.1265,436.35,509.06
17.147,426.48,502.45
17.1676,422.58,497.36
17.1879,422.27,494.09
17.2125,423.01,494.27
17.233,419.01,497.41
17.2537,414.01,506.53
17.2741,404.01,529.03
17.2946,397.81,568.62
17.3151,393.04,617.3
17.3396,393.04,664.64
17.3601,396.43,696.11
17.3806,399.74,710.09
17.4009,404.79,700.67
17.4215,409.04,674.54
17.4459,419.83,636.63
17.4665,430.26,590.3
17.4869,447.81,542.84
17.5074,473.65,499.67
17.528,506.72,461.94
17.5485,542.77,431.55
17.573,580.42,410.44
17.5936,607.14,399.35
17.614,619.51,396.88
17.6346,623.21,401.11
17.655,622.37,408.48
17.6754,619.69,419.59
17.7,613.15,432.27
17.7205,605.52,443.82
17.7409,596.22,453.05
17.7615,586.17,460.24
17.7819,577.54,466.79
17.8064,571.43,469.24
17.827,573.95,472.19
17.8475,572.56,474.15
17.8679,569.45,474.12
17.8883,563.36,473.7
17.909,559.88,474.56
17.9334,555.91,474.85
17.954,551.73,477.88
17.9745,548.38,484.3
17.9948,542.9,489.84
18.0155,537.72,496.27
18.0399,534.18,502.22
18.0605,530.74,508.17
18.0808,528.19,512.94
18.1014,523.96,514.75
18.1219,521.16,516.6
18.1422,518.13,516.68
18.1668,517.31,514.94
18.1874,512.84,511.96
18.2079,513.08,508.16
18.2284,511.66,504.13
18.2489,511.13,499.91
18.2734,510.1,497.52
18.2939,509.08,494.02
18.3144,511.07,493.22
18.3349,512.45,493.57
18.3554,512.36,497.06
18.3758,509.69,501.25
18.4002,507.15,507.6
18.4207,506.72,513.48
18.4413,506.78,518.18
18.4617,505.42,520.95
18.4823,504.34,522.36
18.5068,504.07,522.49
18.5272,503.46,520.59
18.5478,503.36,517.27
18.5682,499.49,512.82
18.5887,497.79,508.65
18.6092,497.03,502.12
18.6338,498.03,500.5
18.6542,501.02,497.8
18.6747,500.62,496.44
18.6951,501.09,497.35
18.7156,501.68,499.08
18.7402,504.34,504.46
18.7606,505.47,509.57
18.7811,506.38,514.26
18.8017,506.5,519.21
18.8222,506.4,522.56
18.8427,506.72,524.65
18.8672,509.98,523.72
18.8877,510.58,522.18
18.9082,511.27,518.14
18.9286,509.81,513.71
18.9492,510.25,510.77
18.9696,507.6,504.62
18.9942,503.88,500.89
19.0146,504.1,498.11
19.0351,504.88,496.09
19.0556,505.51,495.87
19.0761,506.41,497.1
19.1006,506.92,500.48
19.1212,508.34,504.38
19.1416,510.47,507.71
19.1623,508.98,512.37
19.1827,508.58,516.49
19.2031,508.47,518.99
19.2277,508.17,518.8
19.2483,502.34,517.64
19.2687,494.47,515.71
19.2893,490.18,510.97
19.3097,486.34,509.37
19.3342,486.07,504.5
19.3545,484.86,498.4
19.3751,485.69,495.12
19.3957,489.15,494.1
19.4162,494.32,495.28
19.4366,495.66,497.22
19.461,496.32,498.98
19.4817,499.46,502.78
19.5021,504.17,508.83
19.5227,504.13,513.86
19.543,504.51,516.49
19.5677,504.41,518.99
19.5881,504.72,520.99
19.6086,503.98,521.39
19.629,503.18,520.12
19.6496,500.35,516.49
19.6701,499.88,512.19
19.6946,499.3,505.75
19.7152,498.04,501.2
19.7357,498.03,497.96
19.7562,499.43,495.77
19.7767,501.14,494.62
19.7971,502.31,495.89
19.8216,504.05,498.31
19.8424,505.84,502.25
19.8625,505.87,507.2
19.883,507.5,512.96
19.9035,507.8,516.77
19.9281,507.44,519.42
19.9486,508.15,522.13
19.969,506.92,523.31
19.9894,506.54,524.24
20.0099,496.63,524.2
20.0304,478.7,525.56
20.0549,455.96,528.25
20.0755,431.17,527.8
20.096,413.54,525.04
20.1165,397.43,520.03
20.137,386.94,520.82
20.1615,386.35,523.66
20.1821,389.08,530.33
20.2026,393.07,546.06
20.2229,394.65,580.85
20.2436,398.72,614.08
20.2639,404.98,627.46
20.2885,415.38,624.97
20.309,427.71,608.98
20.3295,443.96,582.58
20.3501,457.77,553.87
20.3705,471.42,526.09
20.3949,480.73,503.07
20.4155,487.39,485.46
20.436,493.51,470.97
20.4565,496.41,459.97
20.4769,501.73,455.58
20.4975,525.38,450.66
20.5219,557.7,445.13
20.5424,591.36,440.7
20.5629,620.89,438.76
20.5833,636.71,441.61
20.604,642.17,448.49
20.6283,639.54,457.59
20.6489,634.83,465.27
20.6696,628.26,470.82
20.69,615.01,477.05
20.7105,603.81,482.44
20.7308,593.25,485.35
20.7554,583.6,486.48
20.776,572.48,486.19
20.7965,563.78,485.35
20.8169,553.43,483.88
20.8373,545.74,481.7
20.8579,541.39,480.96
20.8823,535.71,480.97
20.9029,536.17,484.38
20.9235,538.14,490.5
20.944,538.91,497.4
20.9643,539.53,502.52
20.9888,540.62,508.42
21.0093,537.3,513.13
21.0299,532.84,518.71
21.0504,528.87,521.17
21.0708,524.1,522.73
21.0914,521.08,520.79
21.1158,519.06,518.03
21.1364,516.65,514.42
21.1568,515.52,508.54
21.1774,514.22,503.43
21.1979,512.77,500.14
21.2223,511.02,497.52
21.243,512.41,497.81
21.2634,511.33,497.85
21.2838,512.67,499.48
21.3043,511.93,501.78
21.3249,511.35,504.23
21.3492,513.28,510.18
21.3698,513.22,514.75
21.3903,513.38,519.6
21.4109,512.9,522.28
21.4313,513.92,522.42
21.4558,511.94,521.74
21.4762,511.35,520.79
21.4968,509.48,516.83
21.5172,506.98,511.87
21.5377,503.19,505.29
21.5581,502.35,500.43
21.5827,501.28,496.75
21.6032,501.02,494.8
21.6238,501.02,495.44
21.6443,501.62,497.35
21.6647,506.49,500.88
21.6891,505.79,505.7
21.7099,504.44,509.96
21.7304,505.35,513.37
21.7508,506.28,518.5
21.7713,509.02,521.6
21.7918,508.02,521.68
21.8161,506.01,522.54
21.8367,504.41,520.23
21.8572,503.33,516.19
21.8778,502.86,512.35
21.8984,500.09,507.28
21.9187,499.07,502.02
21.9432,499.06,497.42
21.9638,499.65,495.74
21.9843,505.52,496.19
22.0047,506.41,495.35
22.0252,507.13,497.48
22.0497,507.9,499.78
22.0703,511.12,505.63
22.0907,511.3,511.7
22.1112,512.84,516.56
22.1317,512.47,520.05
22.1522,513.78,521.64
22.1767,512.42,522.71
22.1974,510.54,521.77
22.2178,508.23,519.02
22.2382,505.98,515.01
22.2587,505.99,511.21
22.2832,505.39,506.77
22.3037,505.71,501.41
22.3243,504.97,497.73
22.3447,505.98,496.19
22.3652,506.98,496.15
22.3856,506.98,496.92
22.4101,506.39,498.73
22.4307,509.11,504.39
22.4511,508.49,509.31
22.4716,508.19,512.25
22.4921,508.55,515.4
22.5167,510.64,518.92
22.537,511.11,519.94
22.5577,510.69,520.55
22.5781,509.55,517.04
22.5986,507.84,513.83
22.619,505.07,510.26
22.6435,503.26,504.01
22.664,501.61,497.81
22.6847,503.09,492.85
22.7051,506.87,491.68
22.7255,510.49,491.14
22.7501,514.8,492.71
22.7705,517.84,496.97
22.7911,516.07,502.58
22.8116,518.86,508.46
22.832,520.68,511.97
22.8526,519.55,517.98
22.877,516.44,519.38
22.8975,513.55,520.5
22.9181,513.04,522
22.9385,514.03,522.8
22.959,511.23,519.84
22.9794,509.78,515.07
23.0039,508.22,510.46
23.0245,506.18,505.97
23.0449,500.74,503.37
23.0655,486.79,505.3
23.0859,464.24,511.04
23.1104,437.79,521.23
23.131,415.83,533.39
23.1514,397.26,542.71
23.1719,380.01,566.17
23.1924,369.41,593.93
23.213,364.53,605.75
23.2375,364.82,599.2
23.258,372.26,579.36
23.2784,383.81,554.69
23.2989,394.64,529.15
23.3195,406.52,507.92
23.344,417.01,491.54
23.3644,427.81,477.43
23.385,437.65,465.94
23.4055,445.92,459.35
23.4259,455.53,456.88
23.4464,463.83,455.11
23.4709,473.26,457.89
23.4915,478.21,462.71
23.512,485.17,469.77
23.5323,486.73,478.61
23.5528,500.19,489.29
23.5773,524.95,499.03
23.5978,560.16,502.43
23.6183,595.73,500.34
23.6388,626.38,496.47
23.6593,643.11,493.18
23.6799,649.28,490.34
23.7043,647.03,487.07
23.7249,640.42,484.86
23.7454,632.94,481.09
23.7659,623.15,479.47
23.7863,613.52,478.18
23.8108,601.62,479.34
23.8314,590.49,480.87
23.8519,580.39,484.7
23.8723,575.72,488.56
23.8929,568.77,494.05
23.9134,561.62,500.64
23.9377,555.89,505.71
23.9583,548.52,511.97
23.9788,541.61,516.37
23.9994,533.29,519.1
24.0198,528.83,519.88
24.0403,526.07,518.3
24.0648,523.85,515.24
24.0854,519.68,511.79
24.1059,516.55,507.64
24.1263,511.44,502.51
24.1467,511.15,499.21
24.1712,509.92,495.17
24.1917,509.94,493.53
24.2123,510.15,493.83
24.2328,510.72,497.66
24.2532,511.58,502.13
24.2738,512.26,507.5
24.2982,512.01,510.6
24.3189,511.41,515.08
24.3393,511.93,518.67
24.3599,510.34,520.73
24.3803,510.07,521.59
24.4047,510.86,521.47
24.4253,509.89,518.98
24.4458,508.91,515.38
24.4663,507.93,510.5
24.4868,506.94,506
24.5072,506.15,502.8
24.5317,506.32,499.24
24.5522,507.06,496.19
24.5727,506.25,496.15
24.5933,505.2,498.12
24.6138,508.16,501.1
24.6382,505.93,504.88
24.6587,507.54,507.9
24.6792,507.63,513.52
24.6998,508.71,517.42
24.7202,506.17,519.53
24.7406,505.53,521.23
24.7652,505.43,520.98
24.7857,506.34,518.99
24.8064,503.67,516.79
24.8266,500.74,512.03
24.8472,501.19,506.02
24.8678,499.55,501.42
24.8922,500.44,498.94
24.9126,500.55,497.35
24.9332,502.04,495.28
24.9536,503.23,494.62
24.9741,507.19,497.3
24.9986,506.35,502.44
25.0192,505.08,505.35
25.0396,501.06,510.68
25.0602,496.25,514.34
25.0806,493.4,517.88
25.101,489.32,519.5
25.1256,489.26,521.2
25.1461,487.01,519.76
25.1667,486.4,517.21
25.1872,485.32,513.57
25.2077,484.46,509.65
25.2321,486.17,504.92
25.2526,487.33,500.14
25.2731,489.07,497.51
25.2938,491.45,495.61
25.3141,493.36,495.89
25.3345,494.69,498.51
25.359,505.35,503.21
25.3796,515.88,509.57
25.4001,524.51,514.85
25.4206,528.2,520.68
25.4411,531.16,524.35
25.4655,531.33,525.28
25.4862,531.66,525.42
25.5065,528.93,524.54
25.527,524.75,522.63
25.5476,512,529.3
25.568,490.2,542.24
25.5925,461.56,554.79
25.6131,435.45,561.84
25.6336,413.16,566.07
25.6541,396.33,564.25
25.6745,386.06,563.2
25.699,376.85,568.36
25.7195,372.48,587.69
25.7402,373.98,619.35
25.7606,378.19,652.48
25.7811,385.15,668.79
25.8014,389.92,662.83
25.826,399.74,638.06
25.8465,411.99,601.65
25.867,428.19,557.32
25.8875,446.55,513.46
25.9079,463.44,475.56
25.9325,475.75,446.65
25.953,483,425.52
25.9735,492.8,414.42
25.9939,499.84,408.93
26.0145,505.27,406.55
26.0349,504.22,408.64
26.0594,507.98,414.91
26.0799,510.98,424.93
26.1004,511.98,437.74
26.1209,512.39,454.19
26.1414,512.11,470.56
26.162,526.89,483.44
26.1864,554.31,493.36
26.207,585.85,494.88
26.2275,615.88,493.11
26.248,634.3,489.69
26.2683,641.04,485.95
26.293,640.03,481.76
26.3135,637.23,481.41
26.334,627.58,475.53
26.3544,617.47,472.82
26.3751,607.77,473.26
26.3955,600.02,474.61
26.4199,591.81,477.28
26.4404,584.25,482.23
26.4609,577,488.38
26.4814,570.4,493.71
26.5019,564.32,500.76
26.5263,555.66,505.41
26.5469,547.53,510.33
26.5674,542.02,514.06
26.5879,535.82,516.25
26.6083,531.45,516.4
26.6289,522.56,508.12
26.6534,517.65,500.3
26.6738,515.92,494.44
26.6944,512.34,490.35
26.7149,509.47,484.68
26.7354,506.78,481.54
26.7599,506.62,479.84
26.7803,509.5,479.67
26.8008,511.2,481.73
26.8213,510.56,486.59
26.8418,511.45,492.47
26.8622,513.56,496.38
26.8867,514.25,502.1
26.9074,513.8,508.28
26.9278,511.04,512.82
26.9483,511.23,524.46
26.9688,511.38,532.37
26.9933,510.11,534.29
27.0138,509.29,534.84
27.0343,508.03,532.47
27.0548,506.22,527.77
27.0753,505.18,522.42
27.0958,504.74,515.94
27.1202,505.19,510.35
27.1408,505.36,506.08
27.1613,506.28,504.86
27.1819,506.63,506.89
27.2022,509.5,508.91
27.2227,512,511.93
27.2474,513.2,515.34
27.2678,511.96,518.88
27.2883,512.17,523.1
27.3088,511.94,524.68
27.3293,510.55,524.94
27.3537,509.24,523.56
27.3743,507.79,520.64
27.3947,506.23,518.12
27.4152,505.19,512.09
27.4357,504.35,505.47
27.4564,502.68,500.38
27.4808,504.14,495.7
27.5013,501.71,492.96
27.5217,504.57,491.17
27.5422,506.06,494.34
27.5627,507.25,499.27
27.5871,508.2,504.02
27.6077,509.76,508.01
27.6282,509.41,512.81
27.6487,508.92,518.25
27.6691,510.74,522.8
27.6896,506.19,523.64
27.7142,504.75,522.11
27.7347,504,519.89
27.7553,503.2,516.31
27.7757,501.36,511.05
27.7962,500.29,505.84
27.8207,498.43,500.67
27.8411,499.55,496.94
27.8616,500.04,495.35
27.8821,500.83,496.08
27.9026,498.46,498.06
27.9231,489.37,507.05
27.9475,474.7,515.24
27.9681,465.76,521.19
27.9886,460.01,524.55
28.0092,460.8,527.44
28.0295,462.84,528.15
28.0501,463.48,528.72
28.0746,464.38,528.18
28.0952,466.9,525.54
28.1156,468.12,521.23
28.136,471.3,517.19
28.1565,474.04,511.15
28.181,475.63,505.52
28.2015,478.9,501.22
28.222,480.72,498.77
28.2425,482.78,496.82
28.2631,489.62,496.85
28.2835,493.1,498.88
28.3081,496.48,501.71
28.3286,499.18,505.37
28.3491,500.15,509.89
28.3695,503.12,514.31
28.3901,504.49,516.85
28.4145,505.4,518.28
28.435,504.12,518.62
28.4555,504.49,518.7
28.476,505.99,517.16
28.4965,505.4,512.33
28.517,504.92,508.06
28.5415,503.73,503.65
28.562,502.99,499.52
28.5825,503.59,497.22
28.603,506.47,495.77
28.6235,508.38,494.42
28.648,509.9,496.93
28.6684,510.92,499.95
28.6891,512.94,503.16
28.7096,514.15,507.93
28.7299,517.32,513.14
28.7505,515.66,516.91
28.775,516.72,520.73
28.7955,516.58,523.18
28.8162,512.66,522.95
28.8364,510.13,520.56
28.8569,508.3,516.45
28.8814,507.24,511.96
28.902,507.8,506.97
28.9224,507.84,501.97
28.943,508.87,498.58
28.9635,511.3,495.06
28.984,512.44,493.45
29.0084,514.55,494.36
29.0289,519.24,497.09
29.0494,538.79,498.67
29.0699,552.83,499.94
29.0905,561.47,503.15
29.1109,566.37,506.32
29.1354,568.5,509.06
29.156,564.2,510.84
