Program Time [s],data 0,data 1
13.58599,454.48,626.43
13.60721,453.54,625.07
13.62745,457.28,623.39
13.64603,453.98,621.08
13.66718,462.00,625.75
13.68795,464.10,625.79
13.70726,459.04,618.79
13.72626,460.04,621.82
13.74751,460.81,618.00
13.76622,457.33,620.10
13.78638,457.25,619.98
13.80772,457.05,617.87
13.82626,457.49,621.39
13.84680,449.63,621.27
13.86586,451.31,621.13
13.88744,450.48,626.00
13.90703,448.99,625.62
13.92694,448.07,623.72
13.94593,450.68,621.11
13.96665,449.90,618.65
13.98615,451.86,619.19
14.00759,453.27,614.92
14.02632,455.42,615.21
14.04781,454.06,612.72
14.06665,453.92,612.47
14.08742,453.35,609.40
14.10588,455.39,608.24
14.12607,454.48,603.79
14.14778,456.47,602.76
14.16733,455.92,601.25
14.18693,452.70,600.45
14.20660,455.23,598.51
14.22602,455.77,598.59
14.24763,452.05,597.27
14.26581,454.27,597.72
14.28625,454.50,597.16
14.30668,455.45,598.87
14.32769,452.01,595.92
14.34679,452.85,597.55
14.36763,451.68,599.29
14.38685,453.18,600.89
14.40638,449.42,599.17
14.42752,448.85,601.73
14.44735,449.35,604.17
14.46587,447.50,603.43
14.48646,446.64,608.49
14.50689,448.39,609.12
14.52647,448.43,609.55
14.54642,445.44,608.90
14.56745,446.89,611.40
14.58665,446.43,608.01
14.60744,447.76,608.15
14.62713,445.98,609.89
14.64597,447.78,610.71
14.66682,447.39,610.80
14.68634,445.92,609.96
14.70737,450.98,610.75
14.72696,447.81,614.37
14.74778,449.68,613.68
14.76652,451.65,611.60
14.78787,449.16,609.35
14.80652,448.22,610.21
14.82685,451.36,610.40
14.84693,450.58,608.38
14.86717,448.76,609.25
14.88658,449.37,611.69
14.90725,447.69,608.83
14.92669,450.33,610.78
14.94764,449.27,611.84
14.96632,451.22,610.36
14.98694,449.05,612.05
15.00654,450.02,610.81
15.02724,453.57,608.97
15.04641,451.05,609.36
15.06646,451.75,609.75
15.08690,452.11,609.39
15.10725,451.27,613.64
15.12716,442.73,614.09
15.14647,428.34,612.86
15.16821,408.83,606.54
15.18714,389.63,602.62
15.20846,371.95,598.05
15.22820,355.42,594.87
15.24848,339.90,585.84
15.26843,337.53,578.09
15.28684,332.27,572.88
15.30753,333.09,562.11
15.32700,337.94,556.60
15.34765,347.69,554.48
15.36823,355.87,553.79
15.38830,361.85,555.17
15.40749,372.76,555.49
15.42751,381.20,560.49
15.44735,389.20,564.91
15.46852,395.16,572.68
15.48816,404.42,576.86
15.50818,408.04,577.35
15.52857,414.00,580.98
15.54730,418.83,584.49
15.56746,421.83,590.22
15.58841,425.70,592.05
15.60782,431.40,596.15
15.62848,434.31,599.27
15.64825,435.95,601.27
15.66823,439.64,600.21
15.68848,442.14,601.74
15.70739,443.47,603.79
15.72754,445.30,603.78
15.74826,445.80,606.26
15.76776,446.06,609.44
15.78826,448.44,608.15
15.80704,449.64,610.24
15.82733,451.00,612.34
15.84855,451.38,611.45
15.86693,450.54,610.90
15.88687,451.91,615.87
15.90842,454.54,614.42
15.92778,462.44,620.49
15.94859,483.69,630.46
15.96801,510.07,647.67
15.98733,537.85,660.31
16.00691,567.73,675.30
16.02866,594.62,678.93
16.04718,609.57,680.28
16.06846,612.85,675.63
16.08690,607.09,672.61
16.10746,598.76,669.36
16.12763,588.01,663.97
16.14789,575.89,660.19
16.16844,565.58,655.76
16.18870,553.00,649.07
16.20772,540.85,644.40
16.22837,532.11,643.95
16.24740,522.05,641.25
16.26876,514.73,635.74
16.28772,505.69,631.79
16.30867,499.66,630.43
16.32849,492.57,630.08
16.34865,486.95,625.59
16.36806,483.55,625.63
16.38893,481.25,622.09
16.40936,475.99,623.14
16.42941,474.13,620.73
16.44950,473.36,619.79
16.46894,469.50,619.30
16.48990,471.14,619.22
16.51007,468.11,616.52
16.53070,469.77,620.32
16.55149,467.35,616.83
16.57118,470.37,617.41
16.59121,470.46,617.38
16.61180,467.91,620.60
16.63081,468.48,618.04
16.65084,469.43,619.32
16.67269,468.57,619.78
16.69249,471.56,617.04
16.71309,471.94,616.57
16.73352,471.86,616.34
16.75237,476.37,619.74
16.77191,473.72,618.84
16.79284,477.55,617.64
16.81184,476.05,617.71
16.83321,476.83,615.02
16.85335,476.36,617.21
16.87336,472.22,615.69
16.89246,475.05,616.76
16.91328,474.21,617.99
16.93313,472.71,617.74
16.95183,474.14,616.39
16.97388,475.55,616.85
16.99184,474.46,619.42
17.01431,476.62,618.45
17.03417,473.46,616.04
17.05368,477.64,614.36
17.07308,477.02,617.22
17.09424,476.30,616.80
17.11310,480.17,614.35
17.13433,480.03,616.24
17.15475,477.48,619.45
17.17598,476.64,618.51
17.19544,475.33,620.80
17.21567,475.30,618.04
17.23669,478.57,618.75
17.25627,475.66,617.97
17.27756,477.74,620.73
17.29606,480.21,620.20
17.31572,477.42,622.09
17.33840,478.59,622.57
17.35763,479.02,622.42
17.37758,478.60,621.70
17.39717,474.66,621.47
17.41814,474.15,620.74
17.43828,473.75,622.14
17.45704,473.84,619.70
17.47833,471.27,621.63
17.49880,471.73,618.57
17.51745,474.27,619.17
17.53786,472.20,620.12
17.55780,471.49,617.83
17.57692,474.99,621.22
17.59780,472.57,617.83
17.61699,475.77,619.03
17.63799,476.36,619.12
17.65868,474.75,617.21
17.67786,473.80,619.76
17.69867,472.64,617.38
17.71740,473.82,617.87
17.73836,475.20,616.55
17.75684,473.88,619.36
17.77817,475.29,616.43
17.79818,474.15,615.89
17.81822,475.36,615.63
17.83801,477.27,614.66
17.85817,476.50,615.08
17.87791,475.09,618.66
17.89760,474.48,616.82
17.91780,475.48,617.37
17.93760,475.55,617.97
17.95727,474.90,619.33
17.97783,473.23,618.00
17.99672,470.85,616.48
18.01759,470.39,615.70
18.03727,471.19,616.78
18.05794,470.09,617.79
18.07699,472.25,614.03
18.09695,469.85,613.80
18.11866,472.48,614.74
18.13778,468.95,611.74
18.15785,472.93,614.73
18.17797,470.82,613.41
18.19756,474.00,614.30
18.21688,471.96,612.36
18.23802,470.59,612.81
18.25690,459.14,614.51
18.27845,441.83,609.52
18.29783,419.25,606.88
18.31785,399.70,602.75
18.33828,378.21,597.54
18.35755,365.07,588.88
18.37742,352.21,579.34
18.39814,344.38,573.07
18.41773,340.70,569.35
18.43776,342.12,563.92
18.45727,346.33,562.82
18.47860,352.79,561.72
18.49855,360.49,563.32
18.51867,370.78,566.20
18.53766,382.10,570.48
18.55844,394.33,574.90
18.57729,400.54,575.80
18.59773,407.88,579.95
18.61869,417.05,585.79
18.63791,425.06,589.85
18.65845,431.97,592.81
18.67795,437.13,598.86
18.69928,438.29,598.87
18.72064,443.45,603.50
18.73921,444.78,604.08
18.76001,447.85,604.74
18.78049,451.54,609.63
18.80009,451.21,610.73
18.82059,454.31,611.34
18.83903,454.08,612.26
18.85988,453.75,609.97
18.88062,455.72,610.96
18.90087,458.69,614.83
18.91996,458.41,613.41
18.94028,457.77,616.46
18.96046,458.79,613.31
18.98148,457.80,613.86
19.00090,456.65,614.37
19.02176,454.79,614.90
19.04110,457.64,613.91
19.06154,458.32,614.48
19.08094,458.21,615.49
19.10274,455.63,618.61
19.12418,467.26,624.05
19.14556,490.65,633.10
19.16412,518.89,650.73
19.18560,546.48,661.66
19.20521,573.76,673.24
19.22464,593.25,675.04
19.24556,605.26,675.92
19.26666,604.20,674.82
19.28515,599.60,669.07
19.30536,591.02,661.91
19.32643,580.01,657.55
19.34643,568.71,652.02
19.36527,556.14,649.75
19.38624,543.63,642.91
19.40640,532.56,637.40
19.42738,524.02,633.17
19.44634,516.48,632.66
19.46644,509.46,630.32
19.48808,500.45,627.90
19.50791,494.28,624.89
19.52843,488.36,622.40
19.54719,483.08,620.09
19.56826,478.70,620.40
19.58878,476.48,618.88
19.60889,472.38,618.34
19.62729,472.29,617.02
19.64724,469.79,617.38
19.66827,465.50,617.45
19.68696,467.47,617.74
19.70779,463.56,616.74
19.72814,464.27,616.16
19.74768,461.74,617.87
19.76906,463.58,615.23
19.78802,463.75,616.76
19.80916,460.22,615.78
19.82885,462.78,615.49
19.84790,459.74,615.00
19.86812,459.04,614.43
19.88799,458.64,614.42
19.90961,457.93,615.54
19.92944,460.22,612.91
19.94886,462.08,613.70
19.96902,463.64,614.93
19.99045,463.92,614.85
20.01022,462.30,614.91
20.02876,461.60,612.52
20.04966,459.81,613.83
20.07032,459.37,616.30
20.08954,460.89,615.09
20.11079,462.52,616.85
20.13041,461.42,613.76
20.15187,465.37,614.27
20.17297,468.23,617.08
20.19411,467.70,615.03
20.21365,472.30,616.18
20.23397,472.56,614.88
20.25341,471.27,615.05
20.27276,475.37,613.80
20.29421,475.08,616.24
20.31293,475.31,615.77
20.33533,473.02,615.68
20.35520,475.01,613.73
20.37524,475.99,616.19
20.39499,476.47,612.50
20.41563,473.72,616.18
20.43698,473.25,615.84
20.45914,470.37,615.68
20.47858,471.42,616.07
20.49998,468.82,613.63
20.52011,468.51,616.29
20.54141,466.11,614.96
20.56029,461.79,614.23
20.58020,463.57,616.65
20.60108,461.89,615.24
20.61961,462.87,615.78
20.64132,461.27,614.29
20.66262,460.27,614.94
20.68096,461.30,617.00
20.70215,456.62,616.48
20.72108,458.31,618.80
20.74200,459.57,617.80
20.76148,457.62,618.71
20.78140,457.43,618.07
20.80101,457.74,618.10
20.82173,455.68,618.58
20.84192,454.50,619.15
20.86259,454.50,619.69
20.88226,454.87,618.45
20.90272,453.38,615.95
20.92167,454.56,615.22
20.94220,456.01,617.09
20.96224,457.09,614.06
20.98115,455.38,615.61
21.00346,454.72,612.97
21.02229,456.06,610.82
21.04392,456.34,611.32
21.06518,455.03,610.35
21.08539,455.44,612.78
21.10419,455.07,612.28
21.12422,454.46,613.80
21.14471,455.48,611.92
21.16502,455.55,612.81
21.18477,454.01,610.63
21.20372,453.83,613.35
21.22453,453.20,611.15
21.24423,450.74,611.83
21.26440,452.06,611.00
21.28440,449.55,613.38
21.30556,451.98,614.06
21.32405,452.27,613.06
21.34384,452.90,611.44
21.36454,451.08,614.46
21.38452,451.43,612.99
21.40449,451.60,615.29
21.42429,452.49,612.17
21.44503,451.62,611.88
21.46526,454.27,611.90
21.48549,452.39,613.92
21.50710,449.65,611.28
21.52616,438.81,609.59
21.54691,418.81,596.41
21.56688,400.60,585.03
21.58745,379.14,572.19
21.60739,361.26,564.51
21.62604,346.54,555.02
21.64748,334.74,552.30
21.66748,330.84,547.76
21.68703,327.47,552.43
21.70662,331.45,551.36
21.72786,335.65,560.48
21.74985,340.90,564.68
21.76948,348.74,568.33
21.79055,358.76,575.58
21.81153,369.01,578.65
21.82973,382.72,582.20
21.85157,390.88,587.04
21.87121,397.75,590.24
21.89164,408.10,593.24
21.91143,417.98,593.59
21.93063,423.44,600.02
21.95130,429.41,600.28
21.97223,437.69,605.26
21.99189,443.67,603.58
22.01183,446.71,607.90
22.03249,451.11,610.16
22.05443,454.26,611.05
22.07398,455.12,611.56
22.09391,457.84,612.27
22.11428,458.82,613.98
22.13408,459.55,613.57
22.15447,461.70,612.86
22.17540,463.59,612.56
22.19611,465.30,615.13
22.21618,467.37,615.69
22.23556,469.64,615.17
22.25585,469.51,616.92
22.27534,465.57,618.66
22.29599,470.28,618.66
22.31501,468.88,619.38
22.33660,472.38,618.83
22.35665,470.40,619.48
22.37737,474.28,618.39
22.39560,476.14,616.89
22.41703,476.37,620.33
22.43711,472.90,619.91
22.45587,475.27,617.73
22.47601,473.15,618.04
22.49599,475.45,618.79
22.51589,475.37,619.84
22.53641,477.72,618.71
22.55690,493.21,627.95
22.57664,518.95,634.29
22.59666,547.45,645.51
22.61674,579.09,652.65
22.63815,604.22,655.37
22.65683,619.00,654.45
22.67785,619.25,653.27
22.69882,614.04,649.74
22.71820,607.15,645.46
22.73909,592.53,643.86
22.75847,583.28,638.78
22.77802,571.29,635.04
22.79888,562.60,634.42
22.81850,551.65,631.27
22.83928,542.62,629.14
22.85903,533.41,625.99
22.87943,525.79,623.43
22.89816,515.29,623.19
22.91905,511.71,623.71
22.93871,506.26,621.98
22.95913,499.98,625.35
22.97781,494.98,621.98
22.99896,487.90,622.45
23.01946,488.29,622.94
23.03922,483.12,623.77
23.05862,481.40,622.67
23.07921,477.52,622.53
23.09837,477.31,621.92
23.11796,476.12,618.40
23.13813,472.56,619.24
23.15938,471.32,618.96
23.17878,469.69,619.38
23.19892,467.93,617.52
23.21882,466.45,619.89
23.23920,466.68,619.83
23.25879,468.01,617.65
23.27976,466.97,618.35
23.29833,467.45,616.65
23.31866,467.22,617.07
23.33881,466.55,615.91
23.35791,463.91,615.48
23.37935,465.42,617.54
23.39761,471.07,623.51
23.41962,476.83,625.27
23.43855,484.02,630.08
23.45763,483.78,629.05
23.47804,483.76,630.57
23.49791,486.43,627.96
23.51838,483.44,629.88
23.53907,481.89,625.41
23.55898,482.75,626.12
23.57922,481.98,626.82
23.59754,480.28,622.91
23.61899,475.86,623.83
23.63884,474.12,624.97
23.65838,473.31,625.47
23.67845,470.85,622.24
23.69905,472.26,620.81
23.71813,472.53,617.45
23.73776,467.81,616.00
23.75801,470.75,615.92
23.77783,469.84,616.61
23.79879,467.94,616.48
23.81828,470.73,614.12
23.83798,469.83,617.15
23.85773,470.08,616.27
23.87885,466.44,614.35
23.90149,465.01,614.76
23.92032,463.76,612.86
23.94230,462.92,612.81
23.96222,460.39,615.79
23.98359,461.03,614.44
24.00175,459.65,613.16
24.02248,457.57,612.49
24.04140,457.19,612.61
24.06253,456.22,614.49
24.08237,455.91,612.13
24.10329,454.52,613.87
24.12392,455.47,615.40
24.14287,453.58,616.05
24.16284,451.01,614.96
24.18345,453.72,615.77
24.20306,452.14,615.92
24.22416,451.72,615.45
24.24381,455.22,617.15
24.26362,453.57,616.17
24.28404,450.96,613.02
24.30333,452.30,614.61
24.32487,452.80,615.30
24.34591,453.63,613.73
24.36478,452.08,615.14
24.38654,455.11,611.00
24.40494,455.94,611.92
24.42445,452.62,612.50
24.44613,453.15,614.62
24.46674,456.28,613.21
24.48666,456.39,611.49
24.50687,453.85,613.61
24.52579,453.91,611.97
24.54763,456.01,611.10
24.56762,455.96,609.29
24.58715,453.87,613.23
24.60732,455.51,612.26
24.62849,456.71,611.67
24.64695,455.61,613.36
24.66764,457.51,613.48
24.68688,458.44,612.63
24.70790,461.77,609.73
24.72755,459.18,611.04
24.74705,460.02,610.38
24.76749,461.76,609.35
24.78768,459.76,609.22
24.80805,460.66,611.38
24.82766,464.06,608.57
24.84858,461.49,609.17
24.86956,461.64,611.36
24.88938,463.46,608.79
24.90959,465.67,608.76
24.93070,468.33,606.70
24.95049,465.81,610.44
24.97017,463.12,611.59
24.99057,449.17,613.20
25.01129,429.65,612.79
25.03221,406.53,612.75
25.05235,383.06,604.61
25.07105,365.40,596.62
25.09329,354.49,588.49
25.11289,345.63,579.33
25.13282,341.53,574.76
25.15294,340.01,569.95
25.17454,341.77,570.27
25.19529,350.46,568.14
25.21650,355.52,572.11
25.23615,360.34,575.71
25.25662,369.91,577.69
25.27812,379.41,582.28
25.29863,388.18,585.91
25.31894,398.06,585.75
25.33911,406.25,589.73
25.35931,413.05,591.92
25.37892,420.00,596.38
25.39925,427.43,597.98
25.41878,429.47,601.14
25.43841,433.60,603.55
25.45952,441.30,602.25
25.47904,441.98,605.20
25.49938,444.79,604.16
25.51950,447.83,607.43
25.53844,449.16,607.16
25.55881,452.45,606.84
25.57767,455.25,608.78
25.59920,455.83,607.75
25.61828,458.92,609.59
25.63929,459.85,607.02
25.65812,460.41,608.13
25.67915,462.79,609.77
25.69848,461.93,609.44
25.71866,463.85,610.76
25.73856,471.08,614.32
25.76055,495.12,621.74
25.78059,521.97,626.41
25.80169,552.30,626.09
25.82195,579.36,627.27
25.84096,605.69,629.62
25.86222,617.13,628.61
25.88213,623.14,626.45
25.90112,618.11,621.69
25.92079,609.66,622.70
25.94148,599.30,619.65
25.96254,587.82,619.70
25.98165,574.81,617.92
26.00155,561.51,617.29
26.02174,552.49,618.89
26.04279,541.19,619.94
26.06384,529.42,622.45
26.08420,522.33,625.92
26.10433,513.26,628.73
26.12431,505.80,629.51
26.14450,498.39,629.37
26.16396,493.40,627.91
26.18472,486.56,625.78
26.20485,482.64,624.50
26.22375,477.24,623.48
26.24509,473.58,619.99
26.26376,469.64,618.07
26.28457,465.14,617.47
26.30496,464.35,618.33
26.32534,462.22,615.01
26.34531,461.16,614.66
26.36537,458.46,614.58
26.38447,458.63,614.17
26.40528,453.79,612.37
26.42536,451.07,610.99
26.44497,450.34,609.75
26.46346,449.46,609.47
26.48476,449.98,610.29
26.50498,450.09,611.93
26.52424,449.45,609.95
26.54519,450.40,611.90
26.56405,451.88,612.42
26.58521,449.67,609.34
26.60610,452.74,614.17
26.62505,452.56,612.34
26.64621,454.41,610.32
26.66583,454.93,612.85
26.68609,453.37,612.40
26.70568,453.40,610.60
26.72830,454.85,611.61
26.74716,454.58,610.74
26.76667,456.80,611.26
26.78742,458.12,612.02
26.80663,456.14,611.94
26.82927,456.52,612.59
26.84927,459.08,612.09
26.87064,460.68,614.09
26.89117,465.33,613.69
26.91069,467.11,614.07
26.93085,467.28,610.88
26.95092,467.60,614.23
26.97105,469.08,610.23
26.98987,469.30,613.14
27.01159,468.98,613.80
27.03178,470.21,613.48
27.05120,469.90,612.82
27.06983,468.53,611.54
27.09024,467.76,615.11
27.11026,471.19,612.01
27.12995,469.22,612.98
27.14968,472.02,613.88
27.17022,468.15,614.21
27.19206,468.95,614.75
27.21225,470.47,614.59
27.23179,469.12,616.39
27.25285,472.76,616.91
27.27284,473.14,617.50
27.29186,472.85,617.00
27.31292,471.44,618.24
27.33363,473.30,616.46
27.35351,473.59,616.30
27.37280,472.45,617.25
27.39432,475.22,614.78
27.41373,472.21,614.29
27.43369,472.36,613.82
27.45337,473.02,615.45
27.47448,473.63,616.50
27.49400,473.22,614.91
27.51348,471.95,614.59
27.53438,475.33,615.63
27.55449,472.11,615.26
27.57552,472.48,613.02
27.59401,474.81,613.23
27.61433,474.85,614.90
27.63514,475.69,614.16
27.65435,478.16,613.59
27.67503,476.26,612.74
27.69483,475.69,615.83
27.71540,472.29,614.43
27.73483,474.48,612.78
27.75388,470.78,614.78
27.77442,472.10,613.82
27.79378,473.89,612.18
27.81496,475.07,613.42
27.83466,474.34,614.80
27.85528,476.75,616.92
27.87472,475.80,616.39
27.89490,477.59,615.96
27.91442,476.73,614.29
27.93502,474.38,615.25
27.95478,477.90,616.85
27.97376,476.74,615.41
27.99502,476.83,617.52
28.01525,471.84,619.82
28.03417,462.00,623.00
28.05506,440.05,630.11
28.07484,416.99,638.08
28.09458,392.58,641.08
28.11511,373.09,639.77
28.13403,353.88,629.92
28.15391,345.20,619.82
28.17457,336.30,607.59
28.19433,332.36,594.85
28.21369,333.64,590.93
28.23440,338.88,583.78
28.25425,344.75,579.84
28.27550,351.61,576.41
28.29354,356.14,578.60
28.31512,366.53,575.17
28.33364,375.88,576.97
28.35417,385.28,581.42
28.37367,390.58,583.68
28.39482,400.75,585.29
28.41524,408.27,587.58
28.43396,416.30,590.94
28.45396,423.94,597.08
28.47513,432.44,598.22
28.49523,434.30,599.44
28.51344,439.88,600.84
28.53416,447.35,605.54
28.55447,451.49,606.46
28.57487,454.37,606.26
28.59372,457.50,607.62
28.61453,457.10,609.92
28.63541,460.00,609.71
28.65472,462.03,609.19
28.67395,461.34,611.65
28.69453,466.23,613.01
28.71391,464.82,609.75
28.73401,466.75,612.30
28.75461,469.92,613.70
28.77479,467.40,612.64
28.79390,470.52,614.71
28.81465,480.65,613.48
28.83376,500.93,615.76
28.85459,523.91,617.27
28.87496,551.80,620.97
28.89342,583.16,625.51
28.91363,612.03,629.01
28.93486,632.31,634.91
28.95385,642.04,636.84
28.97455,645.48,636.31
28.99376,636.00,638.16
29.01347,626.61,634.16
29.03359,615.42,633.72
29.05529,605.26,630.45
29.07397,589.77,631.39
29.09450,578.38,634.76
29.11398,571.22,634.44
29.13509,560.08,633.34
29.15518,549.50,634.47
29.17428,542.82,630.75
29.19457,535.27,631.89
29.21480,524.13,631.31
29.23471,520.78,627.49
29.25465,512.87,629.78
29.27464,507.10,627.40
29.29730,503.33,625.52
29.31613,499.50,626.05
29.33611,495.27,629.48
29.35685,493.84,626.25
29.37686,489.36,625.22
29.39771,486.32,623.31
29.41862,484.18,623.65
29.43750,482.68,622.29
29.45900,477.80,623.16
29.47880,479.29,621.10
29.49806,476.66,620.14
29.51785,477.74,620.14
29.53870,477.96,621.48
29.55903,474.97,618.49
29.57939,474.62,616.77
29.59864,472.22,617.40
29.61801,473.36,617.59
29.63792,473.65,617.22
29.65770,471.44,615.76
29.67751,473.28,613.16
29.69786,470.90,615.33
29.71943,472.91,614.06
29.73828,471.91,612.38
29.75861,469.99,611.79
29.77847,470.84,612.69
29.79880,468.54,615.71
29.81893,470.11,616.05
29.83988,468.27,614.09
29.85966,466.43,615.97
29.87905,468.37,617.26
29.90038,468.90,617.46
29.92040,465.55,617.38
29.93876,464.24,616.85
29.96001,465.50,615.23
29.98025,465.21,616.60
30.00235,464.32,613.82
30.02176,464.65,612.01
30.04353,461.68,612.99
30.06367,458.27,615.14
30.08369,456.19,613.20
30.10408,454.99,615.16
30.12516,454.46,617.39
30.14354,453.63,615.29
30.16423,451.90,615.64
30.18491,452.92,618.58
30.20395,451.63,617.78
30.22489,453.82,616.24
30.24411,452.04,616.57
30.26436,451.50,616.10
30.28521,452.42,615.47
30.30531,447.58,613.70
30.32410,447.99,613.59
30.34457,448.10,615.26
30.36361,449.66,614.06
30.38410,449.57,613.24
30.40372,448.90,612.91
30.42380,447.33,613.23
30.44525,451.60,614.03
30.46470,449.29,616.58
30.48398,449.92,612.57
30.50457,451.32,613.70
30.52397,448.84,613.48
30.54538,450.15,614.94
30.56445,452.71,614.75
30.58516,450.49,616.10
30.60406,450.61,614.46
30.62373,449.55,613.52
30.64432,449.77,612.84
30.66377,449.34,614.42
30.68479,447.65,614.09
30.70437,447.76,614.54
30.72459,449.24,616.16
30.74466,449.52,613.76
30.76639,450.04,616.33
30.78612,449.00,615.00
30.80458,451.02,616.37
30.82453,451.33,614.19
30.84483,452.80,614.48
30.86491,449.82,613.55
30.88672,450.13,615.14
30.90708,453.62,615.51
30.92811,454.00,613.24
30.94792,451.62,614.55
30.96746,451.74,612.77
30.98829,451.14,611.76
31.00759,451.96,613.07
31.02719,452.90,613.20
31.04724,452.99,613.54
31.06820,454.03,617.73
31.08841,451.61,618.59
31.10778,451.06,618.26
31.12759,453.07,618.02
31.14742,451.14,616.69
31.16869,455.56,619.14
31.18907,454.53,616.57
31.20889,456.44,615.96
31.22948,454.48,615.89
31.24837,458.11,615.12
31.26751,456.39,615.57
31.28833,456.45,613.35
31.30924,459.90,614.33
31.32856,460.67,613.48
31.34922,460.37,614.74
31.36934,458.66,615.01
31.38771,458.65,611.78
31.40895,459.64,612.02
31.42802,457.78,614.09
31.44893,459.01,613.84
31.46922,455.42,612.52
31.48860,455.61,611.00
31.50878,458.36,613.99
31.52786,458.37,613.49
31.54916,456.39,608.04
31.56872,457.35,609.23
31.58855,456.45,608.97
31.60793,455.47,611.19
31.62836,457.90,611.35
31.64782,458.18,609.32
31.67039,456.03,612.97
31.68984,457.24,612.54
31.70866,458.56,610.65
31.73020,456.49,611.87
31.75025,457.74,610.02
31.77017,457.79,611.68
31.79023,459.91,610.03
31.80914,451.72,612.46
31.82886,434.99,609.03
31.84862,413.78,609.86
31.86979,389.92,604.42
31.88902,368.24,599.90
31.91007,349.86,592.71
31.93017,335.50,590.34
31.94898,326.78,583.53
31.97060,321.15,581.61
31.99008,318.92,582.05
32.01111,323.12,581.93
32.03107,325.92,583.36
32.05063,333.09,583.34
32.06983,338.90,584.36
32.09030,349.78,582.30
32.11113,361.25,585.89
32.13090,371.85,589.50
32.14998,378.86,590.29
32.17082,387.29,595.30
32.19150,398.13,597.16
32.21201,404.74,598.75
32.23045,409.78,600.60
32.25115,417.67,601.86
32.27054,423.37,607.79
32.29187,428.09,606.49
32.31206,433.33,607.56
32.33228,435.29,609.65
32.35126,441.71,609.14
32.37325,443.51,609.38
32.39253,445.80,611.62
32.41322,451.98,609.21
32.43161,453.65,609.85
32.45172,457.21,609.80
32.47168,457.87,610.29
32.49222,457.13,608.46
32.51340,459.31,612.05
32.53356,461.82,609.56
32.55372,461.39,614.88
32.57386,472.15,614.70
32.59270,491.74,617.99
32.61376,519.64,620.47
32.63378,552.35,618.97
32.65387,585.11,625.00
32.67369,610.57,629.83
32.69335,626.41,635.61
32.71338,634.35,635.32
32.73309,629.20,633.65
32.75252,625.27,636.16
32.77273,611.88,634.37
32.79311,603.85,631.04
32.81435,591.37,629.39
32.83287,580.32,633.08
32.85255,574.35,635.95
32.87295,566.04,638.03
32.89360,557.17,637.40
32.91389,547.89,632.64
32.93395,537.20,631.67
32.95286,529.85,631.54
32.97416,520.27,628.65
32.99402,512.98,627.33
33.01425,509.53,625.60
33.03268,500.18,621.82
33.05264,495.72,622.96
33.07278,492.28,623.19
33.09289,489.12,621.79
33.11253,487.03,621.94
33.13372,485.98,619.81
33.15435,484.27,619.14
33.17373,479.09,617.35
33.19393,479.12,617.18
33.21268,475.76,617.54
33.23418,475.51,619.27
33.25349,474.05,615.05
33.27297,470.49,617.23
33.29365,471.23,617.73
33.31348,467.84,617.62
33.33389,468.90,613.84
33.35373,468.02,616.22
33.37270,467.21,611.92
33.39374,464.61,612.90
33.41331,464.10,614.10
33.43290,465.47,612.33
33.45402,465.98,614.94
33.47321,466.81,613.14
33.49400,470.08,616.68
33.51282,468.65,615.98
33.53407,469.02,615.56
33.55366,468.06,616.01
33.57332,469.14,615.87
33.59318,467.58,615.69
33.61434,468.85,617.21
33.63300,469.17,617.41
33.65282,468.56,616.98
33.67370,469.47,613.12
33.69411,469.13,614.43
33.71278,468.36,614.42
33.73264,470.14,613.56
33.75380,468.40,615.33
33.77381,468.13,615.39
33.79436,466.96,613.44
33.81368,468.59,613.29
33.83270,468.55,614.99
33.85442,467.70,614.69
33.87379,468.82,615.37
33.89346,467.26,616.28
33.91367,468.06,613.42
33.93359,466.72,615.37
33.95429,469.34,614.68
33.97261,466.74,614.49
33.99330,466.22,613.20
34.01402,467.65,612.86
34.03428,465.07,611.67
34.05306,466.13,612.75
34.07418,465.61,612.64
34.09360,468.33,611.36
34.11388,466.76,613.01
34.13405,467.59,610.74
34.15406,467.87,610.50
34.17353,469.93,613.84
34.19378,469.04,613.55
34.21401,469.93,613.54
34.23287,468.57,614.63
34.25330,470.09,614.76
34.27392,470.73,614.99
34.29432,468.02,614.65
34.31304,469.67,611.94
34.33405,470.47,612.94
34.35339,470.23,614.47
34.37393,466.57,614.09
34.39387,466.78,612.97
34.41404,465.22,612.89
34.43366,466.73,613.33
34.45397,464.71,612.66
34.47396,466.35,613.87
34.49293,467.51,614.26
34.51326,465.86,613.96
34.53365,468.41,611.82
34.55348,469.57,613.89
34.57393,467.83,614.33
34.59402,467.66,611.20
34.61240,465.43,613.08
34.63348,466.86,613.32
34.65442,468.01,610.65
34.67288,469.28,610.87
34.69273,469.25,612.65
34.71367,465.91,613.32
34.73449,466.56,612.25
34.75370,467.35,612.87
34.77381,469.10,613.03
34.79364,468.36,611.84
34.81401,470.06,614.66
34.83398,467.07,613.36
34.85373,465.20,612.10
34.87410,466.47,613.41
34.89370,466.68,611.43
34.91413,463.32,611.07
34.93381,464.35,612.61
34.95251,463.63,612.39
34.97390,462.56,615.04
34.99248,465.24,613.70
35.01275,464.90,612.06
35.03403,464.10,615.10
35.05412,462.23,612.98
35.07258,463.64,615.15
35.09273,463.79,616.31
35.11291,464.12,616.33
35.13267,464.60,614.37
35.15270,466.27,616.19
35.17369,466.19,615.87
35.19255,468.72,617.13
35.21374,466.33,614.64
35.23307,466.57,613.99
35.25440,468.37,612.82
35.27409,468.62,615.32
35.29311,466.95,613.24
35.31287,464.63,613.72
35.33442,468.33,612.66
35.35250,468.13,612.11
35.37391,464.40,612.37
35.39434,466.70,614.51
35.41388,466.09,612.74
35.43284,466.13,611.65
35.45316,467.52,611.82
35.47276,469.41,612.41
35.49415,468.35,610.52
35.51234,468.71,609.67
35.53426,470.09,612.83
35.55385,464.54,612.55
35.57432,453.79,618.42
35.59419,435.68,625.86
35.61472,415.68,630.18
35.63356,393.37,625.41
35.65439,374.14,619.30
35.67352,354.16,612.93
35.69508,342.78,602.52
35.71515,336.81,589.17
35.73322,332.06,578.32
35.75530,331.36,571.29
35.77360,335.90,567.31
35.79393,336.43,565.13
35.81494,345.18,562.33
35.83386,351.75,561.78
35.85370,359.35,561.21
35.87387,369.64,563.78
35.89370,377.86,567.51
35.91383,387.92,571.70
35.93392,394.13,571.34
35.95523,403.28,576.60
35.97510,411.02,579.87
35.99470,419.29,582.45
36.01511,425.52,587.96
36.03517,430.31,587.46
36.05419,437.34,591.57
36.07456,442.66,593.38
36.09508,445.82,596.67
36.11499,450.92,601.11
36.13443,451.86,602.41
36.15434,454.29,600.98
36.17421,455.48,604.28
36.19486,457.91,605.46
36.21478,462.32,608.25
36.23396,462.60,606.00
36.25379,464.37,607.50
36.27454,466.95,611.54
36.29441,466.88,611.25
36.31482,469.11,613.98
36.33453,466.64,614.04
36.35441,469.01,613.49
36.37385,467.19,611.42
36.39357,466.10,613.10
36.41368,467.97,611.70
36.43508,468.60,611.61
36.45400,470.96,611.67
36.47416,471.91,611.57
36.49393,471.19,613.74
36.51323,477.23,614.32
36.53516,493.73,614.03
36.55384,515.52,612.74
36.57365,535.66,609.40
36.59463,560.05,614.40
36.61384,585.91,619.34
36.63532,605.94,630.57
36.65392,627.16,639.68
36.67353,635.99,647.56
36.69472,636.19,648.91
36.71384,629.63,646.16
36.73390,621.91,645.39
36.75446,612.02,642.00
36.77602,595.43,641.36
36.79649,582.25,637.15
36.81544,569.94,633.59
36.83563,557.05,631.67
36.85582,547.52,629.82
36.87649,538.25,627.05
36.89470,528.15,628.60
36.91513,516.71,626.65
36.93578,510.19,627.57
36.95449,504.59,626.31
36.97563,500.25,623.55
36.99449,492.77,623.93
37.01624,493.57,622.88
37.03555,490.57,622.05
37.05500,487.09,620.83
37.07616,486.35,621.91
37.09495,483.94,621.84
37.11543,484.17,621.35
37.13606,478.73,619.00
37.15450,479.21,620.53
37.17549,478.04,619.93
37.19594,477.46,617.87
37.21556,477.63,617.52
37.23473,474.89,618.61
37.25430,476.75,616.19
37.27611,473.66,615.81
37.29466,471.13,615.99
37.31509,472.52,614.37
37.33484,472.61,615.78
37.35530,475.29,614.20
37.37460,475.92,614.83
37.39482,471.95,611.40
37.41476,472.92,610.74
37.43603,472.50,613.89
37.45477,470.25,611.79
37.47519,471.42,612.80
37.49632,470.44,612.82
37.51570,471.55,614.10
37.53484,469.13,617.90
37.55584,470.80,617.87
37.57563,469.69,617.97
37.59465,468.42,619.07
37.61558,469.39,617.27
37.63441,466.94,618.45
37.65641,467.28,616.22
37.67683,467.69,616.11
37.69622,468.39,618.58
37.71597,470.96,615.70
37.73563,470.34,619.18
37.75671,470.56,615.32
37.77636,471.16,614.05
37.79641,472.32,615.06
37.81602,467.95,616.20
37.83648,470.13,613.61
37.85715,469.68,612.60
37.87578,470.96,614.66
37.89667,471.24,612.07
37.91687,472.07,612.65
37.93546,472.59,614.84
37.95568,474.12,613.23
37.97739,472.66,611.92
37.99603,473.28,613.66
38.01592,471.60,612.22
38.03535,472.75,614.49
38.05648,471.90,613.61
38.07572,469.68,613.29
38.09625,470.76,615.85
38.11635,468.44,615.77
38.13533,468.47,615.87
38.15662,469.52,613.99
38.17666,469.80,611.37
38.19679,472.58,612.91
38.21729,470.45,612.20
38.23705,470.20,613.71
38.25663,468.92,613.33
38.27668,470.49,615.09
38.29550,470.74,613.72
38.31550,473.20,616.31
38.33625,474.72,613.21
38.35543,471.94,614.79
38.37699,475.55,613.19
38.39577,472.44,613.98
38.41621,472.65,613.04
38.43634,473.06,612.35
38.45564,471.57,612.78
38.47648,471.38,613.04
38.49620,471.51,614.48
38.51554,473.92,613.46
38.53734,474.08,612.51
38.55670,475.18,613.51
38.57742,476.12,612.52
38.59615,474.76,612.19
38.61558,473.01,612.19
38.63693,474.67,611.91
38.65572,472.50,614.36
38.67690,473.60,614.24
38.69648,472.88,613.15
38.71661,475.24,614.22
38.73635,474.04,616.65
38.75727,473.46,615.26
38.77672,472.90,619.16
38.79703,474.13,616.10
38.81696,475.05,615.80
38.83540,474.14,615.71
38.85718,475.73,617.98
38.87691,473.40,615.18
38.89578,474.13,615.75
38.91561,474.86,616.17
38.93622,474.31,615.18
38.95660,474.64,613.83
38.97648,472.16,615.43
38.99577,473.31,615.39
39.01560,475.00,612.35
39.03627,476.20,612.92
39.05561,474.91,613.77
39.07566,475.66,612.74
39.09650,473.08,611.68
39.11700,475.24,612.46
39.13602,473.30,613.96
39.15634,474.94,611.87
39.17571,474.58,614.08
39.19697,472.58,614.28
39.21712,469.93,612.33
39.23740,469.92,614.20
39.25628,468.95,614.49
39.27536,469.50,613.00
39.29525,467.61,612.85
39.31653,454.16,611.80
39.33605,435.81,605.96
39.35702,409.80,606.52
39.37679,382.68,605.12
39.39654,361.09,608.93
39.41576,343.21,607.00
39.43556,334.18,604.87
39.45580,323.91,603.76
39.47576,323.85,598.45
39.49652,325.60,592.07
39.51692,327.82,588.04
39.53667,336.25,583.31
39.55561,345.58,580.75
39.57519,357.11,580.16
39.59740,364.71,577.78
39.61661,378.40,581.50
39.63706,387.41,580.83
39.65788,396.63,586.28
39.67720,406.55,585.52
39.69667,417.19,589.38
39.71787,423.64,594.83
39.73751,429.21,595.05
39.75792,436.29,599.18
39.77771,439.68,601.10
39.79738,442.62,600.73
39.81655,449.53,602.66
39.83698,453.32,602.26
39.85781,456.51,604.61
39.87773,459.70,604.97
39.89710,460.42,606.35
39.91746,462.12,606.96
39.93697,461.87,605.71
39.95659,467.20,606.83
39.97716,468.38,609.01
39.99633,471.05,611.23
40.01821,480.18,610.36
40.03740,493.32,615.41
40.05629,507.50,617.16
40.07653,524.79,619.23
40.09778,547.32,625.70
40.11839,575.85,625.85
40.13821,601.11,627.42
40.15663,619.64,629.28
40.17646,631.78,629.02
40.19764,636.72,628.82
40.21783,629.70,627.32
40.23820,623.23,626.57
40.25763,612.95,626.50
40.27705,598.54,623.25
40.29636,587.83,623.74
40.31736,576.20,624.07
40.33713,563.83,621.90
40.35710,556.24,628.77
40.37632,546.75,632.80
40.39697,538.42,631.92
40.41780,527.51,633.93
40.43823,521.66,632.15
40.45789,516.63,631.99
40.47751,510.66,632.16
40.49633,503.95,627.96
40.51701,500.24,625.13
40.53787,495.80,627.18
40.55642,493.68,626.63
40.57799,490.35,625.64
40.59747,490.66,623.00
40.61822,486.62,622.11
40.63680,488.24,617.84
40.65752,484.78,619.83
40.67731,485.12,617.05
40.69842,483.17,617.73
40.71874,482.23,617.06
40.73907,480.27,616.63
40.75959,479.80,616.26
40.77762,481.18,616.47
40.79902,480.06,614.87
40.81790,479.58,612.28
40.83829,478.81,613.30
40.85724,479.79,612.01
40.87764,479.36,612.44
40.89894,479.74,614.07
40.91876,477.46,614.54
40.93882,481.59,610.13
40.95774,479.29,610.59
40.97801,476.94,612.01
40.99915,476.76,612.67
41.01875,478.01,612.58
41.03914,476.53,612.85
41.05790,474.19,611.73
41.07744,472.86,613.34
41.09784,474.20,611.24
41.11730,474.53,611.56
41.13822,473.82,613.14
41.15824,472.62,612.35
41.17896,472.42,612.67
41.19849,473.16,613.12
41.21918,471.75,615.47
41.23864,471.52,616.50
41.25840,471.08,615.18
41.27769,470.07,613.54
41.29732,472.95,615.36
41.31894,472.77,611.35
41.33795,474.30,610.57
41.35784,471.94,610.55
41.37875,474.30,613.02
41.39716,473.68,611.37
41.41774,473.71,611.66
41.43822,476.79,613.13
41.45878,478.77,610.09
41.47882,478.29,610.01
41.49869,476.31,609.72
41.51871,477.57,608.89
41.53803,474.14,610.03
41.55798,474.30,611.87
41.57949,472.84,611.63
41.59849,472.52,608.94
41.61829,472.68,609.97
41.63972,472.68,609.26
41.65900,474.04,609.76
41.67915,478.01,613.37
41.70025,476.70,611.95
41.71852,479.74,612.14
41.73928,476.96,612.04
41.75942,478.62,614.15
41.77920,476.05,616.24
41.79920,476.49,615.10
41.81900,479.36,613.05
41.83823,479.77,613.96
41.85847,477.05,613.08
41.87812,476.58,615.24
41.89806,473.45,615.19
41.91897,474.74,612.91
41.94081,475.94,613.53
41.96118,474.29,613.84
41.98089,474.50,612.92
42.00056,475.71,613.67
42.01949,475.67,614.03
42.03942,473.61,615.12
42.05911,475.87,613.09
42.08056,477.30,615.24
42.10068,477.01,614.16
42.11973,474.79,612.95
42.13943,477.69,614.27
42.16045,475.60,617.39
42.17949,475.33,617.23
42.20071,478.48,614.80
42.22064,477.07,614.23
42.23981,477.41,615.53
42.25951,479.17,617.79
42.28117,478.00,617.29
42.29960,476.00,617.78
42.32005,475.94,614.83
42.33973,477.52,618.05
42.36043,476.97,617.12
42.38040,478.10,615.33
42.40037,475.51,615.46
42.41990,476.46,613.43
42.44019,475.22,612.45
42.45971,476.18,613.56
42.48021,476.39,613.12
42.50008,474.67,614.53
42.51974,476.42,614.41
42.54104,477.63,615.42
42.55977,476.62,614.20
42.58101,474.35,614.75
42.60053,474.39,611.98
42.62083,474.97,614.95
42.64107,475.04,613.20
42.65958,474.61,612.89
42.68037,476.41,615.30
42.70039,473.06,615.13
42.71942,476.37,614.66
42.73968,474.20,616.61
42.76045,475.47,615.70
42.78050,473.46,616.64
42.79940,474.44,615.69
42.82096,474.41,613.31
42.84003,475.66,614.82
42.86059,473.49,615.05
42.87929,474.58,613.07
42.89963,476.14,614.92
42.91947,475.63,613.74
42.94067,478.09,614.62
42.95938,478.07,615.44
42.98067,476.92,615.21
42.99995,474.33,613.80
43.02106,474.55,613.65
43.04036,473.69,611.55
43.06067,474.95,614.05
43.08048,473.34,613.96
43.10079,476.48,615.84
43.11989,477.86,617.25
43.13955,478.09,615.45
43.15959,477.19,616.72
43.18116,478.87,617.81
43.20117,476.22,614.94
43.21937,479.28,617.78
43.23934,475.92,616.20
43.25948,478.90,615.84
43.27961,477.20,615.95
43.29964,476.84,614.04
43.31980,476.20,614.35
43.33967,477.23,613.75
43.36001,473.18,616.67
43.38081,473.74,615.09
43.40059,472.09,612.98
43.42028,473.81,614.13
43.43990,474.61,613.77
43.45996,475.73,615.31
43.48048,474.15,613.55
43.49943,474.31,612.03
43.52003,476.05,612.60
43.53991,476.62,613.40
43.55951,477.36,613.26
43.57959,476.46,612.18
43.60007,476.90,612.46
43.62085,476.25,610.08
43.64085,470.10,608.01
43.66047,452.24,607.12
43.67983,432.66,605.52
43.70022,408.91,607.28
43.72102,384.29,602.02
43.74116,368.55,596.31
43.76191,356.47,592.23
43.78179,347.92,588.77
43.80157,344.06,587.48
43.82102,342.80,582.60
43.84054,346.21,583.19
43.86160,350.27,581.39
43.88141,353.41,581.96
43.90137,360.94,584.39
43.92186,366.76,586.67
43.94009,379.18,589.70
43.96034,387.11,590.42
43.98197,394.49,595.78
44.00193,403.93,595.02
44.02083,413.06,598.39
44.04174,418.66,600.74
44.06079,426.54,604.37
44.08066,434.89,603.88
44.10223,438.03,606.11
44.12039,443.33,605.58
44.14052,445.22,610.90
44.16077,452.16,609.24
44.18171,452.65,611.30
44.20107,456.66,609.42
44.22138,459.15,612.34
44.24113,462.55,612.45
44.26062,465.73,613.05
44.28119,467.92,614.53
44.30141,468.71,615.39
44.32096,469.08,617.59
44.34089,472.03,617.88
44.36043,471.52,614.54
44.38116,469.51,618.09
44.40025,473.46,618.66
44.42074,474.20,617.22
44.44168,473.10,617.47
44.46183,473.36,615.86
44.48129,475.42,615.95
44.50129,484.20,618.94
44.52036,508.37,622.46
44.54060,540.65,629.13
44.56051,576.55,632.02
44.58159,609.10,635.90
44.60144,634.36,635.63
44.62109,639.93,637.54
44.64123,641.63,636.45
44.66047,634.79,634.14
44.68042,624.47,632.62
44.70020,614.63,629.80
44.72011,602.42,629.44
44.74135,593.51,635.49
44.76014,581.58,638.84
44.78032,572.88,637.97
44.80186,563.08,641.11
44.82177,554.14,636.92
44.84027,545.60,636.99
44.86146,536.38,632.40
44.88032,529.06,633.97
44.90190,519.64,630.00
44.92062,513.73,628.89
44.94078,509.37,631.79
44.96065,504.96,630.28
44.98083,499.16,628.29
45.00098,497.49,626.16
45.02075,494.23,625.37
45.04170,489.42,624.54
45.06072,486.83,620.63
45.08091,484.82,622.19
45.10116,483.62,620.29
45.12185,482.98,618.60
45.14319,482.29,618.32
45.16157,482.48,618.75
45.18168,478.84,617.94
45.20218,477.84,620.36
45.22290,478.08,618.27
45.24275,476.83,617.90
45.26150,476.54,617.57
45.28275,475.62,618.63
45.30362,476.78,616.12
45.32222,473.50,616.51
45.34363,473.74,619.61
45.36388,476.45,617.05
45.38390,473.29,617.21
45.40387,475.36,618.15
45.42306,473.66,618.36
45.44345,476.29,617.16
45.46343,474.14,620.48
45.48222,474.63,617.85
45.50364,473.98,616.83
45.52324,473.90,617.98
45.54227,473.53,619.45
45.56357,473.21,620.65
45.58396,474.34,617.43
45.60244,473.72,618.41
45.62224,475.54,620.12
45.64341,472.23,619.49
45.66342,473.83,618.35
45.68329,473.11,617.74
45.70334,472.80,616.01
45.72356,473.84,616.97
45.74375,473.71,615.12
45.76281,476.88,615.95
45.78319,474.16,616.98
45.80276,478.11,615.39
45.82324,476.40,617.41
45.84234,474.29,617.97
45.86213,476.55,616.93
45.88303,473.42,615.61
45.90320,475.93,619.74
45.92300,473.94,619.70
45.94338,472.75,618.88
45.96333,473.94,617.81
45.98468,475.38,617.49
46.00319,475.48,615.42
46.02335,475.82,614.84
46.04366,476.02,618.18
46.06442,473.28,615.57
46.08401,474.55,617.00
46.10483,473.55,618.28
46.12390,474.96,615.92
46.14500,472.56,616.22
46.16432,472.71,619.52
46.18472,469.53,620.35
46.20308,471.18,620.37
46.22369,473.59,621.69
46.24416,471.92,619.49
46.26435,472.19,618.44
46.28429,474.56,620.62
46.30450,473.53,619.83
46.32405,476.11,618.73
46.34447,474.46,619.68
46.36382,475.80,617.66
46.38396,473.99,617.62
46.40449,475.03,618.97
46.42337,474.21,618.33
46.44448,473.60,618.70
46.46452,473.93,619.10
46.48458,475.57,618.67
46.50410,475.57,621.05
46.52312,474.41,620.24
46.54354,475.27,619.41
46.56472,474.81,618.23
46.58327,472.58,620.88
46.60408,474.63,617.98
46.62444,474.65,619.86
46.64423,473.82,617.54
46.66435,473.92,620.74
46.68490,473.15,617.35
46.70499,474.96,619.74
46.72444,474.48,616.94
46.74392,475.42,616.70
46.76309,474.79,616.11
46.78329,473.82,618.20
46.80456,475.88,617.21
46.82405,474.95,618.53
46.84349,475.27,618.42
46.86367,475.17,616.12
46.88414,474.13,616.15
46.90338,475.18,615.13
46.92321,474.63,616.84
46.94500,475.84,618.21
46.96430,476.17,616.10
46.98407,472.35,616.08
47.00314,475.49,615.74
47.02508,473.86,615.59
47.04408,474.52,618.33
47.06366,474.25,616.94
47.08343,474.87,617.39
47.10491,475.11,616.56
47.12365,474.27,613.95
47.14447,473.53,613.19
47.16589,474.95,616.27
47.18442,473.26,616.62
47.20439,475.15,615.54
47.22449,472.01,617.01
47.24597,472.75,614.90
47.26509,472.15,617.39
47.28421,472.35,615.99
47.30443,472.62,617.14
47.32535,472.16,617.76
47.34605,471.80,615.69
47.36441,471.55,616.49
47.38433,473.76,614.24
47.40582,471.58,613.22
47.42591,472.20,612.62
47.44527,471.90,611.46
47.46510,469.28,612.28
47.48513,472.25,613.14
47.50579,472.90,610.93
47.52548,472.76,611.33
47.54560,466.06,612.88
47.56474,445.42,611.10
47.58476,421.87,607.55
47.60548,394.44,607.17
47.62548,372.36,603.08
47.64426,352.43,603.34
47.66590,340.68,596.68
47.68459,332.33,590.73
47.70426,328.17,587.06
47.72519,326.19,584.44
47.74558,329.57,582.37
47.76400,332.64,581.91
47.78507,341.07,580.18
47.80530,349.06,579.58
47.82466,356.62,580.17
47.84458,367.94,581.14
47.86429,375.13,585.07
47.88498,385.26,587.35
47.90422,396.47,590.85
47.92472,406.09,592.87
47.94571,414.32,593.66
47.96504,419.22,597.19
47.98584,425.56,600.54
48.00528,432.31,603.80
48.02453,436.23,602.49
48.04493,440.55,604.66
48.06461,447.63,608.68
48.08490,447.68,609.92
48.10446,450.79,610.64
48.12706,456.03,612.60
48.14605,456.35,610.92
48.16670,457.56,611.44
48.18539,458.40,612.11
48.20685,460.72,612.47
48.22601,461.49,612.73
48.24699,462.48,615.46
48.26806,461.66,614.23
48.28767,460.75,613.02
48.30893,460.27,614.58
48.32849,457.64,617.22
48.34874,460.66,618.27
48.36823,467.62,618.57
48.38811,483.87,627.15
48.40786,508.60,633.60
48.42788,541.49,638.88
48.44722,573.01,643.30
48.46809,604.67,643.92
48.48720,629.48,645.14
48.50736,639.02,642.51
48.52789,639.67,639.14
48.54715,632.74,638.19
48.56857,623.26,634.13
48.58696,608.87,634.07
48.60874,598.72,631.33
48.62707,585.50,629.56
48.64820,569.28,635.27
48.66768,557.07,636.34
48.68896,547.82,635.21
48.70882,535.29,633.10
48.72806,527.39,631.98
48.74839,517.50,630.72
48.76855,510.65,631.23
