Program Time [s],data 0,data 1
26.35360,422.87,536.89
26.37299,421.15,536.62
26.39269,419.60,536.96
26.41412,421.61,532.06
26.43381,418.78,534.15
26.45407,418.68,534.71
26.47414,419.29,531.71
26.49319,419.68,531.46
26.51254,418.60,530.83
26.53295,416.51,528.76
26.55404,418.45,531.22
26.57379,418.11,529.27
26.59364,418.16,532.18
26.61337,418.55,535.80
26.63250,415.78,533.79
26.65298,417.34,536.38
26.67392,413.93,537.78
26.69224,413.94,540.85
26.71279,412.54,542.52
26.73276,412.43,541.81
26.75253,414.44,544.37
26.77309,413.97,543.72
26.79355,412.54,545.23
26.81377,412.39,544.45
26.83409,411.90,543.00
26.85362,413.98,542.16
26.87497,413.91,538.15
26.89501,413.47,539.10
26.91529,414.78,537.13
26.93570,414.06,534.31
26.95423,412.70,533.14
26.97586,412.18,533.12
26.99548,411.72,531.85
27.01460,411.08,531.88
27.03604,413.21,532.42
27.05630,412.76,532.40
27.07441,411.27,535.52
27.09454,413.54,532.37
27.11522,413.80,535.04
27.13534,411.58,533.54
27.15534,413.03,535.46
27.17496,411.88,539.70
27.19473,415.68,539.94
27.21508,413.46,543.57
27.23471,412.01,543.41
27.25445,410.40,541.24
27.27630,411.30,540.40
27.29463,412.20,542.64
27.31505,414.66,540.97
27.33542,413.69,538.94
27.35458,412.74,536.92
27.37563,413.89,537.38
27.39580,414.92,534.15
27.41518,415.14,534.66
27.43584,413.52,536.11
27.45576,413.62,539.24
27.47584,408.92,536.22
27.49415,400.55,530.09
27.51475,379.81,527.44
27.53434,362.98,522.10
27.55569,344.80,510.84
27.57432,326.43,500.58
27.59500,310.16,492.32
27.61437,301.69,483.03
27.63575,294.71,478.89
27.65598,290.26,476.57
27.67421,288.80,475.22
27.69492,293.68,475.42
27.71537,297.09,478.77
27.73520,301.23,482.55
27.75467,306.58,484.26
27.77419,316.31,486.31
27.79493,325.68,489.69
27.81509,335.49,495.04
27.83422,342.39,503.38
27.85589,350.41,504.65
27.87534,357.84,510.55
27.89575,364.10,514.57
27.91496,370.64,515.98
27.93598,373.90,520.72
27.95490,379.65,523.28
27.97580,382.44,528.09
27.99483,384.96,529.37
28.01425,388.15,529.65
28.03412,394.35,531.33
28.05605,395.99,533.58
28.07437,395.54,531.15
28.09431,397.95,533.02
28.11555,402.11,532.13
28.13474,403.59,530.67
28.15599,405.78,530.68
28.17458,409.23,533.92
28.19540,409.34,531.36
28.21599,410.63,529.87
28.23415,409.55,532.31
28.25613,411.21,531.68
28.27586,411.23,530.04
28.29575,412.71,530.47
28.31486,411.41,533.03
28.33425,413.04,533.62
28.35490,414.05,534.96
28.37611,409.02,534.59
28.39416,411.92,536.28
28.41529,404.87,533.07
28.43600,406.68,536.36
28.45593,406.83,534.57
28.47573,415.45,536.29
28.49450,407.03,538.32
28.51562,432.66,550.00
28.53578,459.03,563.49
28.55540,491.43,578.80
28.57446,522.01,585.58
28.59413,544.11,589.46
28.61533,563.81,588.20
28.63431,571.45,587.69
28.65592,570.13,584.04
28.67520,565.72,582.23
28.69531,555.18,577.46
28.71526,546.11,570.17
28.73477,533.01,563.06
28.75494,518.94,559.84
28.77650,506.25,557.03
28.79671,497.39,551.23
28.81541,484.09,549.19
28.83528,478.21,543.35
28.85609,470.02,541.49
28.87658,461.89,540.83
28.89649,452.20,536.63
28.91667,445.88,536.33
28.93651,440.32,534.92
28.95701,437.07,531.91
28.97778,432.65,532.91
28.99897,427.52,531.29
29.01830,423.00,530.82
29.03843,419.51,528.16
29.05800,419.23,529.14
29.07702,414.23,528.76
29.09841,415.60,527.95
29.11808,412.04,528.07
29.13769,408.89,529.97
29.15889,409.61,527.88
29.17915,406.57,531.68
29.19955,407.15,532.60
29.22014,403.04,531.87
29.24011,403.29,530.51
29.26033,402.06,533.11
29.28058,398.25,533.64
29.29921,400.70,532.57
29.31976,399.47,532.29
29.34072,397.86,534.31
29.35938,397.88,534.82
29.37971,401.02,531.85
29.39962,400.90,531.94
29.42118,396.13,532.12
29.44105,397.74,529.70
29.46080,395.49,529.52
29.48028,397.24,531.33
29.49989,395.13,529.31
29.51911,394.46,532.93
29.54117,395.68,529.80
29.56072,392.48,532.59
29.57937,392.89,528.88
29.59939,394.95,531.69
29.62081,396.71,530.99
29.63971,396.78,533.08
29.66094,397.51,532.24
29.68122,397.21,534.07
29.69994,394.11,534.27
29.72046,395.12,535.53
29.74020,395.89,534.71
29.76044,393.96,534.19
29.78042,393.67,536.32
29.79985,394.26,533.78
29.81978,393.15,533.48
29.84035,394.91,531.99
29.86062,394.57,533.89
29.87938,395.68,533.22
29.89911,395.19,530.51
29.91945,392.83,531.42
29.94062,396.01,531.85
29.95937,396.01,532.30
29.97984,392.99,536.27
30.00014,396.62,535.02
30.02106,394.75,531.57
30.04098,398.43,533.01
30.06027,396.94,530.35
30.08063,397.81,530.35
30.10075,396.38,529.60
30.12050,394.93,529.93
30.13971,394.10,530.11
30.15905,394.64,532.05
30.17925,393.02,529.63
30.19939,396.17,530.71
30.21997,396.24,533.37
30.24019,395.26,529.86
30.25944,394.81,533.48
30.28092,395.98,532.94
30.30023,396.81,536.35
30.32113,398.94,536.04
30.33979,395.47,536.88
30.36064,394.95,534.58
30.38054,393.87,533.76
30.40045,392.50,534.30
30.42020,391.39,537.04
30.43917,391.83,535.33
30.45956,390.32,535.72
30.48064,393.65,538.29
30.50044,394.28,540.69
30.51950,393.26,542.06
30.54025,395.27,541.21
30.56027,394.06,540.37
30.58079,396.33,543.40
30.59997,396.44,541.17
30.62016,396.45,542.76
30.63939,392.28,542.30
30.66087,395.40,540.21
30.68075,393.44,539.81
30.69979,393.67,539.66
30.71928,395.66,538.18
30.73906,392.92,534.43
30.75970,396.01,535.39
30.77983,397.09,533.55
30.80062,394.68,534.42
30.82068,396.17,535.93
30.83904,396.08,537.42
30.85994,392.29,535.20
30.88082,394.21,539.19
30.89938,392.97,535.33
30.92002,392.78,537.67
30.93940,393.25,540.16
30.96102,394.39,539.19
30.97971,394.07,537.94
31.00062,394.54,534.25
31.02079,392.22,534.63
31.03988,392.72,536.01
31.06021,394.91,534.32
31.08019,391.88,534.70
31.09976,392.79,536.55
31.11910,390.88,534.21
31.14033,390.46,537.63
31.16184,390.84,534.05
31.18090,390.96,533.46
31.20031,393.45,533.46
31.22099,390.95,531.78
31.24002,393.13,531.21
31.26106,394.76,534.15
31.28231,391.53,532.55
31.30144,391.74,532.10
31.32221,392.21,528.59
31.34233,391.23,528.13
31.36110,393.63,527.74
31.38254,393.19,526.31
31.40264,392.99,527.26
31.42202,391.28,527.19
31.44295,390.32,525.16
31.46219,389.91,525.62
31.48256,387.67,522.74
31.50149,386.91,525.12
31.52240,388.21,524.09
31.54379,388.76,524.10
31.56368,390.73,521.00
31.58359,388.91,523.19
31.60387,392.02,523.36
31.62312,384.03,527.12
31.64373,370.58,529.86
31.66278,354.39,529.53
31.68345,335.58,527.13
31.70218,317.85,520.47
31.72210,302.53,511.63
31.74262,290.08,505.72
31.76239,277.86,498.05
31.78272,271.64,489.94
31.80326,265.96,486.10
31.82274,266.63,481.86
31.84337,266.40,476.04
31.86366,269.64,473.75
31.88294,276.30,470.18
31.90252,281.39,472.47
31.92301,291.05,469.75
31.94298,299.96,470.34
31.96410,308.24,473.09
31.98294,315.20,476.35
32.00383,323.69,481.43
32.02377,333.62,485.18
32.04330,337.42,490.57
32.06282,345.75,495.41
32.08335,353.60,501.09
32.10285,360.48,501.60
32.12350,365.31,504.43
32.14244,370.16,507.61
32.16253,370.52,509.34
32.18389,374.81,511.58
32.20404,379.02,514.57
32.22378,379.01,516.77
32.24385,385.79,519.35
32.26330,386.55,520.22
32.28263,388.36,520.12
32.30380,385.85,520.43
32.32377,387.67,523.23
32.34255,391.30,524.28
32.36227,391.27,528.11
32.38416,389.76,527.24
32.40329,393.19,526.22
32.42334,393.39,527.24
32.44352,392.27,527.81
32.46365,394.27,528.87
32.48335,393.86,531.33
32.50283,407.56,537.84
32.52249,424.80,552.93
32.54319,451.72,568.98
32.56385,474.00,583.65
32.58215,501.62,592.98
32.60391,528.07,594.82
32.62404,545.89,595.95
32.64258,554.69,589.24
32.66243,551.57,581.75
32.68367,546.26,576.00
32.70280,535.66,568.49
32.72352,527.77,563.65
32.74399,513.41,559.65
32.76291,500.08,553.81
32.78217,490.89,545.33
32.80225,480.89,543.37
32.82282,469.90,542.12
32.84368,462.47,537.49
32.86391,451.94,536.77
32.88247,443.03,533.75
32.90297,435.08,534.01
32.92346,432.86,533.45
32.94229,427.23,531.28
32.96316,423.49,530.73
32.98236,416.36,531.76
33.00316,416.37,532.66
33.02257,411.53,530.69
33.04292,410.75,531.03
33.06353,408.02,536.29
33.08284,408.99,536.11
33.10360,408.50,536.72
33.12285,407.79,534.92
33.14229,403.95,532.39
33.16240,404.26,533.92
33.18232,402.64,533.50
33.20381,401.08,531.94
33.22299,400.51,532.83
33.24237,396.24,533.40
33.26267,399.34,531.05
33.28370,397.56,528.64
33.30266,398.21,530.76
33.32249,395.51,528.76
33.34223,398.32,531.10
33.36356,397.66,532.52
33.38321,396.10,533.06
33.40202,397.43,533.00
33.42368,396.65,530.29
33.44357,395.34,532.53
33.46210,396.31,533.77
33.48385,396.20,529.63
33.50337,397.14,530.70
33.52298,395.53,531.25
33.54397,395.21,530.09
33.56485,395.76,526.11
33.58379,396.86,528.03
33.60363,396.01,526.16
33.62329,397.10,527.48
33.64356,398.08,527.35
33.66489,398.81,529.17
33.68361,399.92,526.67
33.70404,401.44,527.39
33.72285,401.51,528.10
33.74494,402.50,529.06
33.76423,403.14,528.03
33.78424,402.41,526.33
33.80479,401.67,528.47
33.82450,403.86,525.98
33.84293,403.15,524.53
33.86337,399.49,527.75
33.88411,400.58,526.47
33.90487,401.37,527.70
33.92349,400.82,524.39
33.94334,401.42,526.23
33.96484,400.05,526.01
33.98377,400.02,527.76
34.00494,401.51,527.04
34.02374,402.83,530.57
34.04508,400.59,529.01
34.06593,403.66,531.07
34.08491,403.37,530.12
34.10496,402.36,529.78
34.12587,404.05,530.56
34.14525,404.61,527.68
34.16465,402.45,529.32
34.18558,400.33,528.35
34.20543,403.04,530.73
34.22432,404.66,527.47
34.24505,403.23,530.83
34.26423,402.50,529.29
34.28584,404.64,532.69
34.30504,405.28,534.90
34.32606,403.94,533.71
34.34554,404.64,534.13
34.36555,403.48,534.30
34.38437,399.87,534.18
34.40408,400.42,534.79
34.42553,402.11,534.38
34.44430,401.68,531.74
34.46411,402.73,530.90
34.48491,400.05,531.05
34.50449,401.54,533.47
34.52436,402.99,531.37
34.54577,403.41,533.52
34.56515,404.00,531.69
34.58505,403.65,534.05
34.60513,404.35,532.28
34.62503,403.25,534.05
34.64573,401.58,531.62
34.66491,402.71,534.94
34.68556,404.48,534.75
34.70558,403.37,532.66
34.72414,405.08,532.68
34.74550,403.35,533.21
34.76530,404.14,534.51
34.78429,403.63,534.72
34.80484,405.11,535.77
34.82544,404.26,535.51
34.84580,407.01,532.27
34.86420,403.14,534.94
34.88484,403.93,534.58
34.90597,405.52,534.20
34.92426,405.53,531.74
34.94543,404.62,531.07
34.96550,406.24,531.59
34.98563,407.11,533.46
35.00572,404.23,532.01
35.02495,405.73,532.31
35.04572,405.09,532.52
35.06483,404.40,532.30
35.08452,405.29,532.73
35.10598,406.07,531.67
35.12496,408.51,530.92
35.14598,403.00,527.50
35.16535,403.27,527.87
35.18475,405.44,528.32
35.20505,404.79,529.39
35.22554,408.04,531.29
35.24510,408.36,533.34
35.26424,408.07,531.01
35.28485,409.38,532.43
35.30501,409.55,531.59
35.32502,408.34,532.61
35.34574,407.93,533.15
35.36531,406.89,529.00
35.38460,407.46,533.53
35.40491,408.60,533.17
35.42481,405.68,532.38
35.44567,404.45,533.48
35.46562,403.64,532.32
35.48483,403.28,533.41
35.50537,405.49,532.15
35.52484,407.15,533.49
35.54461,405.73,533.62
35.56409,409.07,532.41
35.58549,406.69,533.43
35.60406,409.30,532.76
35.62440,407.14,532.22
35.64556,407.37,532.11
35.66593,406.66,533.40
35.68588,405.49,531.05
35.70559,407.33,529.65
35.72495,405.82,530.29
35.74549,401.07,529.92
35.76460,384.45,528.85
35.78492,359.10,525.29
35.80422,335.69,523.76
35.82505,312.84,517.24
35.84545,294.77,509.29
35.86552,282.22,498.92
35.88464,275.57,490.98
35.90499,271.38,484.85
35.92445,275.96,481.71
35.94591,276.06,481.02
35.96480,282.96,480.01
35.98467,290.18,481.87
36.00421,295.85,483.49
36.02512,308.02,486.34
36.04433,313.29,486.95
36.06409,322.51,492.78
36.08400,333.76,496.61
36.10536,338.98,497.40
36.12514,348.42,502.85
36.14426,357.23,505.67
36.16478,361.60,509.63
36.18412,365.83,510.66
36.20547,373.56,513.94
36.22391,378.05,518.15
36.24393,383.02,522.51
36.26399,388.50,523.75
36.28444,391.15,526.53
36.30532,392.85,525.95
36.32507,393.84,526.97
36.34512,395.82,529.14
36.36468,399.15,527.28
36.38481,401.53,529.71
36.40437,401.79,531.77
36.42516,401.39,530.58
36.44467,405.13,531.25
36.46414,403.78,534.27
36.48513,406.86,532.29
36.50424,414.89,539.71
36.52484,431.44,556.14
36.54560,453.75,567.57
36.56505,481.27,574.95
36.58588,506.25,581.15
36.60535,533.14,590.52
36.62478,561.56,593.91
36.64456,577.95,592.89
36.66580,577.56,590.16
36.68551,574.64,583.29
36.70512,563.39,574.71
36.72442,555.17,568.66
36.74552,540.74,562.36
36.76425,528.21,555.30
36.78416,513.89,549.36
36.80506,500.72,544.59
36.82436,491.12,542.73
36.84421,480.36,536.62
36.86455,469.35,535.73
36.88510,462.18,533.26
36.90508,455.18,532.51
36.92511,449.28,532.83
36.94509,444.94,534.06
36.96544,441.24,530.91
36.98565,436.92,529.81
37.00572,432.59,528.97
37.02418,427.87,530.82
37.04502,427.48,530.49
37.06574,421.84,532.80
37.08513,421.30,532.87
37.10533,419.07,530.62
37.12482,420.82,533.05
37.14528,419.83,532.24
37.16419,416.57,533.50
37.18467,417.44,531.61
37.20439,416.93,534.20
37.22497,415.06,530.05
37.24469,416.19,532.23
37.26440,415.95,529.09
37.28568,410.52,532.03
37.30552,412.80,529.59
37.32487,409.46,530.52
37.34440,411.29,530.61
37.36448,409.31,527.45
37.38538,408.55,531.13
37.40476,411.40,530.66
37.42587,408.60,536.43
37.44525,409.60,537.29
37.46570,412.82,536.39
37.48461,410.91,536.92
37.50527,412.31,536.99
37.52546,411.94,537.64
37.54590,412.01,537.51
37.56402,412.07,535.57
37.58418,410.75,539.15
37.60464,411.24,538.09
37.62423,410.86,536.02
37.64587,410.71,536.29
37.66536,412.86,539.81
37.68592,410.90,538.60
37.70402,412.50,536.43
37.72579,413.20,538.51
37.74525,412.86,534.83
37.76460,412.42,538.32
37.78398,409.45,534.19
37.80422,412.61,533.46
37.82487,413.95,533.47
37.84550,411.39,532.94
37.86539,410.88,535.96
37.88587,414.80,534.04
37.90512,411.86,534.07
37.92470,413.70,531.42
37.94556,414.04,533.30
37.96494,415.60,532.15
37.98411,413.59,530.96
38.00417,413.47,532.11
38.02485,416.65,534.01
38.04551,416.04,535.53
38.06430,413.42,534.18
38.08468,415.93,536.55
38.10456,415.13,536.74
38.12545,415.67,536.17
38.14558,417.04,536.36
38.16579,417.01,537.70
38.18521,417.67,538.72
38.20558,416.18,538.30
38.22542,415.54,538.67
38.24526,415.81,534.37
38.26420,413.54,536.14
38.28563,413.68,533.24
38.30471,413.06,531.68
38.32567,414.54,533.06
38.34599,412.40,533.50
38.36426,412.79,532.75
38.38447,412.25,529.92
38.40560,413.56,531.32
38.42602,411.47,531.64
38.44488,411.38,533.75
38.46424,413.19,532.54
38.48398,412.75,533.88
38.50408,413.62,533.27
38.52538,410.73,533.29
38.54470,410.80,533.67
38.56444,412.26,534.24
38.58452,412.38,532.30
38.60436,410.27,533.61
38.62413,411.48,534.78
38.64553,414.30,532.38
38.66580,414.26,531.67
38.68431,412.19,532.01
38.70523,414.02,533.05
38.72539,411.46,530.97
38.74541,412.58,532.89
38.76430,414.59,530.49
38.78443,414.56,532.13
38.80575,415.52,531.42
38.82517,413.69,531.49
38.84567,413.92,533.08
38.86523,417.20,532.83
38.88542,417.45,532.85
38.90435,416.31,534.26
38.92453,417.46,535.23
38.94534,417.09,533.94
38.96413,414.41,530.82
38.98431,417.38,534.15
39.00482,419.53,535.01
39.02479,417.76,534.47
39.04497,416.63,532.40
39.06513,418.91,533.07
39.08417,417.14,533.26
39.10554,418.32,532.86
39.12572,416.41,535.09
39.14465,416.06,536.85
39.16575,418.02,534.07
39.18528,417.04,535.33
39.20556,414.18,534.30
39.22571,417.13,534.35
39.24482,415.23,534.26
39.26530,416.10,535.34
39.28600,414.90,535.53
39.30422,415.89,535.52
39.32426,413.60,535.44
39.34467,412.52,535.11
39.36436,416.33,533.20
39.38466,414.42,535.01
39.40579,414.50,533.13
39.42427,414.37,534.26
39.44446,415.66,531.18
39.46417,415.53,531.04
39.48496,414.22,532.59
39.50404,413.17,532.48
39.52436,416.62,531.85
39.54544,412.77,534.61
39.56427,414.48,534.04
39.58487,414.97,531.97
39.60545,414.24,531.31
39.62432,412.91,534.15
39.64488,416.86,534.25
39.66391,413.68,531.20
39.68580,414.26,531.17
39.70437,415.48,531.66
39.72455,413.85,530.77
39.74410,415.24,531.66
39.76548,413.90,531.27
39.78501,414.34,530.72
39.80552,415.11,532.85
39.82413,410.73,531.11
39.84437,403.31,530.88
39.86426,386.72,524.91
39.88497,366.88,519.40
39.90436,346.84,514.53
39.92421,327.55,512.46
39.94478,316.17,505.29
39.96559,299.56,499.13
39.98478,293.63,495.01
40.00501,288.82,489.91
40.02562,288.45,487.78
40.04582,289.15,483.99
40.06401,297.09,486.67
40.08484,300.23,485.53
40.10508,309.60,490.03
40.12501,316.08,493.21
40.14395,324.34,495.88
40.16474,332.10,502.34
40.18444,342.30,503.18
40.20402,348.95,506.04
40.22404,357.19,510.15
40.24434,361.84,514.49
40.26571,368.92,514.40
40.28392,373.83,517.37
40.30547,378.08,521.50
40.32436,385.08,522.97
40.34463,388.95,523.80
40.36454,391.86,525.28
40.38558,396.29,528.06
40.40546,400.06,526.39
40.42375,402.19,527.22
40.44440,404.32,531.88
40.46564,406.29,528.99
40.48526,408.67,532.54
40.50546,408.85,532.29
40.52500,410.62,533.35
40.54484,409.39,531.47
40.56557,410.10,534.97
40.58400,414.41,534.72
40.60425,413.39,534.46
40.62395,410.77,533.22
40.64519,410.14,532.68
40.66479,410.90,532.94
40.68489,412.64,532.57
40.70435,415.67,533.20
40.72457,417.57,535.22
40.74421,429.31,543.89
40.76489,450.15,550.59
40.78455,471.01,559.79
40.80573,496.72,570.29
40.82420,520.20,577.32
40.84551,539.62,583.64
40.86364,555.48,584.30
40.88398,561.16,582.14
40.90399,559.60,579.96
40.92425,551.96,576.95
40.94424,543.77,571.74
40.96549,533.40,570.10
40.98408,519.26,565.80
41.00569,511.23,561.79
41.02538,495.82,560.51
41.04524,486.32,556.49
41.06573,480.86,552.18
41.08568,471.28,550.58
41.10575,462.68,549.48
41.12510,454.90,549.32
41.14531,449.88,546.28
41.16451,446.74,545.83
41.18463,441.79,541.35
41.20512,439.89,541.49
41.22396,434.50,542.12
41.24489,430.61,539.48
41.26541,430.10,538.84
41.28406,424.25,540.48
41.30459,421.83,539.84
41.32539,423.71,535.56
41.34482,420.37,536.62
41.36585,420.17,537.08
41.38583,418.28,535.71
41.40432,417.24,534.96
41.42438,418.03,536.27
41.44533,417.43,534.74
41.46447,417.07,533.73
41.48431,416.99,533.35
41.50549,416.24,533.17
41.52494,415.02,533.90
41.54513,416.36,536.19
41.56600,414.68,535.07
41.58577,414.35,534.17
41.60442,416.53,533.58
41.62400,415.15,532.07
41.64400,413.84,534.21
41.66415,414.01,533.88
41.68567,413.47,532.76
41.70452,417.20,532.91
41.72442,418.31,536.23
41.74573,415.14,535.72
41.76509,414.64,535.35
41.78496,416.34,535.75
41.80466,413.61,536.11
41.82522,415.57,534.07
41.84570,414.59,533.74
41.86434,416.07,533.68
41.88449,414.91,534.99
41.90515,414.56,532.98
41.92499,414.65,534.05
41.94554,415.62,533.96
41.96513,413.32,534.46
41.98466,415.89,535.44
42.00401,416.73,538.13
42.02465,417.41,535.14
42.04479,415.76,534.86
42.06582,416.76,536.00
42.08444,416.74,537.08
42.10564,411.97,538.12
42.12420,412.76,538.49
42.14568,413.38,537.97
42.16411,412.12,537.91
42.18559,411.74,538.97
42.20536,412.32,536.56
42.22405,414.18,537.09
42.24398,414.37,535.08
42.26525,414.53,535.21
42.28451,414.14,536.23
42.30461,413.79,535.17
42.32548,413.52,533.31
42.34440,413.27,536.78
42.36447,412.69,534.20
42.38419,413.24,535.57
42.40491,411.00,533.14
42.42397,412.41,535.08
42.44484,412.25,532.79
42.46477,411.39,535.38
42.48538,410.15,535.41
42.50461,411.92,535.29
42.52471,410.33,536.37
42.54493,410.08,536.47
42.56371,410.68,535.07
42.58526,412.91,538.49
42.60454,410.31,537.36
42.62528,413.98,537.38
42.64429,413.24,536.76
42.66561,410.97,536.05
42.68464,410.22,533.64
42.70464,413.16,536.23
42.72506,413.59,537.09
42.74526,411.71,534.70
42.76515,413.66,536.93
42.78538,412.38,535.53
42.80506,411.58,534.82
42.82456,414.44,537.24
42.84391,412.57,537.06
42.86512,414.81,535.49
42.88524,413.13,534.91
42.90535,412.08,536.30
42.92425,414.27,534.61
42.94389,415.12,535.13
42.96421,413.30,537.09
42.98517,412.81,534.46
43.00440,409.85,537.41
43.02411,412.73,535.22
43.04400,413.42,535.82
43.06443,413.48,535.51
43.08403,411.07,533.63
43.10407,413.47,533.96
43.12590,413.93,536.89
43.14481,413.26,537.88
43.16589,413.88,535.39
43.18552,413.98,536.08
43.20650,412.50,535.79
43.22720,407.86,535.37
43.24662,408.29,533.91
43.26684,407.95,534.97
43.28630,409.59,533.83
43.30590,407.79,536.38
43.32615,410.22,533.91
43.34650,406.82,532.88
43.36709,406.88,531.39
43.38790,410.21,533.52
43.40640,406.68,531.96
43.42726,406.44,533.37
43.44686,408.42,533.30
43.46687,408.01,535.10
43.48587,407.18,534.69
43.50622,407.02,537.84
43.52599,406.32,535.62
43.54631,407.81,537.95
43.56709,409.00,537.87
43.58652,407.05,537.11
43.60680,408.96,535.36
43.62638,407.32,536.35
43.64708,407.76,535.85
43.66765,408.64,536.68
43.68744,408.39,536.85
43.70758,404.93,536.58
43.72628,406.34,537.56
43.74750,408.27,536.88
43.76661,406.79,536.03
43.78700,406.89,535.30
43.80620,406.57,534.13
43.82628,403.57,534.98
43.84699,405.81,533.35
43.86596,405.45,534.38
43.88635,404.81,535.46
43.90764,404.98,534.28
43.92726,404.65,535.96
43.94779,407.13,534.78
43.96652,405.95,533.57
43.98607,407.45,534.92
44.00698,405.11,534.10
44.02622,407.28,533.79
44.04685,407.93,536.58
44.06704,407.50,533.89
44.08709,407.12,535.57
44.10702,405.65,532.67
44.12753,406.16,535.63
44.14617,405.97,533.88
44.16635,405.14,532.87
44.18663,403.94,534.92
44.20760,406.09,535.45
44.22577,404.83,534.83
44.24666,405.95,533.05
44.26765,403.67,534.38
44.28776,404.01,534.15
44.30610,405.04,531.10
44.32763,404.38,530.58
44.34827,403.63,533.95
44.36749,402.04,533.85
44.38807,398.69,532.24
44.40709,400.82,530.57
44.42747,398.61,529.83
44.44853,402.04,530.56
44.46854,402.36,531.89
44.48821,403.37,530.96
44.50778,397.38,530.93
44.52828,381.03,525.96
44.54787,357.35,521.10
44.56874,337.05,514.68
44.58767,314.96,512.94
44.60832,297.51,508.21
44.62799,288.42,502.16
44.64745,279.21,499.88
44.66807,277.81,493.70
44.68735,275.69,488.80
44.70717,280.93,484.87
44.72751,282.61,486.45
44.74745,288.86,490.53
44.76837,299.23,489.68
44.78846,306.85,495.66
44.80771,317.18,498.70
44.82714,324.10,502.36
44.84871,332.98,505.89
44.86718,338.78,508.90
44.88855,348.71,512.61
44.90785,355.48,516.36
44.92698,362.53,519.73
44.94673,368.53,523.66
44.96767,371.22,524.41
44.98752,377.43,527.00
45.00869,379.78,525.90
45.02813,381.87,528.81
45.04754,384.81,530.25
45.06819,387.15,532.14
45.08790,390.31,533.10
45.10837,391.91,531.50
45.12687,394.06,533.11
45.14864,395.27,535.77
45.16770,394.58,534.64
45.18744,392.58,533.48
45.20721,393.99,534.62
45.22825,396.45,532.60
45.24770,396.93,536.05
45.26882,396.59,536.09
45.28823,397.56,535.26
45.30787,398.64,534.91
45.32729,396.23,534.11
45.34758,398.38,535.85
45.36683,397.86,535.45
45.38800,397.96,537.03
45.40848,397.13,535.93
45.42720,408.04,541.54
45.44704,423.78,550.59
45.46734,445.28,560.76
45.48701,469.69,567.44
45.50819,493.52,577.58
45.52822,520.61,582.52
45.54966,531.60,582.14
45.56897,534.49,579.57
45.58771,532.52,577.24
45.60802,525.36,572.81
45.62901,518.68,567.78
45.64871,507.19,567.68
45.66863,499.15,562.36
45.68962,489.57,560.18
45.70976,475.90,557.56
45.72876,462.66,554.07
45.74942,450.27,553.08
45.76807,443.10,550.32
45.78922,437.22,547.52
45.80951,432.99,544.54
45.82799,424.62,545.03
45.84841,421.93,543.27
45.86843,414.54,540.83
45.88787,412.81,541.95
45.90797,409.38,538.78
45.92858,405.54,538.34
45.94863,403.92,542.07
45.96916,401.86,539.00
45.98885,401.66,537.87
46.00829,400.85,540.21
46.02859,397.51,538.53
46.04887,399.15,537.66
46.06952,398.45,538.86
46.08877,398.13,536.41
46.10801,399.79,537.18
46.12809,398.60,538.05
46.14919,396.65,537.84
46.16890,396.97,539.32
46.18945,397.79,536.20
46.20901,393.77,536.46
46.22862,393.89,537.92
46.24931,396.75,538.39
46.26929,395.53,539.26
46.28833,396.82,539.20
46.30848,394.52,537.65
46.32925,393.80,538.75
46.34915,395.28,539.78
46.36933,395.04,540.69
46.38823,395.28,542.84
46.40968,392.86,541.41
46.42852,395.95,541.31
46.44932,392.00,542.33
46.46980,395.49,539.84
46.48808,394.01,540.28
46.50873,392.91,539.54
46.52965,394.06,540.79
46.54878,389.74,540.21
46.56815,390.41,537.83
46.58879,391.83,537.18
46.60938,392.15,537.89
46.62814,394.58,540.16
46.64949,399.03,538.39
46.66966,402.16,540.92
46.68953,402.24,539.25
46.70789,401.48,538.03
46.72890,400.53,538.53
46.74944,400.45,537.54
46.76929,401.76,538.11
46.78897,399.42,536.21
46.80957,398.39,535.79
46.82876,400.12,535.65
46.84823,397.43,537.69
46.86783,396.38,536.85
46.88974,396.33,534.27
46.90884,397.37,535.19
46.93033,395.47,536.51
46.95030,394.32,533.16
46.96975,393.53,533.21
46.99141,392.63,535.23
47.01132,393.76,532.84
47.03135,392.28,533.08
47.05053,390.70,535.43
47.07115,391.66,535.99
47.09107,393.70,533.36
47.10960,390.30,532.04
47.13138,392.71,532.05
47.15031,391.27,533.54
47.17014,390.94,533.83
47.19050,394.39,532.55
47.21028,391.31,530.76
47.23173,393.18,534.20
47.25068,392.80,533.44
47.27084,395.87,531.52
47.29110,396.17,533.59
47.31043,395.20,535.26
47.33068,394.42,535.29
47.35159,396.27,536.28
47.37022,394.75,534.81
47.38993,396.93,534.06
47.41006,395.91,532.35
47.43140,395.73,533.78
47.45035,395.06,532.92
47.47126,391.79,534.46
47.49078,391.84,533.27
47.50968,392.95,533.10
47.53010,391.44,532.81
47.55110,390.47,531.69
47.57090,392.90,531.52
47.59185,392.09,530.22
47.61179,393.49,530.61
47.63263,393.58,533.50
47.65318,393.03,533.35
47.67277,393.60,533.71
47.69369,397.35,532.66
47.71536,396.46,535.01
47.73482,401.45,535.13
47.75673,404.22,532.50
47.77551,405.89,532.68
47.79746,407.60,534.72
47.81613,407.16,533.36
47.83714,409.10,535.86
47.85719,409.42,533.69
47.87547,411.80,531.52
47.89642,409.56,532.96
47.91580,409.43,535.65
47.93728,409.93,533.19
47.95690,409.12,536.26
47.97732,409.87,534.06
47.99598,412.92,536.87
48.01641,412.02,537.69
48.03606,412.87,537.98
48.05556,410.51,535.14
48.07666,412.83,536.74
48.09721,414.08,537.85
48.11637,412.64,538.21
48.13581,414.50,538.20
48.15729,413.65,534.51
48.17658,414.50,537.37
48.19739,412.78,537.49
48.21650,415.29,536.79
48.23626,413.52,533.80
48.25638,412.78,538.23
48.27681,414.33,536.95
48.29717,412.30,537.37
48.31636,414.61,535.65
48.33700,413.15,534.28
48.35640,411.84,536.12
48.37741,413.00,533.48
48.39628,414.83,531.82
48.41638,415.44,532.78
48.43710,412.89,534.89
48.45657,413.94,535.56
48.47723,413.28,532.94
48.49681,414.70,534.14
48.51606,412.77,529.60
48.53703,414.74,528.93
48.55694,414.47,530.93
48.57562,414.08,529.27
48.59855,414.93,530.22
48.61845,414.56,530.90
48.63670,415.58,532.65
48.65796,414.82,530.51
48.67836,413.11,531.73
48.69728,411.36,528.18
48.71805,411.30,528.90
48.73779,410.78,530.07
48.75700,400.16,532.61
48.77840,382.48,534.12
48.79929,365.20,537.88
48.81868,345.58,543.24
48.84090,326.82,540.88
48.86191,314.80,533.69
48.88297,303.75,520.34
48.90280,298.65,513.87
48.92176,297.69,505.80
48.94273,296.33,502.15
48.96345,299.20,498.51
48.98339,304.38,498.73
49.00313,310.91,497.46
49.02450,313.20,497.25
49.04342,320.03,498.74
49.06354,326.59,502.59
49.08498,331.54,504.63
49.10507,336.63,510.43
49.12536,343.41,510.59
49.14545,347.11,512.58
49.16643,354.27,516.52
49.18611,357.81,517.96
49.20650,364.70,520.30
49.22681,368.08,520.34
49.24728,370.67,520.71
49.26770,372.25,524.36
49.28881,377.01,524.32
49.30845,378.16,524.95
49.33002,382.20,525.77
49.34974,383.66,526.69
49.37032,382.74,524.86
49.38889,384.58,528.21
49.40956,389.67,529.64
49.42913,389.54,527.63
49.45012,388.96,527.52
49.46879,391.94,529.27
49.48956,391.04,534.10
49.51037,399.73,536.48
49.52898,416.67,546.46
49.55138,443.16,554.39
49.57135,471.47,558.01
49.59091,497.34,565.94
49.61087,518.92,565.84
49.62981,532.34,566.30
49.65089,534.61,560.04
49.67102,531.38,559.50
49.69228,525.20,556.14
49.71214,517.92,550.03
49.73095,509.80,549.51
49.75169,500.03,545.73
49.77154,488.82,545.25
49.79056,477.18,544.21
49.81179,464.92,541.42
49.83186,458.35,541.74
49.85095,456.05,547.10
49.87338,456.52,553.25
49.89162,451.77,556.71
49.91255,449.35,555.80
49.93254,446.75,555.96
49.95250,442.93,555.08
49.97380,437.26,554.46
49.99264,435.84,553.41
50.01275,434.34,551.11
50.03416,429.05,548.24
50.05301,425.17,548.56
50.07262,426.08,547.11
50.09489,423.20,545.51
50.11395,419.68,543.22
50.13514,420.37,541.81
50.15416,418.11,539.74
50.17508,419.46,541.23
50.19418,415.42,540.00
50.21411,415.30,540.14
50.23377,413.34,538.43
50.25534,413.55,538.96
50.27391,411.48,537.10
50.29384,412.27,536.90
50.31518,411.07,537.61
50.33391,412.21,536.82
50.35441,413.81,536.75
50.37536,412.00,534.56
50.39548,412.28,534.13
50.41410,410.69,535.73
50.43361,411.30,536.14
50.45481,410.17,535.46
50.47557,409.63,537.00
50.49460,408.10,535.84
50.51339,409.85,537.17
50.53389,410.39,534.28
50.55383,412.48,535.57
50.57470,413.61,534.11
50.59404,413.72,532.91
50.61443,414.21,536.78
50.63531,413.46,533.35
50.65481,413.37,535.24
50.67512,414.37,537.37
50.69486,413.34,535.80
50.71431,413.76,535.42
50.73515,411.45,535.28
50.75452,409.80,537.45
50.77499,413.46,536.81
50.79496,411.69,538.17
50.81416,413.51,535.26
50.83478,414.40,536.25
50.85467,412.11,537.77
50.87345,412.24,534.86
50.89360,414.19,535.17
50.91397,412.54,536.02
50.93485,413.96,535.34
50.95549,413.28,533.65
50.97497,410.36,534.00
50.99387,412.54,533.40
51.01384,411.43,535.28
51.03507,412.39,533.88
51.05482,412.94,534.76
51.07449,411.86,536.80
51.09380,414.77,535.50
51.11420,415.75,536.07
51.13552,412.64,532.88
51.15410,412.84,534.27
51.17427,412.72,532.79
51.19461,411.58,535.04
51.21388,411.41,532.12
51.23445,411.03,533.05
51.25366,411.71,532.86
51.27502,414.41,534.99
51.29477,415.61,535.36
51.31443,416.21,534.93
51.33460,414.92,535.65
51.35438,414.67,534.18
51.37504,411.73,533.58
51.39435,414.25,536.19
51.41549,414.14,536.63
51.43499,413.36,533.70
51.45487,414.16,535.75
51.47426,413.68,533.31
51.49467,412.38,532.85
51.51420,413.51,533.02
51.53503,412.29,534.21
51.55491,412.96,533.83
51.57461,417.07,536.64
51.59480,414.22,532.34
51.61375,416.79,532.02
51.63539,416.73,532.46
51.65395,414.07,532.70
51.67409,418.47,534.71
51.69532,414.95,532.97
51.71410,417.51,533.14
51.73500,415.58,533.67
51.75434,416.41,534.11
51.77522,417.17,533.72
51.79493,415.42,537.15
51.81518,413.77,535.68
51.83517,414.69,536.33
51.85517,416.52,533.59
51.87416,416.47,535.42
51.89439,416.63,532.79
51.91440,416.99,532.70
51.93366,416.63,534.11
51.95437,416.50,535.53
51.97477,416.43,534.21
51.99463,418.55,537.36
52.01382,418.09,534.88
52.03418,420.35,536.13
52.05383,417.46,536.78
52.07479,414.74,535.08
52.09546,414.80,536.10
52.11411,412.20,536.57
52.13375,412.87,533.43
52.15513,415.49,537.17
52.17500,416.66,535.39
52.19412,417.61,535.82
52.21461,414.99,537.61
52.23461,414.14,534.79
52.25350,415.81,538.56
52.27492,416.37,535.11
52.29508,415.24,537.29
52.31362,419.50,536.11
52.33362,417.19,536.29
52.35493,418.48,537.08
52.37530,416.68,536.81
52.39475,417.39,532.72
52.41586,417.67,533.15
52.43517,419.62,533.70
52.45446,416.48,530.65
52.47611,417.75,530.74
52.49495,417.24,531.66
52.51561,416.03,532.32
52.53606,414.77,532.39
52.55470,414.27,534.37
52.57537,415.90,532.09
52.59635,414.98,532.25
52.61471,414.01,536.20
52.63603,406.51,533.12
52.65503,389.47,530.70
52.67495,368.85,526.24
52.69482,345.43,526.37
52.71615,327.18,521.23
52.73489,313.06,516.42
52.75520,300.32,513.31
52.77483,293.05,506.02
52.79536,289.34,501.01
52.81463,289.15,496.53
52.83459,292.74,492.68
52.85568,296.52,492.90
52.87468,303.96,492.44
52.89540,308.91,492.84
52.91722,317.63,497.11
52.93712,323.21,499.53
52.95699,331.64,501.53
52.97633,340.31,505.46
52.99758,350.87,507.94
53.01945,356.86,512.15
53.04004,364.79,513.52
53.05942,367.38,516.50
53.08213,370.71,521.54
53.10130,374.14,523.41
53.12164,377.45,525.74
53.14120,382.77,526.55
53.16226,381.46,529.67
53.18132,386.21,529.52
53.20156,387.05,529.22
53.22202,386.34,530.95
53.24435,389.51,532.73
53.26295,387.49,532.44
53.28328,390.11,533.77
53.30339,388.63,532.95
53.32345,388.73,533.42
53.34350,392.87,533.35
53.36310,393.41,535.18
53.38396,392.33,533.89
53.40304,391.57,536.38
53.42421,393.88,533.89
53.44272,393.79,532.83
53.46431,391.94,535.12
53.48344,390.21,532.74
53.50395,391.35,535.46
53.52375,390.96,533.45
53.54492,391.58,533.08
53.56384,396.22,535.25
53.58375,407.88,539.94
53.60539,425.02,539.61
53.62456,447.08,545.60
53.64595,471.46,550.66
53.66674,496.54,560.72
53.68839,521.64,565.08
53.70888,536.70,571.90
53.72992,544.70,572.96
53.74974,543.19,572.45
53.77039,538.51,570.70
53.79059,533.52,567.83
53.80993,521.03,563.91
53.82947,513.85,561.58
53.84937,501.29,561.61
53.87084,493.97,556.06
53.89226,484.34,555.92
53.91225,475.99,554.51
53.93286,469.75,551.86
53.95278,461.62,551.79
53.97320,458.23,548.51
53.99423,451.61,550.19
54.01434,447.13,548.98
54.03586,444.54,549.02
54.05527,439.16,548.36
54.07629,437.50,547.37
54.09642,432.52,546.61
54.11552,430.20,544.77
54.13637,426.26,540.48
54.15435,426.64,540.11
54.17579,423.45,539.23
54.19504,422.62,540.21
54.21536,420.71,539.45
54.23564,418.37,538.39
54.25569,418.44,539.15
54.27715,413.61,539.43
54.29610,413.02,536.18
54.31590,413.03,535.72
54.33611,414.09,537.75
54.35594,415.01,536.98
54.37573,413.09,537.86
54.39817,412.83,534.74
54.41646,410.95,536.24
54.43645,408.53,536.48
54.45655,409.52,534.56
54.47762,407.92,534.19
54.49774,408.77,536.09
54.51643,408.74,537.09
54.53671,405.73,533.11
54.55751,407.17,534.34
54.57755,405.64,534.30
54.59669,407.30,533.95
54.61767,405.25,534.70
54.63696,404.92,536.16
54.65788,407.90,535.42
54.67722,405.86,536.24
54.69801,406.15,536.33
54.71643,403.64,537.52
54.73652,406.63,535.43
54.75732,404.50,534.63
54.77831,404.07,535.82
54.79747,405.40,534.83
54.81721,407.95,536.01
54.83758,406.07,537.38
54.85666,406.34,537.78
54.87704,406.73,535.40
54.89743,404.29,537.28
54.91844,403.92,538.69
54.93825,406.01,536.68
54.95817,403.41,537.33
54.97821,406.59,535.30
54.99713,406.43,538.13
55.01774,404.19,536.32
55.03799,403.49,538.06
55.05751,404.89,537.44
55.07836,405.38,536.36
55.09774,403.42,537.62
55.11738,402.40,537.79
55.13760,400.30,536.45
55.15703,402.82,538.03
55.17811,402.84,538.33
55.19955,402.55,537.90
55.21893,401.19,537.06
55.23948,398.68,536.11
55.25997,398.07,537.57
55.27993,399.28,537.63
55.29906,398.24,537.87
55.31973,397.13,535.81
55.33859,395.76,537.42
55.35935,397.09,535.16
55.37928,396.75,537.90
55.39926,395.74,537.38
55.41931,398.15,537.73
55.43845,397.98,537.93
55.45872,398.16,538.79
55.48018,395.46,537.69
55.49853,394.76,537.85
55.51902,395.96,537.44
55.53939,397.06,536.75
55.55899,397.34,538.91
55.57927,393.72,539.56
55.59901,393.87,540.06
55.61969,395.44,538.96
55.64026,395.31,538.43
55.66056,394.66,537.27
55.68134,391.73,537.52
55.70058,391.69,537.33
55.72002,392.23,536.97
55.74059,391.41,537.46
55.76083,392.41,534.97
55.78106,389.93,537.59
55.80060,390.00,535.26
55.82022,392.34,535.48
55.83946,394.42,536.96
55.86028,393.09,534.64
55.87954,391.12,533.38
55.90073,393.75,536.46
55.91987,393.43,535.99
55.94060,392.38,532.06
55.96104,391.43,533.40
55.97922,393.26,529.75
56.00115,391.40,531.71
56.01940,392.70,531.82
56.04076,391.13,533.27
56.06079,391.38,533.48
56.08079,391.41,533.12
56.10128,391.47,533.27
56.12229,393.85,534.27
56.14319,391.52,532.24
56.16318,392.90,534.15
56.18265,393.49,532.71
56.20296,394.72,530.84
56.22378,395.25,533.36
56.24263,393.65,531.62
56.26288,392.38,532.27
56.28326,393.18,530.88
56.30295,391.95,532.28
56.32320,392.18,530.38
56.34409,393.71,531.33
56.36316,394.07,533.23
56.38339,391.75,534.18
56.40256,394.31,532.53
56.42244,393.69,529.70
56.44382,393.96,533.10
56.46252,393.92,532.04
56.48378,392.77,532.19
56.50414,395.37,531.59
56.52339,392.23,529.17
56.54299,392.96,530.20
56.56259,393.35,531.03
56.58340,394.14,530.61
56.60303,394.46,532.13
56.62368,396.44,529.42
56.64258,394.82,530.33
56.66419,397.28,531.39
56.68327,396.47,527.85
56.70427,391.54,528.79
56.72420,383.40,533.78
56.74405,368.19,531.75
56.76361,351.42,535.92
56.78340,334.13,533.42
56.80322,315.82,535.92
56.82290,297.94,531.62
56.84302,285.94,532.81
56.86238,277.09,525.93
56.88401,273.19,523.69
56.90321,273.41,517.11
56.92378,277.77,511.29
56.94339,278.70,505.02
56.96326,282.91,502.85
56.98253,290.03,500.46
57.00372,299.79,499.80
57.02429,309.65,499.60
57.04414,316.48,500.99
57.06342,326.69,503.04
57.08406,334.59,504.73
57.10261,345.26,505.04
57.12308,349.99,508.01
57.14398,356.27,509.91
57.16416,364.44,511.57
57.18275,367.39,515.39
57.20268,378.28,525.03
57.22416,400.70,538.73
57.24352,432.14,550.57
57.26403,462.51,569.91
57.28424,494.30,583.72
57.30243,521.06,598.93
57.32351,537.84,609.50
57.34343,542.10,621.43
57.36438,544.72,632.44
57.38421,541.07,637.10
57.40349,527.89,620.37
57.42352,517.59,594.82
57.44422,498.08,567.63
57.46242,485.77,543.45
57.48337,470.52,525.88
57.50344,459.15,506.74
57.52418,449.07,495.38
57.54329,444.98,486.48
57.56365,435.72,480.35
57.58240,428.01,479.10
57.60380,423.96,478.05
57.62395,421.24,479.73
57.64343,418.66,480.63
57.66307,417.23,485.90
57.68349,415.10,494.96
57.70471,412.74,508.99
57.72385,413.82,536.52
57.74485,404.01,566.62
57.76524,397.73,578.85
57.78460,391.74,580.21
57.80567,392.31,571.98
57.82513,389.24,562.29
57.84636,390.22,549.37
57.86569,393.44,538.62
57.88463,395.57,530.68
57.90582,394.70,523.95
57.92627,397.11,515.86
57.94481,400.07,514.36
57.96569,401.66,509.57
57.98552,401.87,509.70
58.00490,407.09,508.33
58.02534,408.26,508.16
58.04570,410.47,508.16
58.06564,410.86,509.72
58.08637,410.36,512.33
58.10592,412.00,514.22
