Program Time [s],data 0,data 1
6.43861,352.66,450.71
6.45844,350.56,454.21
6.47904,350.07,455.93
6.49858,349.25,457.03
6.52012,348.76,458.71
6.54050,349.93,461.65
6.56126,351.85,466.39
6.58160,351.81,470.57
6.60306,353.48,473.31
6.62191,352.03,473.01
6.64188,354.13,472.28
6.66378,354.72,471.97
6.68511,358.10,470.95
6.70511,359.88,466.38
6.72430,360.02,468.40
6.74475,363.74,467.86
6.76501,366.29,464.41
6.78482,363.22,467.76
6.80463,365.23,469.46
6.82484,366.27,467.27
6.84600,363.09,469.15
6.86665,363.77,471.87
6.88595,363.85,472.75
6.90743,366.44,473.21
6.92558,365.69,473.69
6.94745,366.59,472.80
6.96730,365.02,473.76
6.98864,362.15,470.29
7.00755,361.94,471.29
7.02871,364.51,471.78
7.05015,362.66,471.60
7.07078,360.89,468.69
7.09141,359.40,470.50
7.10951,361.41,471.00
7.12984,360.59,471.13
7.15033,359.08,467.52
7.17046,359.30,468.69
7.18992,358.22,468.63
7.21127,359.12,469.68
7.22987,356.35,469.70
7.25072,357.35,469.15
7.27063,353.13,467.76
7.29119,342.03,467.60
7.31015,324.70,466.89
7.33193,303.71,462.19
7.35148,284.94,458.25
7.37231,267.93,451.84
7.39086,251.56,442.20
7.41166,241.31,433.97
7.43064,235.86,422.26
7.45201,232.66,416.64
7.47164,231.44,412.04
7.49167,234.79,406.93
7.51135,242.98,405.19
7.53172,248.71,402.72
7.55161,254.64,404.17
7.57078,264.64,408.26
7.59244,271.23,409.69
7.61241,277.31,411.66
7.63048,287.38,419.22
7.65210,294.78,422.95
7.67155,300.15,426.40
7.69203,306.04,431.77
7.71058,312.79,435.71
7.73088,318.29,441.72
7.75206,324.41,441.68
7.77262,326.57,443.47
7.79162,333.63,450.25
7.81174,334.24,448.43
7.83236,338.12,454.04
7.85094,339.28,452.28
7.87162,338.81,455.66
7.89183,344.34,456.76
7.91231,343.36,458.48
7.93212,346.50,458.44
7.95236,346.55,460.32
7.97201,346.78,460.11
7.99095,350.46,459.96
8.01083,350.27,462.46
8.03270,348.27,463.90
8.05255,355.74,465.60
8.07319,365.40,471.32
8.09411,382.85,479.25
8.11425,402.85,487.27
8.13352,425.27,496.81
8.15492,450.03,504.34
8.17412,472.95,514.67
8.19404,486.77,515.86
8.21514,501.21,520.04
8.23391,499.84,520.46
8.25495,499.79,514.62
8.27478,490.31,509.58
8.29462,478.25,504.33
8.31399,470.11,499.51
8.33505,458.99,495.65
8.35459,444.17,491.54
8.37436,434.21,488.51
8.39437,423.99,484.15
8.41449,412.60,484.12
8.43492,405.07,482.78
8.45603,396.97,476.95
8.47453,390.61,476.20
8.49477,384.87,475.61
8.51543,382.58,472.15
8.53555,378.67,472.90
8.55449,374.81,471.69
8.57486,370.31,468.87
8.59468,367.33,467.96
8.61661,366.75,468.06
8.63581,363.59,464.66
8.65495,361.49,466.90
8.67466,359.41,465.63
8.69650,360.48,462.47
8.71588,356.53,461.28
8.73453,354.75,464.10
8.75549,353.82,464.96
8.77630,354.22,462.64
8.79657,356.76,463.31
8.81555,354.48,465.04
8.83465,350.82,463.92
8.85465,349.67,461.67
8.87620,347.38,461.14
8.89513,346.00,460.60
8.91561,343.39,462.41
8.93535,346.94,459.06
8.95583,344.91,460.68
8.97588,342.81,456.20
8.99605,339.95,453.21
9.01509,341.77,454.27
9.03491,342.65,455.64
9.05644,339.48,454.70
9.07515,340.28,454.61
9.09471,341.48,453.10
9.11563,345.84,454.98
9.13553,347.15,453.13
9.15566,348.89,453.87
9.17547,349.55,456.11
9.19487,347.72,457.50
9.21535,350.61,455.70
9.23606,350.71,458.40
9.25488,349.36,459.24
9.27600,347.51,461.84
9.29531,348.87,461.98
9.31511,351.88,460.71
9.33577,351.61,460.03
9.35518,350.17,460.62
9.37568,348.36,461.13
9.39538,348.75,461.06
9.41659,347.39,461.13
9.43503,347.81,460.91
9.45568,348.15,462.89
9.47594,349.64,461.76
9.49526,347.23,463.05
9.51622,347.68,462.71
9.53468,347.52,463.47
9.55475,347.95,464.02
9.57610,351.12,462.09
9.59585,351.91,461.88
9.61567,348.83,462.86
9.63653,349.13,463.04
9.65594,349.53,462.24
9.67652,352.49,465.21
9.69569,351.18,461.94
9.71622,352.73,461.73
9.73453,352.62,463.79
9.75601,352.08,464.65
9.77578,349.15,462.11
9.79469,348.96,464.98
9.81438,351.46,464.78
9.83635,350.68,465.62
9.85575,351.09,463.46
9.87640,352.80,466.18
9.89510,352.07,466.37
9.91576,350.15,467.11
9.93622,352.45,464.95
9.95559,352.95,464.98
9.97601,350.95,464.77
9.99547,350.02,465.63
10.01456,352.63,466.08
10.03515,351.18,462.04
10.05645,349.75,461.36
10.07620,350.53,462.72
10.09482,352.47,465.44
10.11597,353.01,462.21
10.13606,351.35,462.34
10.15518,352.89,463.34
10.17495,351.77,461.02
10.19605,353.13,463.37
10.21492,353.55,463.29
10.23445,352.01,463.94
10.25536,350.78,463.31
10.27513,352.27,462.61
10.29527,352.58,466.32
10.31524,353.39,464.07
10.33584,352.14,464.24
10.35641,353.04,464.57
10.37616,354.08,464.95
10.39595,356.07,466.26
10.41737,354.51,465.92
10.43547,355.42,463.57
10.45544,359.45,464.85
10.47669,360.19,462.44
10.49592,357.26,463.31
10.51693,356.99,462.93
10.53697,358.51,462.00
10.55688,359.19,463.74
10.57643,358.64,463.05
10.59628,357.35,460.87
10.61621,358.49,463.39
10.63663,357.61,462.43
10.65729,358.03,461.27
10.67605,356.77,459.35
10.69742,356.41,461.41
10.71594,359.55,460.04
10.73627,357.14,459.26
10.75678,356.09,461.46
10.77603,354.91,458.68
10.79626,347.36,462.33
10.81612,333.20,459.02
10.83683,313.36,457.33
10.85664,296.29,460.70
10.87689,283.77,460.85
10.89681,267.51,459.87
10.91596,259.48,456.64
10.93691,251.78,450.29
10.95552,249.35,445.14
10.97656,246.74,441.98
10.99694,249.59,433.80
11.01632,250.12,430.36
11.03643,256.21,425.81
11.05687,264.21,424.43
11.07695,267.79,423.67
11.09680,277.64,424.08
11.11680,286.07,426.76
11.13573,291.45,429.41
11.15612,299.23,429.60
11.17591,306.46,434.08
11.19649,313.48,438.17
11.21655,320.20,440.19
11.23588,323.79,443.70
11.25628,328.30,445.45
11.27628,333.08,445.78
11.29554,338.52,445.83
11.31659,339.65,448.18
11.33667,343.13,450.23
11.35634,344.78,453.28
11.37710,348.53,456.70
11.39579,350.88,455.18
11.41663,352.95,456.30
11.43564,355.12,457.14
11.45680,357.46,459.78
11.47672,356.66,460.52
11.49592,358.26,457.97
11.51598,358.68,460.03
11.53691,359.75,461.58
11.55578,360.14,460.27
11.57726,356.78,461.18
11.59682,356.97,462.56
11.61647,356.42,460.39
11.63551,359.27,462.51
11.65571,368.63,471.19
11.67701,381.21,480.08
11.69685,403.42,490.76
11.71650,423.39,497.55
11.73558,447.85,499.06
11.75624,471.01,499.11
11.77689,489.13,497.97
11.79693,499.66,495.58
11.81627,498.44,491.38
11.83619,494.52,487.81
11.85702,489.10,483.40
11.87742,480.66,480.84
11.89744,472.68,477.36
11.91590,461.78,476.87
11.93692,449.99,472.99
11.95757,440.59,474.04
11.97599,430.06,472.36
11.99650,421.70,471.09
12.01545,416.76,468.93
12.03749,408.25,469.14
12.05737,405.04,471.03
12.07635,396.95,468.15
12.09614,392.65,468.04
12.11575,389.29,469.37
12.13602,383.86,467.79
12.15657,383.46,470.38
12.17554,380.12,469.41
12.19730,377.39,466.87
12.21741,373.57,466.43
12.23542,374.56,469.23
12.25698,371.02,469.32
12.27658,370.30,467.02
12.29555,370.58,468.88
12.31681,368.07,468.60
12.33600,368.52,464.94
12.35693,369.58,465.06
12.37690,370.66,466.17
12.39561,367.91,465.94
12.41588,369.96,466.06
12.43604,370.70,468.92
12.45635,368.32,468.92
12.47623,367.45,467.05
12.49643,365.54,468.58
12.51586,368.88,465.61
12.53720,368.23,467.23
12.55556,368.48,467.01
12.57584,367.42,466.68
12.59672,366.18,465.63
12.61716,369.33,467.64
12.63720,369.21,465.31
12.65667,369.14,465.47
12.67744,367.09,465.86
12.69685,366.30,466.22
12.71707,365.11,464.00
12.73712,367.37,465.53
12.75668,365.42,463.83
12.77574,365.83,466.48
12.79613,365.66,466.50
12.81636,365.81,464.20
12.83622,364.91,465.43
12.85561,366.49,467.99
12.87743,365.96,466.38
12.89598,364.44,467.36
12.91662,364.62,468.15
12.93620,367.27,467.36
12.95696,368.72,467.80
12.97732,367.86,469.48
12.99666,367.88,469.31
13.01644,366.65,468.78
13.03658,365.68,469.48
13.05568,368.35,466.57
13.07613,365.94,467.21
13.09559,364.99,469.00
13.11555,363.74,466.91
13.13702,365.19,468.07
13.15671,365.28,468.51
13.17683,364.90,469.80
13.19570,364.79,467.62
13.21702,365.31,466.15
13.23715,367.98,466.29
13.25702,367.27,466.56
13.27620,367.11,468.23
13.29727,364.79,465.88
13.31613,366.90,467.70
13.33637,366.83,467.01
13.35598,367.00,466.64
13.37717,366.97,466.93
13.39568,366.02,465.60
13.41568,368.68,464.05
13.43667,369.80,466.01
13.45612,368.73,465.70
13.47578,370.12,465.25
13.49577,368.41,467.41
13.51626,367.05,464.88
13.53689,366.73,464.66
13.55727,366.75,466.25
13.57646,364.66,466.88
13.59552,365.30,465.96
13.61619,367.05,465.70
13.63611,363.94,463.78
13.65614,363.95,463.14
13.67650,365.43,464.17
13.69686,364.02,466.28
13.71570,364.90,462.82
13.73721,367.14,463.35
13.75634,367.36,464.67
13.77708,367.46,465.60
13.79649,367.09,466.36
13.81702,366.04,465.15
13.83617,365.60,464.54
13.85556,365.86,467.27
13.87564,366.18,467.31
13.89584,364.92,466.10
13.91714,364.20,469.08
13.93632,364.75,467.76
13.95688,363.34,465.85
13.97722,362.66,466.55
13.99697,364.15,469.06
14.01680,363.03,469.36
14.03546,365.68,468.01
14.05655,364.56,467.70
14.07623,364.72,466.46
14.09690,364.75,468.15
14.11618,363.71,467.42
14.13589,366.21,469.29
14.15681,363.97,468.53
14.17682,365.05,469.02
14.19785,366.68,468.64
14.21722,364.20,469.88
14.23782,363.99,470.88
14.25734,364.82,469.46
14.27747,364.12,467.59
14.29741,366.81,468.41
14.31792,365.97,467.44
14.33713,365.59,468.12
14.35761,366.06,467.27
14.37824,365.32,470.45
14.39702,364.44,467.14
14.41789,365.59,469.78
14.43718,366.35,470.44
14.45795,365.96,467.20
14.47798,364.84,467.46
14.49844,366.47,468.06
14.51763,365.63,468.61
14.53814,366.18,470.03
14.55769,366.94,468.61
14.57663,367.46,466.35
14.59666,369.19,467.23
14.61675,364.97,467.74
14.63773,368.72,467.88
14.65804,366.31,466.63
14.67837,363.74,465.63
14.69641,364.54,468.24
14.71662,365.72,468.32
14.73677,362.19,466.55
14.75650,363.12,467.27
14.77683,361.97,467.95
14.79816,361.32,468.31
14.81711,362.56,468.60
14.83707,363.59,469.17
14.85792,364.49,469.66
14.87805,365.23,468.75
14.89663,363.84,466.83
14.91708,363.80,465.89
14.93809,366.98,468.78
14.95739,365.55,466.50
14.97707,364.97,465.11
14.99718,366.18,465.21
15.01673,361.44,467.76
15.03668,348.77,465.91
15.05801,330.98,462.25
15.07735,310.08,459.59
15.09831,295.03,455.71
15.11709,278.48,448.51
15.13795,262.98,442.47
15.15818,255.34,433.97
15.17745,246.37,429.09
15.19789,245.83,424.06
15.21783,244.09,423.33
15.23786,246.62,424.85
15.25840,250.30,425.75
15.27710,255.12,427.45
15.29813,262.55,431.16
15.31687,270.95,431.22
15.33676,278.99,434.46
15.35681,284.70,437.80
15.37805,291.17,443.88
15.39751,295.83,444.03
15.41806,306.04,445.98
15.43827,313.37,451.12
15.45789,318.51,452.74
15.47700,323.61,454.98
15.49709,330.38,456.07
15.51736,332.28,457.59
15.53691,338.70,460.62
15.55781,342.44,462.88
15.57789,345.29,460.07
15.59796,348.41,464.82
15.61669,348.24,464.77
15.63928,349.99,464.78
15.65874,350.02,466.04
15.67933,354.18,466.41
15.69878,355.39,467.10
15.71902,355.87,467.54
15.73922,355.27,466.60
15.75917,352.93,466.63
15.77899,353.75,467.57
15.79965,356.98,469.14
15.81889,357.71,467.83
15.83950,357.06,468.34
15.85903,360.97,472.23
15.87967,363.19,476.22
15.89904,368.06,479.61
15.92006,373.60,483.56
15.93938,385.44,488.23
15.95904,399.48,489.37
15.97893,419.49,493.24
15.99874,440.63,496.81
16.02027,463.70,495.30
16.03895,481.67,492.78
16.05881,496.53,490.67
16.07971,501.50,488.76
16.10019,496.74,488.66
16.11994,490.47,485.95
16.14043,483.69,483.85
16.15954,470.92,484.15
16.17952,461.97,482.69
16.19894,449.74,481.33
16.21870,439.99,481.35
16.23966,429.12,478.92
16.26005,419.78,477.53
16.27866,410.35,479.40
16.29955,402.80,477.86
16.32028,396.63,475.76
16.33878,392.68,476.23
16.35901,385.56,474.65
16.37878,382.20,474.45
16.39948,383.57,482.44
16.41932,384.05,483.23
16.43959,383.10,482.31
16.46030,381.39,481.97
16.47892,377.98,481.26
16.49946,376.17,478.44
16.51966,371.46,479.42
16.53917,370.50,474.88
16.55877,368.26,477.24
16.57973,367.80,475.65
16.59904,364.73,471.73
16.61832,361.22,471.49
16.63988,362.00,469.71
16.65896,361.82,471.60
16.67992,359.86,471.43
16.69991,358.67,470.45
16.71833,359.76,468.56
16.74014,357.10,469.33
16.75835,357.93,470.21
16.77862,358.26,468.24
16.80024,358.27,469.55
16.81949,358.00,468.62
16.83841,358.65,467.15
16.85980,358.75,468.03
16.87924,358.66,466.30
16.89845,359.37,467.70
16.91894,357.46,466.75
16.93924,356.80,468.93
16.95882,356.77,468.46
16.97922,358.56,469.91
16.99835,357.97,469.82
17.01985,354.13,469.22
17.03883,355.25,470.53
17.06037,354.73,469.19
17.07937,356.54,468.86
17.09945,353.45,469.58
17.12104,355.50,468.97
17.13972,353.03,468.49
17.16004,354.51,469.78
17.18121,354.96,469.65
17.19976,352.40,469.77
17.22075,355.27,467.12
17.24099,354.85,469.03
17.26143,353.56,470.62
17.28089,351.54,467.43
17.30064,351.68,467.41
17.32055,350.52,469.71
17.34094,351.11,469.44
17.35974,350.03,467.97
17.38032,352.03,467.21
17.39931,351.69,469.42
17.42118,351.70,466.86
17.43984,351.47,468.00
17.45993,351.77,466.13
17.47934,350.00,468.77
17.49998,351.30,470.09
17.52007,348.84,466.96
17.54034,351.76,467.87
17.56004,350.62,467.10
17.58051,352.08,468.64
17.59972,353.29,467.52
17.61933,350.96,467.81
17.63942,353.20,467.50
17.66105,351.10,469.39
17.68096,350.55,468.37
17.70060,347.66,471.43
17.72018,348.91,468.79
17.74003,350.40,470.47
17.76021,348.79,468.46
17.78008,348.63,467.35
17.80041,350.67,467.87
17.81992,348.05,468.99
17.84091,350.64,468.55
17.86088,350.96,470.49
17.88009,350.91,467.88
17.89991,347.94,468.30
17.91992,348.52,468.67
17.94073,348.89,467.35
17.96015,349.69,466.81
17.98125,349.23,465.72
17.99932,347.28,466.54
18.02132,346.81,468.22
18.04240,349.42,468.74
18.06047,347.83,465.53
18.08108,349.28,467.30
18.10167,346.22,465.62
18.12164,350.20,468.76
18.14073,350.85,469.32
18.16186,348.51,469.96
18.18221,350.40,467.24
18.20163,350.50,469.55
18.22184,350.23,468.38
18.24155,350.52,469.65
18.26117,353.63,468.02
18.28220,353.97,468.74
18.30212,351.17,467.81
18.32268,351.49,465.77
18.34183,352.38,465.02
18.36273,352.14,463.98
18.38244,349.66,464.76
18.40335,352.84,463.88
18.42165,351.69,465.34
18.44236,349.13,466.55
18.46158,349.14,466.73
18.48179,348.87,465.53
18.50145,353.11,463.40
18.52310,352.15,462.70
18.54296,350.61,464.31
18.56208,351.62,465.67
18.58278,351.84,463.59
18.60281,351.55,466.45
18.62258,350.45,464.81
18.64194,352.13,462.92
18.66145,351.89,464.81
18.68181,354.07,465.78
18.70141,351.16,466.95
18.72313,354.22,465.77
18.74171,350.24,464.27
18.76153,352.60,465.61
18.78189,352.77,463.12
18.80249,351.28,466.51
18.82217,351.71,464.66
18.84205,352.78,465.78
18.86177,353.59,464.81
18.88350,353.35,465.40
18.90252,350.87,464.61
18.92203,346.70,464.04
18.94289,329.05,462.98
18.96267,308.82,463.76
18.98254,288.24,466.34
19.00171,269.13,462.63
19.02326,253.82,454.72
19.04248,242.19,446.93
19.06170,233.65,440.30
19.08272,232.80,432.16
19.10247,229.15,424.73
19.12262,233.44,421.82
19.14334,234.11,420.77
19.16326,240.84,420.37
19.18217,249.31,419.09
19.20154,256.48,423.28
19.22241,264.06,423.48
19.24266,271.43,425.48
19.26306,279.09,427.87
19.28267,290.83,432.26
19.30274,297.09,436.72
19.32311,303.86,440.98
19.34350,311.32,441.22
19.36407,316.72,447.45
19.38268,320.87,448.18
19.40270,325.19,451.70
19.42411,331.13,452.16
19.44414,333.09,454.52
19.46299,338.36,457.27
19.48352,338.97,455.46
19.50392,342.74,460.09
19.52399,344.69,460.72
19.54360,345.88,463.02
19.56258,348.75,463.00
19.58359,350.70,461.33
19.60213,352.14,464.98
19.62308,351.99,464.43
19.64247,351.27,461.69
19.66250,353.44,462.24
19.68370,355.25,465.07
19.70331,352.23,467.03
19.72392,352.18,467.02
19.74334,353.67,466.46
19.76342,352.96,465.12
19.78423,353.66,466.08
19.80294,354.77,466.43
19.82389,362.57,470.74
19.84300,382.20,474.41
19.86333,405.25,480.58
19.88357,433.50,487.17
19.90416,457.38,493.77
19.92335,482.38,496.46
19.94315,501.17,501.88
19.96305,504.00,502.18
19.98294,502.03,503.31
20.00334,499.10,499.65
20.02241,487.24,497.13
20.04345,476.82,496.53
20.06227,463.93,494.46
20.08291,455.45,488.02
20.10284,444.11,489.08
20.12302,434.99,485.92
20.14281,424.29,483.14
20.16336,417.03,480.91
20.18363,407.71,478.93
20.20379,401.23,479.74
20.22407,392.13,475.37
20.24407,389.05,476.58
20.26245,384.73,476.42
20.28406,379.94,473.52
20.30235,377.06,474.30
20.32401,375.39,471.38
20.34403,375.34,471.73
20.36221,372.27,472.69
20.38316,370.12,468.26
20.40400,365.51,470.70
20.42362,364.66,469.93
20.44392,365.97,470.41
20.46363,364.14,469.41
20.48292,362.88,468.70
20.50249,364.04,468.49
20.52248,363.40,468.02
20.54358,358.85,468.16
20.56317,361.60,466.24
20.58290,360.24,467.80
20.60267,361.46,466.18
20.62303,360.01,466.58
20.64321,360.43,466.05
20.66356,359.84,466.18
20.68378,358.96,468.30
20.70356,358.74,468.23
20.72319,358.61,468.83
20.74245,361.40,468.26
20.76386,360.47,466.75
20.78381,360.35,468.53
20.80295,359.13,465.84
20.82231,360.14,466.95
20.84360,360.24,467.64
20.86231,357.88,466.48
20.88284,358.24,464.99
20.90311,359.95,463.68
20.92382,359.59,464.76
20.94383,359.46,464.61
20.96326,361.10,465.45
20.98252,360.34,466.43
21.00261,359.24,467.80
21.02229,358.52,467.55
21.04356,357.76,469.80
21.06416,359.79,468.15
21.08416,358.85,470.22
21.10299,359.85,467.79
21.12376,358.78,467.52
21.14398,359.31,468.13
21.16380,357.78,469.44
21.18384,358.72,468.23
21.20233,360.50,466.48
21.22342,358.71,466.54
21.24330,359.52,469.58
21.26333,362.57,469.26
21.28398,360.06,469.65
21.30497,363.07,469.55
21.32460,362.02,469.11
21.34420,364.28,469.42
21.36319,362.00,466.80
21.38394,361.50,465.69
21.40432,361.68,465.20
21.42406,364.50,464.17
21.44401,363.60,463.56
21.46424,363.25,465.15
21.48398,364.82,466.70
21.50516,362.97,466.21
21.52469,362.61,463.87
21.54359,362.17,466.33
21.56469,364.40,465.27
21.58490,365.09,466.03
21.60479,364.78,463.85
21.62378,365.48,466.94
21.64502,363.88,466.76
21.66482,366.42,464.93
21.68410,365.19,466.48
21.70508,362.95,464.63
21.72369,364.59,465.86
21.74469,362.44,467.60
21.76403,363.78,466.34
21.78424,364.32,468.19
21.80425,362.88,465.53
21.82369,361.03,466.97
21.84400,360.96,466.82
21.86355,365.28,465.75
21.88357,365.58,467.01
21.90331,362.56,466.62
21.92443,366.12,466.56
21.94333,363.76,466.48
21.96525,362.59,465.49
21.98355,365.54,463.29
22.00351,362.46,465.35
22.02440,361.72,463.94
22.04508,362.97,466.98
22.06436,363.05,467.50
22.08497,360.92,467.84
22.10523,361.50,463.98
22.12574,364.36,464.03
22.14447,361.11,467.57
22.16570,363.65,466.87
22.18535,362.25,465.94
22.20617,364.28,466.55
22.22580,365.64,465.73
22.24625,364.84,465.07
22.26629,364.94,467.11
22.28607,366.59,465.33
22.30442,365.50,466.46
22.32602,365.36,466.75
22.34505,365.76,466.66
22.36558,364.65,468.96
22.38428,362.76,465.77
22.40555,363.09,466.86
22.42418,362.79,466.05
22.44417,365.71,468.82
22.46428,363.17,466.66
22.48446,362.21,469.16
22.50458,365.86,465.95
22.52612,365.77,467.40
22.54566,364.31,466.38
22.56580,363.89,466.03
22.58593,362.64,465.40
22.60575,364.23,466.25
22.62568,364.89,466.17
22.64581,361.60,466.53
22.66685,363.18,465.44
22.68559,363.33,464.96
22.70541,361.93,461.18
22.72695,361.89,461.38
22.74630,353.11,464.52
22.76531,338.38,462.61
22.78668,319.92,460.75
22.80716,298.39,463.09
22.82644,275.02,461.19
22.84604,261.33,456.77
22.86550,250.21,456.39
22.88629,243.42,450.77
22.90791,241.58,445.13
22.92800,240.89,440.08
22.94727,242.90,435.06
22.96663,244.68,433.72
22.98780,253.92,430.43
23.00749,258.46,429.36
23.02730,266.98,428.06
23.04788,276.48,429.52
23.06724,281.70,429.60
23.08798,288.99,429.85
23.10775,298.36,431.85
23.12749,302.72,436.49
23.14650,312.31,437.47
23.16751,317.32,441.23
23.18692,323.78,444.63
23.20665,325.31,448.67
23.22788,329.20,450.98
23.24661,334.09,452.07
23.26775,339.62,457.00
23.28809,341.70,458.56
23.30653,342.95,459.82
23.32655,345.40,464.18
23.34900,349.65,463.70
23.36866,350.50,465.56
23.38852,349.34,466.77
23.40989,352.59,469.66
23.42994,352.41,467.26
23.44965,352.21,467.20
23.46986,354.03,467.24
23.48989,352.16,467.96
23.50996,352.29,469.20
23.53003,353.54,471.38
23.54917,352.33,470.32
23.56979,351.78,469.09
23.59007,352.43,468.13
23.61013,355.26,470.62
23.62839,356.05,470.63
23.64874,356.51,471.71
23.66909,355.98,470.61
23.68866,362.84,476.15
23.70965,375.52,483.34
23.72929,398.53,488.81
23.74864,422.14,497.67
23.76810,448.23,504.26
23.78987,474.12,512.87
23.80969,493.80,517.83
23.82838,502.13,516.29
23.84998,503.08,516.79
23.87008,499.66,514.49
23.89019,489.40,508.28
23.90895,479.50,504.44
23.93003,468.39,497.63
23.94945,456.31,495.06
23.96857,444.99,490.18
23.99014,431.32,486.00
24.00953,423.22,483.87
24.02932,414.09,481.11
24.05082,404.73,474.57
24.07103,396.25,473.25
24.09062,393.35,469.10
24.11018,387.07,469.95
24.13084,381.59,467.16
24.15073,376.22,465.42
24.17021,375.13,467.68
24.19070,371.12,466.28
24.21063,368.64,464.10
24.22964,365.90,465.81
24.24948,363.81,465.24
24.27112,359.75,461.54
24.28997,360.87,465.11
24.31037,358.33,462.96
24.33169,356.04,462.09
24.35176,354.39,465.91
24.37071,355.17,464.41
24.39141,354.42,465.30
24.41065,353.18,466.50
24.43073,354.71,464.62
24.45127,354.10,466.74
24.47184,352.78,467.73
24.49098,352.82,467.79
24.51042,353.51,467.47
24.53023,353.25,465.45
24.55064,352.38,465.26
24.57021,352.48,467.00
24.59033,351.49,466.61
24.61059,351.72,464.01
24.63215,354.39,465.63
24.65020,350.03,463.67
24.67142,352.20,462.86
24.69063,351.03,465.10
24.71062,352.72,464.06
24.73107,350.53,464.53
24.75112,350.93,465.12
24.77177,350.98,461.56
24.79084,350.57,462.22
24.81073,352.00,464.90
24.83097,350.78,463.08
24.85181,350.69,464.05
24.87097,352.84,462.42
24.89175,353.20,463.91
24.91042,349.78,462.64
24.93036,352.50,465.83
24.95151,354.04,462.94
24.97040,354.40,464.61
24.99178,353.61,464.03
25.01147,354.32,462.77
25.03105,353.99,465.05
25.05108,353.01,463.13
25.07053,353.31,465.52
25.09083,351.58,463.45
25.11085,351.54,465.04
25.13053,349.69,461.77
25.15051,349.69,461.86
25.17199,349.67,460.95
25.19089,350.03,461.42
25.21146,350.60,463.61
25.23038,352.78,464.27
25.25199,351.63,464.05
25.27205,354.64,464.23
25.29094,354.90,462.00
25.31190,350.76,464.87
25.33041,350.01,465.53
25.35012,352.22,462.76
25.37102,350.61,465.10
25.39105,350.87,465.73
25.41206,351.48,465.29
25.43070,350.94,462.78
25.45100,352.41,462.79
25.47101,351.85,466.06
25.49058,352.27,462.42
25.51056,352.05,463.87
25.53188,353.31,464.66
25.55153,352.75,467.48
25.57091,351.00,465.89
25.59027,351.57,464.62
25.61119,350.31,466.66
25.63194,351.28,464.76
25.65014,354.04,466.77
25.67320,354.35,468.01
25.69311,350.96,468.28
25.71282,354.44,468.57
25.73137,353.80,465.46
25.75267,353.68,467.26
25.77219,352.29,467.37
25.79126,354.61,467.45
25.81152,351.96,468.25
25.83211,353.59,465.50
25.85283,353.65,468.97
25.87252,353.68,467.26
25.89249,354.80,465.62
25.91163,355.42,467.76
25.93316,352.73,464.44
25.95264,351.80,465.99
25.97123,349.91,465.86
25.99150,351.78,466.32
26.01148,351.44,467.21
26.03133,353.32,464.16
26.05136,352.78,463.12
26.07142,352.58,463.71
26.09152,351.02,465.67
26.11195,351.98,465.75
26.13249,351.48,464.90
26.15133,351.62,466.64
26.17170,351.44,466.19
26.19116,352.36,464.16
26.21123,354.47,463.46
26.23105,354.93,466.62
26.25392,352.94,465.15
26.27408,352.71,466.08
26.29384,354.90,465.60
26.31405,355.74,465.18
26.33318,356.54,467.13
26.35409,354.93,465.58
26.37394,341.01,462.47
26.39260,326.13,460.34
26.41322,302.75,454.24
26.43293,282.49,453.58
26.45355,265.65,451.73
26.47253,254.81,448.99
26.49229,246.86,443.88
26.51335,240.48,441.31
26.53247,235.38,438.42
26.55383,238.48,436.10
26.57340,241.72,433.22
26.59414,246.88,432.17
26.61277,256.18,430.86
26.63332,263.17,430.66
26.65280,270.54,430.78
26.67281,276.95,429.45
26.69295,287.42,432.02
26.71287,293.17,434.47
26.73348,301.60,437.40
26.75241,306.32,441.26
26.77248,313.21,443.44
26.79297,320.20,445.11
26.81299,326.26,447.32
26.83239,331.33,450.35
26.85389,332.25,452.92
26.87360,338.00,456.95
26.89227,339.12,455.61
26.91246,343.52,456.72
26.93209,343.95,458.57
26.95247,349.46,460.73
26.97357,350.62,461.00
26.99244,348.55,462.94
27.01212,351.11,459.38
27.03296,353.73,460.78
27.05391,353.81,462.99
27.07488,353.34,461.07
27.09500,356.79,463.95
27.11415,358.52,461.92
27.13391,358.56,463.75
27.15392,359.99,464.18
27.17462,361.45,466.16
27.19446,361.86,468.04
27.21312,360.35,465.68
27.23489,363.03,466.61
27.25391,361.76,468.55
27.27378,364.39,464.94
27.29420,365.34,468.89
27.31494,365.44,467.40
27.33345,362.67,469.49
27.35330,365.07,467.81
27.37509,364.00,468.40
27.39381,366.49,465.85
27.41471,366.74,466.57
27.43333,365.21,467.13
27.45453,365.15,467.02
27.47330,363.88,466.93
27.49355,366.56,468.23
27.51329,366.29,470.30
27.53439,364.67,467.14
27.55347,364.54,467.26
27.57364,364.67,466.28
27.59421,362.83,467.27
27.61486,364.62,470.05
27.63349,368.66,472.59
27.65454,374.38,477.18
27.67365,378.95,484.00
27.69430,387.23,491.27
27.71474,396.69,499.41
27.73317,417.18,505.39
27.75361,436.23,511.20
27.77377,456.59,519.91
27.79480,476.06,518.31
27.81422,490.29,521.62
27.83368,495.76,515.98
27.85330,494.51,510.34
27.87340,489.67,507.42
27.89387,481.60,499.74
27.91382,471.44,495.98
27.93443,463.09,491.65
27.95551,450.43,486.06
27.97584,440.58,485.25
27.99564,434.32,478.29
28.01424,424.12,476.67
28.03615,419.15,473.75
28.05441,410.71,472.97
28.07471,405.79,473.29
28.09512,398.44,471.86
28.11481,392.91,470.52
28.13514,389.76,471.80
28.15495,387.71,469.97
28.17496,384.00,469.08
28.19565,381.75,470.94
28.21615,379.06,470.30
28.23526,375.97,468.47
28.25590,374.65,468.94
28.27546,374.44,470.72
28.29509,372.10,469.86
28.31500,372.12,468.17
28.33536,369.44,469.48
28.35591,368.48,469.03
28.37490,368.53,469.95
28.39536,366.68,468.88
28.41447,367.10,469.84
28.43564,365.02,468.90
28.45691,365.50,468.67
28.47565,367.03,471.61
28.49608,365.35,469.76
28.51632,366.69,469.39
28.53643,365.02,469.31
28.55674,365.87,472.57
28.57611,366.22,468.71
28.59695,363.61,471.60
28.61676,363.10,471.17
28.63691,363.30,469.00
28.65596,363.07,468.29
28.67529,365.12,471.41
28.69619,363.46,469.86
28.71693,364.82,471.07
28.73579,364.26,469.87
28.75643,363.75,470.00
28.77599,362.89,470.36
28.79568,362.29,473.35
28.81606,362.94,471.92
28.83563,363.96,474.26
28.85706,361.56,472.59
28.87727,361.53,473.06
28.89733,360.10,474.57
28.91630,359.50,473.06
28.93631,363.26,472.75
28.95682,358.87,473.78
28.97631,359.94,472.70
28.99724,359.26,469.54
29.01649,357.04,469.71
29.03717,357.49,471.30
29.05759,359.54,469.90
29.07790,356.73,470.79
29.09657,358.66,468.59
29.11644,361.42,470.90
29.13724,358.96,469.41
29.15780,357.97,467.57
29.17711,361.08,469.86
29.19653,360.72,467.98
29.21625,360.03,468.58
29.23736,361.00,469.01
29.25654,361.03,468.53
29.27787,361.79,470.22
29.29787,361.62,469.97
29.31636,362.12,471.16
29.33703,361.09,470.01
29.35865,359.30,467.95
29.37827,358.25,468.52
29.39820,360.92,468.80
29.41915,360.65,467.05
29.43947,360.10,470.78
29.45963,358.17,468.32
29.47872,359.66,469.27
29.49968,356.07,468.85
29.51888,358.53,467.15
29.53827,357.54,470.91
29.55829,354.46,470.70
29.57828,354.99,469.03
29.59909,356.40,470.08
29.61853,355.79,472.17
29.63854,355.15,471.41
29.65824,356.95,471.37
29.67987,355.11,473.16
29.69988,353.40,470.23
29.71934,354.34,470.68
29.73834,355.25,473.83
29.75846,356.01,471.87
29.77990,356.83,474.94
29.79850,355.43,474.08
29.81826,356.46,474.13
29.83837,353.55,474.16
29.85835,355.61,475.64
29.87861,355.08,474.19
29.89918,353.92,474.71
29.91932,354.38,472.53
29.93862,354.34,474.14
29.95959,354.18,474.23
29.97877,357.08,474.61
29.99890,356.59,474.00
30.01995,356.99,472.39
30.03847,355.24,474.43
30.05831,356.69,472.32
30.07919,358.00,474.25
30.09833,355.78,473.16
30.11862,357.39,471.85
30.13937,355.94,474.02
30.15873,355.51,470.17
30.17864,355.75,471.23
30.19840,356.28,473.78
30.21828,357.29,470.25
30.23919,355.85,472.08
30.25889,355.37,472.12
30.27846,355.48,472.33
30.29975,354.32,470.80
30.31983,354.57,473.58
30.33831,354.22,473.96
30.35927,353.90,473.62
30.37828,344.62,474.21
30.39878,327.61,469.88
30.41810,307.74,463.93
30.43910,284.80,462.30
30.45963,270.65,456.10
30.47992,254.73,447.13
30.49928,246.63,444.62
30.51997,240.96,438.94
30.53871,236.15,434.53
30.55940,238.35,431.65
30.58006,239.72,430.81
30.59909,245.64,429.31
30.62008,248.83,428.60
30.63894,257.81,430.36
30.65980,264.17,430.00
30.67904,271.03,433.34
30.69841,279.46,436.45
30.71826,287.02,436.74
30.73810,295.44,441.20
30.75933,297.86,443.08
30.77881,305.22,446.56
30.79921,310.44,447.30
30.81910,318.16,449.04
30.83969,323.15,451.92
30.85910,325.69,455.17
30.87925,327.85,456.79
30.89904,333.05,457.54
30.91963,334.63,458.09
30.94055,335.47,461.52
30.96120,335.65,461.99
30.97940,336.76,461.76
30.99939,338.09,466.59
31.02098,339.23,465.92
31.03993,341.56,467.52
31.05940,344.15,464.69
31.07979,345.17,469.11
31.10078,345.89,466.03
31.12017,344.53,469.20
31.14079,346.23,469.87
31.16008,346.34,470.61
31.17917,345.49,470.43
31.20075,348.80,472.74
31.22021,345.93,471.54
31.23911,347.87,471.64
31.25930,347.77,473.74
31.28094,347.09,471.54
31.30026,348.58,473.95
31.32079,347.41,471.68
31.33887,348.51,475.21
31.36070,350.37,474.97
31.38065,357.94,487.61
31.40171,367.55,506.83
31.42181,384.03,530.32
31.44108,404.62,553.42
31.46147,425.78,575.23
31.48269,447.98,584.51
31.50188,467.98,579.07
31.52129,482.54,568.95
31.54165,491.75,548.75
31.56127,493.35,531.13
31.58270,488.99,513.33
31.60231,482.32,498.88
31.62111,471.45,485.93
31.64287,458.59,474.73
31.66132,448.70,463.00
31.68243,436.28,458.97
31.70275,427.97,453.15
31.72209,418.63,451.87
31.74148,408.13,450.01
31.76273,401.53,447.95
31.78305,393.59,447.09
31.80110,388.15,447.55
31.82201,385.70,446.48
31.84199,379.38,449.57
31.86298,375.89,449.61
31.88219,375.25,452.95
31.90252,368.50,453.19
31.92315,365.11,451.99
31.94341,365.12,453.41
31.96252,361.53,456.88
31.98243,362.83,455.75
32.00223,361.50,454.64
32.02207,359.82,457.41
32.04264,357.35,457.30
32.06276,358.02,455.40
32.08233,355.64,458.02
32.10344,356.91,457.45
32.12325,354.97,459.17
32.14270,357.53,458.05
32.16343,355.66,460.61
32.18318,355.63,461.24
32.20221,355.27,463.54
32.22386,355.74,460.70
32.24206,352.83,461.84
32.26224,355.22,464.36
32.28238,354.57,465.66
32.30230,356.24,465.32
32.32282,354.70,463.12
32.34229,355.53,464.40
32.36364,353.99,462.55
32.38344,351.95,462.42
32.40308,350.99,460.93
32.42359,352.23,463.00
32.44325,351.85,463.91
32.46381,352.85,460.95
32.48271,353.28,459.95
32.50271,353.87,461.70
32.52283,350.46,462.28
32.54403,351.41,459.56
32.56330,351.53,460.84
32.58224,350.32,462.70
32.60205,350.87,459.78
32.62273,352.61,459.71
32.64281,351.41,460.45
32.66386,353.29,462.18
32.68203,353.74,460.90
32.70395,353.67,459.45
32.72320,356.85,461.64
32.74252,354.92,459.14
32.76209,356.59,459.04
32.78377,352.24,458.96
32.80379,353.31,458.45
32.82313,353.50,459.63
32.84360,354.63,458.81
32.86408,355.73,462.06
32.88313,352.95,462.88
32.90371,355.16,462.50
32.92331,354.14,460.71
32.94195,352.67,460.29
32.96254,354.04,462.91
32.98308,354.85,462.01
33.00331,353.04,463.74
33.02345,353.26,464.05
33.04373,355.57,463.81
33.06388,355.92,464.83
33.08186,353.27,463.84
33.10347,354.38,461.95
33.12311,352.08,463.29
33.14376,352.19,464.78
33.16212,353.29,463.64
33.18296,353.04,462.77
33.20386,354.57,462.44
33.22270,354.81,463.82
33.24365,353.61,465.85
33.26241,354.15,464.72
33.28355,354.74,462.09
33.30351,354.36,461.74
33.32338,354.79,463.39
33.34275,354.92,465.41
33.36342,354.89,464.34
33.38214,353.91,464.74
33.40364,354.83,464.50
33.42367,355.91,463.97
33.44228,354.13,466.39
33.46368,355.51,467.75
33.48349,356.27,466.17
33.50309,353.30,466.58
33.52258,355.62,466.23
33.54331,355.17,467.30
33.56228,353.93,464.28
33.58348,356.84,466.61
33.60206,355.20,463.58
33.62329,356.11,465.85
33.64348,356.70,466.02
33.66281,355.47,464.88
33.68316,355.35,463.84
33.70209,357.95,466.77
33.72318,357.05,464.52
33.74249,355.90,465.13
33.76225,356.09,464.38
33.78309,357.25,464.55
33.80306,355.91,464.16
33.82272,357.40,465.97
33.84202,357.35,464.45
33.86353,355.87,462.93
33.88232,357.45,465.19
33.90300,358.60,463.72
33.92311,360.48,463.67
33.94352,358.38,464.12
33.96361,357.76,462.27
33.98437,356.84,461.71
34.00343,359.80,464.43
34.02353,360.54,461.98
34.04474,360.60,461.35
34.06331,358.07,464.73
34.08423,357.27,463.93
34.10454,357.49,464.17
34.12315,357.78,463.66
34.14351,357.95,461.98
34.16390,356.08,463.23
34.18317,358.46,461.39
34.20389,358.32,460.41
34.22294,358.20,460.37
34.24318,358.54,459.97
34.26495,358.72,462.28
34.28375,361.98,459.33
34.30352,362.93,460.56
34.32468,359.86,460.12
34.34340,362.64,458.97
34.36368,362.63,459.75
34.38403,363.03,459.55
34.40364,362.85,460.81
34.42459,361.06,458.47
34.44422,361.23,458.85
34.46460,361.85,457.64
34.48440,362.02,459.77
34.50338,355.72,457.37
34.52425,339.40,452.68
34.54369,317.59,453.04
34.56446,297.85,449.72
34.58312,278.68,449.53
34.60470,265.19,445.08
34.62354,252.65,438.04
34.64462,243.19,431.74
34.66321,239.54,423.92
34.68473,241.90,424.66
34.70414,243.93,423.32
34.72315,246.27,420.31
34.74419,252.12,419.78
34.76397,258.37,420.28
34.78272,264.47,422.14
34.80475,274.84,428.57
34.82425,281.22,430.43
34.84278,288.53,431.20
34.86474,296.29,436.50
34.88324,301.70,436.33
34.90476,309.89,441.44
34.92379,316.59,445.15
34.94461,321.77,446.48
34.96355,325.21,446.76
34.98297,331.62,449.30
35.00297,337.52,450.13
35.02334,339.65,452.39
35.04364,344.45,453.57
35.06395,346.95,457.41
35.08471,349.76,457.30
35.10359,351.27,454.64
35.12397,351.38,454.63
35.14471,353.95,454.76
35.16350,353.68,456.18
35.18326,356.00,455.97
35.20444,355.08,460.05
35.22331,356.55,459.27
35.24388,360.14,456.01
35.26335,360.10,455.73
35.28347,359.34,455.04
35.30340,360.85,452.88
35.32444,363.00,454.79
35.34302,359.95,450.11
35.36295,362.28,449.69
35.38374,361.20,453.28
35.40424,361.52,449.96
35.42423,362.06,452.80
35.44425,361.80,455.38
35.46392,363.50,454.39
35.48271,363.43,457.65
35.50347,360.45,459.42
35.52467,364.00,461.58
35.54324,365.01,463.57
35.56337,363.34,462.11
35.58474,365.16,462.03
35.60480,364.33,462.27
35.62476,362.81,462.38
35.64410,367.97,464.90
35.66311,378.00,470.95
35.68400,391.73,483.64
35.70441,411.96,491.85
35.72335,440.84,501.61
35.74466,465.64,507.28
35.76463,490.44,513.31
35.78291,510.62,518.18
35.80391,517.62,518.95
35.82423,515.54,514.25
35.84381,508.15,509.80
35.86392,499.58,507.18
35.88329,490.84,501.16
35.90323,475.46,494.50
35.92420,463.75,488.69
35.94485,454.52,484.52
35.96362,441.99,480.10
35.98467,432.06,476.95
36.00335,425.39,475.54
36.02293,419.18,473.78
36.04450,411.91,469.58
36.06325,407.06,466.91
36.08434,403.30,468.59
36.10363,395.68,464.18
36.12471,393.51,464.46
36.14420,390.81,463.79
36.16442,388.22,460.57
36.18300,383.19,461.86
36.20369,382.31,461.43
36.22450,377.78,458.41
36.24383,378.67,457.86
36.26394,376.15,456.61
36.28406,375.67,456.80
36.30395,375.36,457.07
36.32493,371.39,459.68
36.34394,369.54,458.27
36.36597,369.69,457.92
36.38514,368.58,458.50
36.40496,368.99,458.13
36.42570,369.43,457.71
36.44558,368.00,460.29
36.46442,368.51,460.54
36.48447,367.58,459.30
36.50590,366.27,460.57
36.52566,364.93,460.88
36.54482,366.35,460.38
36.56652,367.50,456.47
36.58591,365.23,457.70
36.60614,362.20,455.53
36.62586,365.41,456.26
36.64611,365.42,456.20
36.66506,364.09,453.27
36.68483,362.14,453.53
36.70569,363.91,454.00
36.72621,361.51,455.58
36.74593,363.68,455.22
36.76564,364.58,453.94
36.78599,365.90,453.17
36.80551,365.02,454.58
36.82686,362.18,454.60
36.84680,364.75,454.81
36.86574,364.64,457.61
36.88665,363.00,458.47
36.90653,364.83,457.37
36.92533,365.53,457.46
36.94712,364.82,458.94
36.96671,363.72,456.76
36.98739,363.19,458.03
37.00716,363.81,458.20
37.02665,363.18,461.42
37.04605,364.29,461.87
37.06720,364.41,460.74
37.08768,363.12,463.32
37.10806,363.43,462.90
37.12835,359.15,460.67
37.14784,361.16,464.06
37.16800,359.80,460.31
37.18721,357.85,462.77
37.20696,358.13,463.12
37.22818,359.21,462.44
37.24719,359.08,463.97
37.26858,356.57,464.57
37.28799,359.24,464.37
37.30904,357.88,464.09
37.32965,358.73,465.00
37.34835,356.11,466.53
37.36866,359.32,465.80
37.38819,358.05,466.56
37.40932,356.30,464.61
37.42929,359.72,463.05
37.44792,360.28,464.53
37.46922,358.75,464.92
37.48808,357.41,463.80
37.50955,360.52,466.25
37.52816,359.56,464.74
37.54967,360.22,465.27
37.56845,359.59,465.98
37.58959,357.19,463.74
37.60906,357.63,465.49
37.62958,355.72,463.30
37.64885,357.64,466.43
37.66924,357.51,463.36
37.68832,356.70,464.40
37.70982,358.64,466.16
37.72956,357.10,462.71
37.74818,357.33,465.01
37.76992,357.73,467.23
37.78872,358.02,465.95
37.80919,357.39,465.94
37.83128,353.51,466.62
37.85173,352.39,465.68
37.87149,354.89,464.87
37.89171,351.89,466.18
37.91142,350.25,463.19
37.93110,351.39,466.07
37.95188,351.16,464.22
37.97146,352.28,464.00
37.99139,349.35,465.92
38.01277,349.51,464.21
38.03102,351.43,462.82
38.05116,350.05,463.19
38.07183,348.06,464.39
38.09236,351.17,466.07
38.11118,350.85,462.65
38.13218,350.03,464.40
38.15188,350.46,461.02
38.17109,349.13,460.51
38.19240,349.45,461.44
38.21175,350.91,461.15
38.23206,348.85,459.29
38.25233,350.46,460.44
38.27354,348.68,461.89
38.29202,349.32,461.03
38.31308,349.11,460.09
38.33236,351.33,460.13
38.35380,349.73,461.84
38.37306,348.52,460.03
38.39228,349.08,463.55
38.41317,349.67,460.89
38.43375,350.99,463.38
38.45379,347.70,463.64
38.47213,350.63,463.24
38.49339,348.16,463.91
38.51277,351.07,460.79
38.53346,347.04,462.26
38.55238,347.35,461.29
38.57462,350.51,460.49
38.59448,350.26,458.18
38.61380,348.76,458.25
38.63424,351.07,458.94
38.65382,352.84,457.78
38.67297,342.58,455.04
38.69386,328.94,454.33
38.71325,309.11,449.62
38.73347,285.23,450.10
38.75298,267.32,443.62
38.77329,253.05,439.16
38.79297,239.38,434.18
38.81366,234.62,429.91
38.83380,229.40,428.29
38.85418,230.32,423.11
38.87577,230.72,421.43
38.89513,237.04,419.20
38.91557,242.45,420.46
38.93421,249.34,419.43
38.95436,253.26,422.69
38.97528,263.85,422.94
38.99482,270.94,425.76
39.01435,278.59,427.25
39.03511,286.59,427.97
39.05513,293.75,432.55
39.07513,296.84,433.92
39.09497,303.80,437.45
39.11380,311.97,437.52
39.13583,317.49,439.68
39.15528,320.79,442.44
39.17427,327.68,444.54
39.19496,328.73,444.83
39.21424,335.24,448.10
39.23458,334.05,450.02
39.25537,334.98,451.45
39.27417,340.11,450.82
39.29418,339.95,452.99
39.31512,341.59,455.91
39.33365,343.37,454.36
39.35566,344.59,457.21
39.37531,345.78,458.71
39.39506,345.76,460.13
39.41419,348.11,459.40
39.43550,346.81,456.93
39.45452,349.44,456.24
39.47462,349.48,459.49
39.49577,350.98,457.75
39.51629,352.30,459.60
39.53576,352.47,459.97
39.55599,353.25,462.58
39.57543,351.22,460.58
39.59488,352.12,459.51
39.61535,353.06,462.28
39.63491,353.96,460.80
39.65595,354.31,463.35
39.67588,350.89,464.66
39.69497,354.21,465.23
39.71679,359.68,473.62
39.73514,378.29,479.40
39.75660,397.37,488.70
39.77493,421.21,498.01
39.79623,450.43,502.64
39.81527,474.01,507.75
39.83654,490.05,513.00
39.85659,497.68,511.58
39.87570,498.93,511.05
39.89515,489.95,504.69
39.91623,481.62,503.05
39.93583,471.52,499.87
39.95663,464.23,495.63
39.97626,450.79,491.78
39.99618,441.70,488.13
40.01598,433.06,485.43
40.03565,429.70,487.44
40.05664,424.58,484.93
40.07648,417.23,484.38
40.09553,412.68,477.92
40.11605,404.56,477.61
40.13653,398.82,473.82
40.15620,393.55,474.54
40.17531,389.77,472.47
40.19502,386.93,470.05
40.21623,383.85,469.36
40.23580,380.20,467.80
40.25537,375.82,466.45
40.27495,372.19,467.49
40.29605,369.37,466.45
40.31521,367.96,468.01
40.33469,367.36,466.32
40.35486,365.75,463.97
40.37489,363.66,463.45
40.39562,364.09,463.24
40.41554,360.49,463.85
40.43486,361.80,465.85
40.45641,360.33,463.74
40.47615,361.91,463.51
40.49662,361.83,461.98
40.51520,357.14,462.46
40.53647,358.24,464.40
40.55669,359.16,464.56
40.57584,359.92,464.46
40.59660,359.52,462.90
40.61574,357.96,461.85
40.63530,360.70,463.98
40.65516,356.33,464.89
40.67619,356.99,465.81
40.69595,359.71,464.64
40.71612,355.54,462.56
40.73639,357.75,464.75
40.75702,356.91,466.25
40.77621,357.19,463.30
40.79641,360.31,466.31
40.81715,360.18,466.31
40.83675,360.11,463.97
40.85645,362.96,463.90
40.87720,363.32,467.72
40.89750,363.93,466.11
40.91591,362.45,464.29
40.93825,362.77,466.38
40.95853,362.35,464.80
40.97754,361.13,464.59
40.99790,362.74,463.78
41.01768,361.12,464.63
41.03707,360.84,462.54
41.05759,362.46,465.87
41.07700,361.98,466.39
41.09733,363.69,465.71
41.11739,361.72,462.71
41.13899,364.34,464.49
41.15815,364.76,466.79
41.17969,365.83,467.65
41.19807,365.78,463.94
41.21967,364.07,463.74
41.23976,363.67,466.59
41.25976,363.11,464.88
41.27946,364.35,467.33
41.29847,362.74,467.06
41.31854,364.34,464.13
41.33932,367.36,467.45
41.35786,365.49,464.80
41.37855,369.06,465.93
41.39879,366.73,466.46
41.41885,367.44,466.26
41.43905,367.37,462.33
41.45884,364.17,462.13
41.47830,365.38,462.78
41.49884,367.09,463.60
41.51919,365.70,462.44
41.53960,363.42,462.88
41.55887,364.63,461.13
41.57779,364.47,464.64
41.59846,364.37,465.19
41.61887,365.00,462.21
41.63791,366.65,464.08
41.65909,364.39,465.88
41.67874,362.69,463.67
41.69898,363.72,463.78
41.71849,365.66,465.93
41.73946,364.11,463.58
41.75997,365.53,462.46
41.77878,364.65,463.10
41.79917,362.98,464.87
41.81980,364.78,464.78
41.84086,363.45,466.95
41.86142,364.83,464.12
41.88128,364.67,467.56
41.90112,365.18,466.98
41.92009,364.55,468.09
41.94018,361.59,467.26
41.96039,360.84,464.83
41.98069,360.54,466.52
42.00077,362.35,465.71
42.02023,362.74,466.53
42.04080,360.57,465.28
42.06007,359.36,463.71
42.08128,363.44,464.19
42.10098,359.51,464.20
42.12105,360.42,467.47
42.14131,362.61,466.36
42.16044,360.51,464.71
42.17995,365.10,464.64
42.19983,364.51,464.97
42.22133,361.32,463.19
42.24084,363.80,465.09
42.26139,361.06,463.66
42.28050,363.20,463.27
42.30157,364.54,461.51
42.32146,360.94,462.96
42.34069,364.98,464.13
42.36259,361.33,463.07
42.38179,362.05,463.64
42.40205,362.94,463.55
42.42177,361.92,465.59
42.44264,364.30,466.01
42.46195,362.98,464.09
42.48184,363.64,465.53
42.50055,359.73,463.99
42.52242,359.11,463.01
42.54065,358.18,462.41
42.56269,361.04,465.59
42.58242,360.83,462.96
42.60108,359.85,464.66
42.62107,347.26,465.34
42.64130,326.56,464.08
42.66256,305.42,466.86
42.68255,281.34,463.61
42.70156,261.71,458.19
42.72247,246.66,453.33
42.74096,237.12,446.51
42.76227,232.74,439.20
42.78121,230.25,433.65
42.80242,230.14,429.94
42.82258,234.78,422.60
42.84251,242.25,421.87
42.86083,248.38,418.81
42.88077,254.98,417.82
42.90105,262.17,419.59
42.92144,272.11,416.14
42.94254,280.72,421.14
42.96280,290.13,420.30
42.98156,297.27,423.23
43.00242,304.31,428.07
43.02164,311.60,433.34
43.04201,316.69,436.55
43.06158,321.70,437.85
43.08239,329.06,443.72
43.10214,331.50,446.32
43.12192,334.33,447.82
43.14161,339.71,449.99
43.16202,339.83,451.19
43.18340,342.89,452.65
43.20272,343.73,456.65
43.22345,347.99,454.62
43.24347,345.79,455.03
43.26363,349.73,458.16
43.28345,349.33,458.84
43.30446,349.44,458.48
43.32409,348.33,460.58
43.34448,351.62,460.11
43.36451,348.46,458.26
43.38396,348.70,461.79
43.40380,349.93,459.73
43.42506,350.28,459.80
43.44452,350.61,462.04
43.46408,352.31,462.05
43.48520,349.98,459.40
43.50400,350.87,459.27
43.52497,350.40,462.12
43.54388,349.95,459.78
43.56557,355.12,464.59
43.58474,365.97,477.15
43.60569,377.96,489.59
43.62547,399.13,505.18
43.64515,423.77,512.94
43.66373,444.25,521.96
43.68558,467.46,522.57
43.70409,489.20,519.32
43.72451,496.39,517.34
43.74471,495.73,510.46
43.76565,493.89,503.59
43.78474,486.78,498.44
43.80581,474.36,491.29
43.82527,462.77,487.86
43.84516,452.29,482.99
43.86560,441.09,478.33
43.88631,432.68,476.90
43.90507,420.47,471.61
43.92639,412.73,472.04
43.94547,406.98,470.97
43.96667,398.84,467.42
43.98473,389.35,468.77
44.00480,384.10,469.30
44.02576,378.23,465.24
44.04504,375.80,466.76
44.06531,372.63,462.85
44.08625,369.54,462.32
44.10466,367.26,462.51
44.12488,362.72,463.46
44.14534,360.27,462.69
44.16481,360.84,464.75
44.18496,360.20,460.40
44.20477,357.52,461.68
44.22583,356.53,460.41
44.24644,355.25,461.82
44.26596,355.57,461.52
44.28565,353.00,461.35
44.30526,352.69,462.05
44.32629,353.73,465.31
44.34645,349.82,463.57
44.36471,352.26,465.01
44.38573,351.66,462.91
44.40459,349.85,462.34
44.42486,352.59,462.68
44.44667,349.78,462.63
44.46503,349.59,463.56
44.48584,351.29,461.71
44.50636,348.45,460.48
44.52581,349.90,462.20
44.54524,348.04,460.21
44.56541,349.47,462.61
44.58600,350.65,461.17
44.60637,347.92,458.84
44.62583,348.65,459.85
44.64508,350.02,459.93
44.66598,349.51,462.38
44.68527,347.74,462.93
44.70599,350.42,462.19
44.72617,348.93,461.98
44.74541,348.24,461.65
44.76537,347.40,460.77
44.78563,347.78,462.12
44.80598,348.16,463.14
44.82577,347.16,460.66
44.84594,345.22,460.14
44.86513,348.44,462.27
44.88613,346.75,461.03
44.90542,348.77,460.60
44.92547,348.50,460.23
44.94577,348.30,463.12
44.96657,346.49,461.17
44.98523,350.54,460.76
45.00599,346.81,462.14
45.02520,348.21,461.00
45.04665,348.54,461.52
45.06558,350.58,463.08
45.08484,351.53,461.17
45.10644,350.25,460.72
45.12660,350.59,461.05
45.14634,348.41,461.25
45.16649,348.25,459.98
45.18567,349.75,460.51
45.20645,348.82,462.05
45.22656,348.77,461.35
45.24512,352.16,459.63
45.26562,351.60,461.07
45.28631,349.97,461.26
45.30630,349.85,459.92
45.32607,350.66,460.85
45.34563,351.80,458.56
45.36528,351.20,460.12
45.38550,350.97,461.46
45.40476,348.20,460.86
45.42562,348.56,461.67
45.44614,346.72,460.85
45.46508,347.97,462.00
45.48583,349.65,460.28
45.50645,348.98,462.29
45.52647,348.96,459.93
45.54621,348.42,461.53
45.56560,347.35,459.61
45.58583,350.99,460.68
45.60529,348.05,455.99
45.62580,350.72,456.53
45.64620,352.44,458.07
45.66621,350.23,459.41
45.68513,349.50,459.72
45.70599,350.14,458.42
45.72626,354.00,457.87
45.74543,355.73,458.86
45.76500,356.74,460.92
45.78499,356.68,463.79
45.80517,357.86,463.74
45.82610,355.87,462.47
45.84658,355.59,460.52
45.86545,356.84,460.70
45.88588,352.96,459.38
45.90570,355.48,461.66
45.92489,354.40,462.29
45.94498,352.48,462.98
45.96548,352.09,471.88
45.98503,353.58,484.32
46.00570,359.69,505.49
46.02613,368.16,533.14
46.04652,371.83,553.42
46.06585,376.84,562.60
46.08534,378.57,561.64
46.10509,378.77,549.28
46.12572,371.86,522.01
46.14604,363.67,486.56
46.16608,355.08,449.80
46.18762,346.51,423.17
46.20673,343.55,401.73
46.22571,338.07,388.38
46.24706,340.30,381.12
46.26716,338.13,379.87
46.28586,335.98,379.43
46.30728,337.22,379.54
46.32715,337.83,382.94
46.34692,339.10,388.22
46.36735,339.85,392.46
46.38775,340.72,398.23
46.40673,340.16,405.89
46.42661,343.04,414.05
46.44731,340.92,417.03
46.46806,345.55,424.43
46.48712,345.80,426.87
46.50823,344.94,431.71
46.52856,346.17,437.92
46.54748,343.22,449.31
46.56839,347.22,454.33
46.58711,350.89,456.08
46.60809,355.02,462.12
46.62692,355.64,469.41
46.64717,358.83,474.72
46.66788,361.42,485.31
46.68921,363.85,491.01
46.70911,371.67,507.34
46.72792,373.76,536.88
46.74778,385.25,564.17
46.76905,397.27,584.64
46.78848,402.20,595.89
46.80824,407.52,617.13
46.82841,409.99,632.32
46.84926,404.51,632.59
46.86752,403.65,637.32
46.88812,404.24,638.12
46.90878,396.77,631.09
46.92902,390.39,626.59
46.94825,384.07,621.69
46.96915,384.54,608.00
46.98889,375.21,594.34
47.00795,370.36,584.19
47.02937,370.37,573.97
47.04808,368.44,560.48
47.06824,369.12,549.05
47.08742,367.93,546.73
47.10765,367.13,546.11
47.12804,366.86,540.21
47.14783,368.09,535.74
47.16921,372.72,529.87
47.18950,372.53,522.11
47.20884,367.91,521.26
47.22849,371.42,516.36
47.24918,371.30,517.77
47.26958,364.60,517.18
47.28904,363.91,507.94
47.30920,368.62,504.23
47.32765,364.67,496.41
47.34894,361.32,489.31
47.36767,361.39,483.00
47.38923,362.48,475.94
47.40772,360.90,470.95
47.42800,357.03,466.15
47.44841,366.69,458.60
47.46916,364.51,463.00
47.48867,364.14,462.28
47.50899,366.50,454.54
47.52818,366.00,439.37
47.54948,361.84,427.88
47.56937,359.79,423.33
47.58837,357.99,413.10
47.60858,356.84,420.73
47.62811,355.44,425.38
47.64788,361.09,423.06
