Program Time [s],data 0,data 1
13.58779,382.53,527.98
13.60650,383.21,526.44
13.62738,384.54,521.03
13.64732,383.90,524.31
13.66659,392.70,524.34
13.68621,391.37,524.37
13.70689,388.35,520.93
13.72683,388.27,519.19
13.74776,387.51,518.40
13.76604,385.87,522.20
13.78663,385.70,519.73
13.80708,386.46,518.05
13.82750,386.14,521.52
13.84600,382.49,522.19
13.86741,381.38,524.58
13.88645,382.91,525.37
13.90691,381.15,527.36
13.92675,378.35,524.48
13.94612,379.55,524.47
13.96781,379.25,519.36
13.98693,382.47,519.41
14.00635,384.64,519.54
14.02707,383.53,516.97
14.04614,380.94,515.07
14.06807,383.84,515.98
14.08748,384.54,511.03
14.10653,382.78,509.94
14.12603,383.29,504.69
14.14668,384.95,503.39
14.16622,383.61,502.76
14.18694,384.41,502.42
14.20718,381.50,502.05
14.22764,382.35,501.62
14.24576,384.42,502.85
14.26640,382.92,498.83
14.28701,383.03,502.25
14.30746,383.27,502.18
14.32601,381.87,501.57
14.34760,381.62,501.54
14.36760,383.61,503.99
14.38701,381.43,503.79
14.40685,382.26,505.68
14.42688,378.14,506.33
14.44765,376.92,506.25
14.46596,377.82,506.87
14.48669,376.95,508.28
14.50748,378.96,508.67
14.52737,376.28,512.66
14.54722,379.00,510.25
14.56661,377.25,511.45
14.58656,377.97,511.82
14.60712,374.72,513.52
14.62656,376.85,514.05
14.64608,377.89,513.22
14.66671,377.20,513.02
14.68710,378.55,513.31
14.70784,379.20,510.41
14.72685,381.58,514.65
14.74686,381.40,514.26
14.76622,380.18,512.00
14.78701,382.08,512.93
14.80609,378.23,513.10
14.82694,377.80,511.50
14.84746,380.17,511.70
14.86758,379.33,512.89
14.88655,379.34,513.34
14.90645,379.80,513.09
14.92653,377.08,510.73
14.94596,379.41,510.17
14.96665,378.54,510.67
14.98676,378.86,510.78
15.00744,382.96,511.49
15.02746,382.40,511.31
15.04637,382.19,509.82
15.06687,381.43,510.11
15.08614,383.00,513.01
15.10636,380.88,516.04
15.12663,375.49,514.43
15.14668,360.49,515.09
15.16705,346.29,509.19
15.18729,327.72,505.62
15.20823,308.78,503.38
15.22801,298.09,500.20
15.24850,283.15,492.90
15.26747,277.40,486.39
15.28832,279.56,477.88
15.30884,277.45,469.95
15.32825,283.22,464.62
15.34740,287.33,461.93
15.36863,295.04,460.93
15.38755,305.05,463.99
15.40770,311.76,467.34
15.42792,318.90,468.16
15.44800,326.73,471.46
15.46801,332.46,476.38
15.48698,338.25,480.34
15.50761,341.05,485.70
15.52724,348.81,489.49
15.54717,353.18,491.79
15.56805,357.78,491.74
15.58820,357.62,497.11
15.60787,361.52,500.29
15.62864,365.73,500.32
15.64873,369.84,504.73
15.66822,372.08,505.83
15.68701,372.86,507.35
15.70845,374.07,505.03
15.72801,376.86,506.88
15.74789,376.46,510.21
15.76709,377.55,512.01
15.78727,381.20,510.69
15.80781,381.74,511.53
15.82801,382.23,512.75
15.84710,380.90,512.25
15.86823,380.79,514.47
15.88770,384.09,516.24
15.90874,384.34,514.38
15.92759,390.71,518.29
15.94718,406.20,528.72
15.96767,429.81,545.05
15.98781,459.22,558.61
16.00794,483.13,568.73
16.02804,509.03,575.20
16.04773,518.11,571.82
16.06887,522.81,571.91
16.08796,518.19,569.12
16.10800,511.40,564.26
16.12750,502.14,559.06
16.14725,489.84,552.72
16.16718,479.27,550.59
16.18684,467.60,547.20
16.20721,462.12,544.81
16.22798,453.14,541.36
16.24808,443.44,538.66
16.26844,436.96,532.90
16.28701,430.21,533.55
16.30750,422.71,529.41
16.32888,416.17,530.87
16.34945,412.44,525.53
16.36903,409.37,523.54
16.38835,408.07,524.59
16.41029,403.71,521.43
16.42948,402.61,519.50
16.44871,402.41,518.44
16.46929,398.59,520.76
16.48893,398.72,521.87
16.51007,397.59,517.52
16.53119,394.17,518.95
16.55124,396.73,518.45
16.57140,396.61,519.31
16.59253,396.41,520.10
16.61092,398.64,519.82
16.63070,397.52,520.45
16.65172,396.73,518.88
16.67156,396.66,520.75
16.69221,398.26,518.35
16.71335,399.22,519.77
16.73283,399.32,519.74
16.75191,401.06,520.39
16.77277,399.79,517.46
16.79244,401.35,517.89
16.81355,401.76,519.62
16.83309,401.02,517.34
16.85222,400.79,516.56
16.87303,402.35,516.02
16.89375,402.30,515.54
16.91288,401.22,519.24
16.93257,403.17,518.06
16.95224,402.06,516.04
16.97283,400.41,517.53
16.99366,403.12,518.22
17.01321,401.33,518.26
17.03407,400.53,518.90
17.05324,403.95,517.38
17.07320,406.14,517.33
17.09467,404.53,519.09
17.11267,405.00,518.94
17.13537,405.63,516.69
17.15542,406.93,518.24
17.17624,403.15,520.32
17.19464,402.39,517.90
17.21635,405.39,520.05
17.23626,404.81,517.96
17.25775,405.44,520.52
17.27706,403.47,521.56
17.29775,404.15,519.35
17.31705,405.42,521.42
17.33792,403.86,522.66
17.35856,402.87,523.40
17.37818,404.53,523.50
17.39798,404.43,521.55
17.41747,402.00,520.62
17.43883,404.10,520.60
17.45808,402.71,520.96
17.47796,399.95,519.12
17.49817,398.20,518.84
17.51792,401.29,522.35
17.53837,399.87,519.07
17.55748,400.62,518.52
17.57841,401.30,521.38
17.59773,400.10,519.73
17.61841,400.46,519.88
17.63787,401.62,519.57
17.65861,400.62,520.00
17.67768,400.42,521.41
17.69693,398.97,517.59
17.71800,400.49,520.63
17.73716,402.38,520.92
17.75800,402.96,519.55
17.77721,401.11,519.56
17.79733,401.66,516.62
17.81838,401.40,519.96
17.83860,401.30,516.94
17.85762,401.76,518.05
17.87816,402.01,518.94
17.89682,403.47,518.29
17.91862,399.91,516.28
17.93721,403.17,518.30
17.95713,400.90,520.10
17.97852,400.21,518.14
17.99677,396.61,519.41
18.01761,400.03,519.54
18.03811,399.23,517.51
18.05724,396.84,518.96
18.07801,399.90,516.70
18.09700,400.33,516.75
18.11828,400.13,514.47
18.13827,396.75,516.32
18.15729,399.16,515.44
18.17749,400.30,513.40
18.19755,402.29,514.17
18.21742,401.48,514.41
18.23729,398.79,514.42
18.25764,388.17,513.80
18.27898,372.90,512.22
18.29769,351.78,508.23
18.31788,332.87,507.01
18.33739,318.46,499.50
18.35786,305.47,495.65
18.37878,294.87,485.76
18.39720,287.77,480.73
18.41832,283.26,473.49
18.43876,285.74,470.74
18.45707,288.98,470.17
18.47771,294.51,472.69
18.49873,303.30,473.97
18.51756,311.11,474.67
18.53724,321.25,477.40
18.55690,327.92,480.28
18.57695,336.15,482.11
18.59692,343.07,487.61
18.61810,352.54,492.67
18.63833,356.68,492.81
18.65715,361.81,497.52
18.67982,368.52,502.65
18.70062,372.88,503.22
18.71882,373.23,506.36
18.74024,376.45,505.95
18.75911,377.22,509.65
18.77927,381.13,509.48
18.80034,382.52,510.20
18.81921,379.96,512.35
18.84038,380.90,514.36
18.85996,384.92,511.59
18.87986,384.95,514.75
18.90137,385.60,516.01
18.92007,386.30,514.16
18.94131,389.28,517.66
18.96019,386.65,515.37
18.98245,388.05,515.53
19.00069,385.06,515.54
19.02106,387.01,515.99
19.04075,385.75,518.37
19.06200,384.53,518.26
19.08091,385.60,518.91
19.10261,385.16,517.67
19.12326,394.62,522.21
19.14493,415.41,531.29
19.16403,438.72,546.49
19.18401,465.30,556.97
19.20505,491.69,566.53
19.22430,508.66,570.83
19.24639,513.66,569.78
19.26581,515.95,569.25
19.28543,509.29,565.09
19.30578,501.13,558.66
19.32608,492.12,552.56
19.34629,482.03,551.26
19.36633,473.63,543.54
19.38627,463.87,541.07
19.40463,454.68,536.27
19.42664,445.50,534.06
19.44674,436.39,531.01
19.46740,431.81,527.94
19.48839,423.79,527.40
19.50685,417.41,526.81
19.52718,413.55,524.48
19.54795,410.17,523.77
19.56744,404.87,522.51
19.58850,403.55,521.41
19.60850,399.18,520.44
19.62861,397.66,521.46
19.64770,397.37,516.99
19.66842,395.57,518.86
19.68701,394.59,516.56
19.70672,392.65,515.72
19.72710,390.54,519.19
19.74948,390.25,517.68
19.76919,389.73,517.71
19.78966,390.53,517.61
19.80944,388.96,517.61
19.82871,388.37,516.80
19.84762,388.78,514.92
19.86817,389.76,516.56
19.88786,388.62,516.15
19.90879,388.99,514.99
19.93003,389.32,515.20
19.94963,391.25,513.68
19.96950,390.80,516.84
19.98860,390.59,514.08
20.01042,389.77,515.63
20.02872,390.47,517.30
20.04872,390.91,516.79
20.06984,391.09,514.42
20.08992,389.56,514.36
20.11158,388.78,516.05
20.13151,392.25,518.31
20.15250,391.72,517.65
20.17345,397.60,515.20
20.19311,395.27,515.59
20.21433,396.14,516.71
20.23274,398.28,516.77
20.25457,401.43,517.41
20.27376,401.48,514.96
20.29424,402.75,516.22
20.31350,401.24,517.41
20.33416,402.39,516.76
20.35374,404.17,518.32
20.37493,400.72,516.71
20.39567,401.99,514.70
20.41678,401.95,517.55
20.43737,400.18,518.79
20.45799,398.27,515.58
20.47853,396.41,516.32
20.49977,396.80,518.32
20.52051,394.11,518.26
20.54079,393.47,518.17
20.56120,391.72,517.96
20.58175,389.89,516.47
20.60047,388.95,517.25
20.62045,388.35,515.66
20.64187,388.74,514.98
20.66232,387.02,519.04
20.68253,386.90,518.04
20.70094,386.18,519.59
20.72243,387.69,516.65
20.74255,384.80,519.17
20.76107,385.43,518.67
20.78056,386.75,518.21
20.80176,385.54,519.09
20.82270,384.47,516.56
20.84231,385.32,518.55
20.86098,383.55,520.44
20.88096,383.46,519.87
20.90241,384.81,518.55
20.92134,385.07,517.49
20.94157,384.89,515.23
20.96104,385.86,514.35
20.98112,383.17,515.37
21.00270,383.89,514.86
21.02168,383.42,514.07
21.04410,384.59,514.70
21.06449,384.29,514.78
21.08447,382.40,513.42
21.10474,383.19,511.72
21.12360,382.66,513.52
21.14508,381.68,515.36
21.16487,381.71,514.20
21.18474,381.53,511.49
21.20388,382.83,511.95
21.22479,383.48,514.93
21.24383,380.49,513.26
21.26511,379.36,512.55
21.28446,379.79,513.85
21.30480,380.79,513.34
21.32519,380.15,513.22
21.34499,381.22,515.78
21.36462,382.71,516.31
21.38366,383.22,517.23
21.40542,383.68,514.79
21.42376,380.97,515.19
21.44430,382.42,515.14
21.46478,382.66,513.59
21.48559,381.59,516.51
21.50613,378.74,514.65
21.52658,367.69,511.58
21.54722,350.45,500.68
21.56597,333.15,490.60
21.58683,315.74,482.18
21.60584,302.95,472.12
21.62713,286.69,464.32
21.64575,279.49,460.30
21.66657,273.37,460.78
21.68689,272.31,458.68
21.70741,275.61,460.75
21.72930,280.11,467.81
21.74930,283.94,472.99
21.77018,291.05,474.36
21.78982,301.76,481.59
21.80991,309.09,485.27
21.83105,319.90,489.87
21.85111,325.41,492.21
21.87209,336.11,494.21
21.89143,343.16,497.54
21.91232,350.76,498.13
21.93107,356.36,502.03
21.95106,363.50,502.54
21.97231,368.05,504.87
21.99089,372.88,508.07
22.01076,375.43,508.91
22.03211,378.20,513.33
22.05304,383.05,512.42
22.07328,384.37,515.55
22.09526,387.61,515.81
22.11436,388.58,512.26
22.13545,388.44,515.43
22.15531,390.94,515.04
22.17392,394.65,514.82
22.19487,394.81,514.77
22.21587,394.99,516.67
22.23518,398.40,515.50
22.25520,396.05,519.94
22.27615,396.30,520.04
22.29575,397.06,521.61
22.31543,398.00,519.65
22.33699,399.10,518.68
22.35641,401.02,518.36
22.37648,400.90,519.08
22.39709,401.33,517.46
22.41582,399.65,517.71
22.43702,399.59,520.05
22.45662,400.10,522.03
22.47742,400.40,518.01
22.49611,401.99,519.62
22.51586,399.80,521.27
22.53752,404.25,519.92
22.55762,418.63,524.63
22.57737,439.92,535.27
22.59636,466.93,541.69
22.61624,496.55,547.50
22.63758,516.70,551.91
22.65679,528.13,550.79
22.67753,529.01,549.60
22.69768,524.06,545.39
22.71853,515.83,545.76
22.73834,506.56,541.55
22.75842,498.17,538.28
22.77798,484.83,534.22
22.79801,476.89,532.29
22.81953,468.03,531.60
22.83800,457.80,529.96
22.85924,453.86,526.55
22.87799,446.15,526.50
22.89851,436.14,525.67
22.91876,432.22,522.53
22.93928,428.07,522.32
22.95793,422.34,522.05
22.97785,418.53,523.62
22.99841,415.49,522.40
23.01833,410.65,522.86
23.03885,407.75,520.76
23.05861,406.87,521.84
23.07860,401.93,522.35
23.09926,403.39,520.47
23.11908,403.17,522.08
23.13965,401.40,520.44
23.15790,397.60,519.78
23.17775,396.92,520.96
23.19771,396.47,519.94
23.21797,396.01,520.12
23.23957,396.32,517.46
23.25915,393.95,518.31
23.27889,395.25,516.86
23.29908,393.58,518.37
23.31847,393.80,518.53
23.33956,392.94,516.68
23.35845,392.77,518.76
23.37869,391.54,516.66
23.39880,398.56,522.84
23.41786,406.33,526.97
23.43887,407.52,527.97
23.45803,408.59,527.79
23.47766,410.37,528.37
23.49887,410.42,527.25
23.51953,407.72,528.79
23.53781,410.74,526.34
23.55822,407.63,527.55
23.57906,408.20,524.48
23.59924,405.68,522.80
23.61957,401.50,525.42
23.63902,402.77,524.99
23.65951,399.99,526.20
23.67808,398.72,523.61
23.69761,398.38,519.33
23.71770,399.85,520.42
23.73874,397.12,519.03
23.75815,397.16,518.68
23.77875,398.12,518.26
23.79906,397.37,516.63
23.81816,395.07,516.82
23.83903,395.67,517.16
23.85806,396.27,515.33
23.87957,394.86,517.37
23.90048,392.39,515.01
23.92042,392.74,515.01
23.94258,391.75,515.79
23.96305,389.18,513.90
23.98359,387.86,517.14
24.00294,385.54,514.45
24.02319,386.08,516.67
24.04226,382.60,515.65
24.06235,385.04,515.46
24.08301,383.05,516.29
24.10398,384.05,515.71
24.12307,381.29,515.03
24.14372,381.87,514.97
24.16439,379.80,516.68
24.18359,381.46,514.49
24.20276,383.06,517.27
24.22388,383.91,515.64
24.24308,382.52,517.20
24.26301,384.19,517.32
24.28309,381.08,514.95
24.30328,383.02,517.21
24.32363,381.74,514.07
24.34608,383.37,516.81
24.36558,381.25,513.90
24.38483,381.58,515.12
24.40617,382.69,514.13
24.42561,380.96,513.56
24.44762,384.56,516.65
24.46676,385.80,515.84
24.48706,385.97,514.72
24.50584,384.10,513.15
24.52600,383.67,515.52
24.54684,383.64,513.14
24.56756,385.54,514.28
24.58651,385.47,514.43
24.60800,385.11,511.84
24.62695,384.18,512.51
24.64769,386.35,512.46
24.66736,387.48,514.93
24.68690,385.93,512.55
24.70777,387.01,513.32
24.72793,386.64,512.05
24.74766,388.02,514.83
24.76712,387.52,513.24
24.78811,390.11,512.39
24.80778,388.81,509.89
24.82937,390.44,512.52
24.84857,392.01,511.43
24.86895,390.05,510.55
24.88913,392.71,509.59
24.90902,393.11,509.97
24.93085,394.75,509.60
24.95131,392.96,512.68
24.97090,389.05,511.96
24.99061,375.93,514.24
25.00970,358.40,514.21
25.03211,341.51,514.57
25.05206,320.66,508.59
25.07243,307.61,498.57
25.09217,295.33,494.26
25.11225,289.60,486.18
25.13248,285.25,482.48
25.15336,284.08,475.75
25.17450,287.86,473.98
25.19605,292.62,474.66
25.21552,297.45,477.90
25.23599,300.83,481.24
25.25627,308.30,482.12
25.27838,319.36,488.64
25.29816,323.45,489.88
25.31828,334.42,492.58
25.33844,341.51,494.15
25.35925,349.21,495.58
25.37843,353.08,498.85
25.39929,359.20,499.69
25.41913,363.21,503.98
25.43918,365.70,503.85
25.45811,370.46,505.79
25.47863,373.86,507.10
25.49781,375.29,506.03
25.51909,378.76,507.82
25.53849,380.75,509.37
25.55917,382.26,508.32
25.57760,384.44,508.06
25.59759,385.64,510.71
25.61927,387.95,512.43
25.63819,388.10,508.94
25.65845,389.26,511.09
25.67985,390.28,512.41
25.69964,391.29,512.93
25.71985,389.21,511.68
25.73970,399.33,515.82
25.75937,416.52,520.43
25.78009,443.50,525.57
25.80251,469.13,524.64
25.82133,492.63,528.12
25.84184,515.49,527.01
25.86220,528.34,526.46
25.88195,531.28,524.66
25.90201,526.12,523.79
25.92170,523.01,520.62
25.94226,509.85,522.21
25.96084,501.30,518.30
25.98188,489.27,520.14
26.00110,477.31,520.63
26.02310,467.65,518.49
26.04331,459.87,520.47
26.06533,452.44,525.18
26.08378,441.36,524.74
26.10505,436.48,529.77
26.12376,427.17,528.99
26.14494,421.71,526.90
26.16379,417.89,527.07
26.18423,410.91,523.81
26.20426,407.25,524.90
26.22526,403.60,524.53
26.24484,400.06,520.29
26.26417,395.00,520.65
26.28516,394.00,518.35
26.30458,393.00,516.93
26.32476,392.29,519.28
26.34489,387.70,513.99
26.36401,386.15,513.67
26.38543,385.50,513.85
26.40400,384.55,515.03
26.42385,382.87,514.07
26.44439,381.55,511.33
26.46532,382.16,511.60
26.48549,378.47,512.03
26.50549,378.78,510.27
26.52439,381.89,513.56
26.54534,381.18,514.02
26.56495,380.94,513.86
26.58519,380.22,512.94
26.60652,382.32,514.41
26.62479,381.49,512.98
26.64551,382.38,514.10
26.66474,382.69,514.15
26.68598,381.97,512.89
26.70699,382.49,513.28
26.72776,382.62,512.17
26.74807,383.67,511.34
26.76670,384.32,513.23
26.78729,385.65,511.79
26.80765,387.04,513.27
26.82940,388.38,513.86
26.84912,387.69,515.25
26.86989,388.63,513.71
26.89099,390.43,513.35
26.91122,392.15,512.90
26.93077,395.70,513.13
26.95027,394.14,514.08
26.96994,395.84,514.83
26.99101,398.07,513.72
27.01043,395.96,515.13
27.03101,396.57,513.38
27.05085,397.47,515.12
27.07090,395.83,514.85
27.09081,395.19,513.42
27.11044,397.71,516.51
27.13108,396.53,514.09
27.15019,397.38,516.60
27.17038,396.61,515.46
27.19092,397.11,517.92
27.21356,398.08,519.52
27.23288,396.79,519.22
27.25306,400.14,516.92
27.27269,399.19,516.43
27.29325,398.93,517.70
27.31256,398.36,518.34
27.33251,398.89,518.79
27.35281,402.62,515.89
27.37320,401.49,517.71
27.39411,402.17,515.87
27.41318,400.70,515.56
27.43433,401.28,514.06
27.45398,402.95,517.94
27.47313,401.88,514.21
27.49330,402.52,515.54
27.51350,400.06,515.35
27.53429,399.23,514.07
27.55433,402.77,516.08
27.57425,400.60,517.07
27.59475,400.74,515.96
27.61454,402.09,517.90
27.63558,403.67,516.24
27.65389,404.90,517.32
27.67363,401.49,514.04
27.69516,401.13,515.00
27.71423,400.85,516.59
27.73467,399.25,514.96
27.75400,398.98,516.33
27.77491,402.06,517.32
27.79414,400.43,516.62
27.81413,400.17,516.87
27.83453,404.54,517.44
27.85374,403.57,517.67
27.87455,403.80,520.34
27.89472,402.15,519.56
27.91496,402.34,517.12
27.93509,403.69,516.94
27.95502,402.05,516.43
27.97365,404.71,516.93
27.99350,401.77,516.50
28.01514,401.95,519.13
28.03514,390.73,523.24
28.05472,372.65,529.68
28.07394,351.27,538.76
28.09440,332.07,540.41
28.11516,311.72,535.15
28.13439,296.24,530.07
28.15530,286.03,517.73
28.17421,281.38,507.07
28.19389,278.44,501.64
28.21345,278.21,495.49
28.23412,279.94,490.98
28.25412,284.54,483.88
28.27548,289.91,484.20
28.29464,298.36,482.67
28.31367,307.01,481.35
28.33343,316.21,483.30
28.35536,321.72,484.55
28.37489,328.42,489.02
28.39402,337.46,491.39
28.41372,342.25,495.66
28.43456,350.59,497.84
28.45354,358.44,501.01
28.47451,363.95,500.29
28.49363,367.34,502.07
28.51513,371.53,505.30
28.53516,375.58,505.89
28.55502,378.72,506.17
28.57413,382.47,511.23
28.59413,384.73,509.70
28.61403,386.06,509.78
28.63377,387.32,511.99
28.65470,390.38,512.82
28.67384,391.79,514.26
28.69377,393.28,511.59
28.71486,393.91,514.46
28.73397,397.12,513.15
28.75473,395.21,514.40
28.77391,397.91,515.68
28.79420,398.17,513.27
28.81381,405.27,517.15
28.83512,422.63,515.36
28.85442,446.72,515.71
28.87535,472.43,520.96
28.89419,498.21,524.32
28.91379,523.06,529.11
28.93418,540.63,533.26
28.95482,548.31,536.85
28.97492,550.68,535.94
28.99365,545.90,537.41
29.01399,537.65,532.72
29.03461,526.06,533.97
29.05487,516.10,529.19
29.07442,503.00,531.84
29.09486,493.49,532.60
29.11503,485.51,532.91
29.13392,477.81,532.85
29.15448,467.91,534.61
29.17466,458.90,533.24
29.19428,454.45,531.62
29.21372,447.46,527.75
29.23635,443.18,530.78
29.25509,436.48,529.15
29.27495,433.36,526.46
29.29738,427.68,527.23
29.31573,425.96,525.89
29.33718,420.12,528.91
29.35712,416.27,524.83
29.37738,413.95,525.37
29.39868,412.97,524.93
29.41767,411.69,523.74
29.43819,406.34,524.28
29.45751,404.22,522.52
29.47748,403.65,520.57
29.49821,404.90,522.73
29.51926,401.65,520.41
29.53774,404.07,518.43
29.55918,401.77,517.26
29.57860,400.68,519.10
29.59812,401.15,516.91
29.61789,398.04,518.55
29.63836,399.94,515.52
29.65858,400.92,517.19
29.67919,400.30,516.16
29.69818,399.22,514.62
29.71884,399.65,514.95
29.73776,395.52,516.75
29.75938,397.61,516.39
29.77802,396.90,516.64
29.79769,396.52,514.26
29.81931,396.81,515.64
29.83979,394.41,517.38
29.85909,397.10,517.66
29.87868,394.57,517.28
29.90037,394.88,518.93
29.92028,394.85,516.61
29.93947,394.96,516.70
29.96027,393.69,515.70
29.98131,394.11,516.10
30.00087,391.42,516.37
30.02249,393.58,515.88
30.04281,387.55,516.60
30.06413,387.91,516.65
30.08345,384.82,514.44
30.10441,384.66,516.47
30.12525,383.63,515.45
30.14521,383.51,519.02
30.16497,382.20,517.90
30.18468,383.16,519.72
30.20537,380.11,517.39
30.22511,382.20,515.18
30.24489,383.45,518.55
30.26423,380.02,516.57
30.28460,382.45,516.34
30.30436,379.46,516.91
30.32419,380.35,515.42
30.34451,381.13,514.02
30.36439,380.96,517.41
30.38413,379.16,513.89
30.40459,380.36,517.24
30.42403,378.41,517.03
30.44370,379.69,515.97
30.46498,381.53,515.89
30.48527,379.14,515.65
30.50471,380.48,518.04
30.52566,380.73,516.30
30.54448,381.58,517.60
30.56521,380.23,516.30
30.58547,379.16,515.46
30.60428,381.40,515.34
30.62395,381.15,515.53
30.64365,381.06,515.01
30.66398,380.34,516.39
30.68538,379.43,515.64
30.70510,377.37,515.72
30.72547,378.22,514.80
30.74459,380.63,514.37
30.76592,381.75,516.20
30.78563,380.41,517.46
30.80625,380.75,516.49
30.82492,382.37,515.14
30.84531,382.51,517.64
30.86507,379.58,515.03
30.88705,377.97,514.67
30.90644,380.81,516.99
30.92791,383.13,513.64
30.94655,380.21,513.80
30.96689,380.16,513.39
30.98817,381.30,514.35
31.00642,381.02,516.46
31.02770,380.58,517.02
31.04637,381.49,515.75
31.06725,383.31,517.31
31.08867,382.50,519.22
31.10941,382.63,517.49
31.12741,380.00,520.63
31.14841,383.25,519.74
31.16731,381.56,518.36
31.18859,384.76,517.68
31.20916,384.59,519.27
31.22763,386.32,518.28
31.24825,386.78,517.77
31.26792,386.08,516.57
31.28876,387.55,515.02
31.30848,387.60,515.56
31.32759,388.07,517.06
31.34786,385.94,515.82
31.36770,386.84,516.06
31.38914,386.12,512.80
31.40829,388.80,512.38
31.42915,387.78,515.99
31.44929,386.62,513.14
31.46815,383.80,513.57
31.48789,387.38,512.60
31.50805,384.87,514.07
31.52866,384.32,513.51
31.54787,386.47,510.62
31.56856,385.85,512.39
31.58917,387.46,511.99
31.60835,384.19,510.28
31.62803,384.95,511.34
31.64741,385.77,511.04
31.66890,386.25,514.09
31.69043,384.72,512.91
31.70875,384.59,510.89
31.72899,388.01,514.12
31.74861,387.90,511.62
31.77040,384.90,511.29
31.78935,386.10,512.21
31.80890,381.69,513.67
31.82999,367.00,513.28
31.84886,350.15,508.62
31.87019,326.08,507.02
31.89015,308.25,503.86
31.90941,293.40,498.52
31.92901,279.88,495.32
31.95009,269.75,489.23
31.97033,266.64,488.18
31.98978,263.73,485.54
32.01069,268.63,488.72
32.03027,269.99,487.70
32.04998,278.36,486.36
32.07010,285.31,489.49
32.08996,291.04,490.15
32.11099,302.35,492.15
32.13092,309.99,495.46
32.14998,316.91,495.18
32.17194,325.17,496.99
32.19155,334.13,499.27
32.21032,340.25,503.34
32.23164,347.68,505.35
32.25185,351.07,504.99
32.27217,354.16,509.79
32.29118,361.02,508.33
32.31103,362.49,508.88
32.33142,369.79,509.07
32.35080,372.79,511.82
32.37274,373.01,510.42
32.39162,376.46,513.45
32.41235,379.90,511.01
32.43270,381.46,510.03
32.45317,386.63,514.22
32.47137,385.48,511.66
32.49320,385.59,510.86
32.51252,388.10,511.72
32.53300,392.15,512.47
32.55270,390.92,512.90
32.57364,401.94,516.07
32.59346,416.88,516.48
32.61437,442.20,521.89
32.63324,470.50,520.50
32.65247,496.42,522.78
32.67402,521.99,528.75
32.69308,534.34,534.85
32.71232,539.68,535.74
32.73384,536.58,534.98
32.75383,533.26,534.48
32.77339,523.73,530.42
32.79280,511.91,528.78
32.81353,503.87,529.25
32.83283,496.19,532.15
32.85351,490.13,532.50
32.87347,479.17,536.21
32.89344,471.72,534.86
32.91338,464.72,533.96
32.93382,455.97,530.84
32.95371,448.43,530.96
32.97339,442.09,527.46
32.99258,437.34,525.51
33.01340,431.84,524.89
33.03303,425.26,524.03
33.05279,422.50,521.73
33.07368,416.98,520.26
33.09447,416.52,520.32
33.11334,414.17,519.05
33.13359,412.25,518.66
33.15408,407.50,518.75
33.17408,405.77,520.60
33.19295,405.42,519.86
33.21301,404.08,517.13
33.23430,399.74,519.23
33.25303,398.61,516.10
33.27438,397.43,516.26
33.29274,397.68,517.48
33.31417,395.39,518.65
33.33325,396.98,517.73
33.35257,397.22,514.23
33.37263,394.57,516.56
33.39335,392.23,516.24
33.41363,393.72,516.27
33.43348,394.45,515.04
33.45269,396.32,515.36
33.47435,396.09,516.10
33.49438,396.75,518.70
33.51287,395.78,518.51
33.53268,398.98,517.41
33.55280,398.43,518.14
33.57431,395.25,517.79
33.59344,395.04,516.33
33.61293,396.37,516.95
33.63315,393.71,518.59
33.65343,397.02,518.20
33.67321,396.70,514.22
33.69340,397.85,514.72
33.71278,397.14,515.71
33.73310,395.83,514.56
33.75317,395.58,515.21
33.77391,394.39,515.88
33.79373,396.42,516.50
33.81334,393.38,515.67
33.83353,394.97,517.87
33.85298,397.56,516.88
33.87289,396.57,517.01
33.89371,396.82,517.44
33.91407,397.55,514.62
33.93246,394.78,514.87
33.95358,396.63,516.14
33.97232,396.42,515.38
33.99257,395.29,513.14
34.01353,395.86,512.69
34.03282,392.87,512.83
34.05269,394.42,515.06
34.07301,396.00,515.33
34.09253,396.27,515.38
34.11423,395.38,512.47
34.13261,396.01,514.24
34.15423,398.02,515.02
34.17305,395.47,512.30
34.19321,394.76,514.40
34.21301,397.63,513.65
34.23251,395.56,514.92
34.25370,398.41,514.33
34.27360,397.51,516.23
34.29328,394.52,516.22
34.31248,396.03,513.78
34.33254,395.48,517.20
34.35289,397.12,514.66
34.37267,395.16,516.15
34.39342,395.10,516.42
34.41436,392.45,517.26
34.43348,394.54,514.46
34.45263,393.46,513.61
34.47297,396.17,513.86
34.49386,393.47,512.55
34.51288,392.88,515.48
34.53365,395.14,514.52
34.55269,394.64,514.53
34.57239,393.22,515.63
34.59262,393.03,515.65
34.61320,392.00,513.70
34.63323,392.90,515.30
34.65302,395.86,512.43
34.67386,395.07,513.52
34.69449,395.24,516.16
34.71330,396.32,513.78
34.73369,393.87,513.95
34.75258,396.86,514.92
34.77305,394.68,516.18
34.79399,397.67,513.85
34.81296,398.57,514.51
34.83409,396.03,515.59
34.85254,395.47,515.83
34.87333,392.59,514.80
34.89436,393.14,515.07
34.91382,391.67,513.28
34.93351,393.08,511.65
34.95409,393.76,515.48
34.97242,392.93,516.02
34.99373,393.47,513.49
35.01282,392.34,513.40
35.03332,390.64,514.87
35.05306,392.03,514.81
35.07283,393.82,514.96
35.09245,391.53,516.12
35.11344,392.52,515.66
35.13278,394.35,517.75
35.15275,394.55,518.07
35.17422,394.39,519.20
35.19388,394.58,516.51
35.21317,396.78,515.16
35.23261,396.35,514.49
35.25311,396.06,514.12
35.27261,394.23,517.50
35.29366,391.91,515.85
35.31397,392.44,514.55
35.33428,394.21,514.88
35.35253,392.99,514.79
35.37380,395.01,515.54
35.39395,394.71,515.35
35.41242,394.89,513.29
35.43322,394.66,513.20
35.45368,398.06,513.44
35.47269,395.13,513.63
35.49341,396.77,513.78
35.51398,396.45,512.63
35.53340,396.15,513.83
35.55420,393.94,513.25
35.57541,383.15,518.11
35.59383,367.42,523.34
35.61347,348.05,528.26
35.63333,330.54,525.87
35.65412,313.22,521.75
35.67453,298.66,513.39
35.69440,286.43,503.12
35.71465,280.92,492.55
35.73491,277.57,484.26
35.75535,277.23,477.65
35.77398,276.90,472.30
35.79440,283.08,471.91
35.81486,285.45,472.09
35.83483,292.80,471.41
35.85482,300.68,469.19
35.87528,308.11,470.46
35.89458,318.02,472.74
35.91428,326.43,475.14
35.93394,330.92,477.90
35.95487,338.57,480.19
35.97449,346.09,487.21
35.99430,354.04,488.05
36.01524,358.93,492.96
36.03356,365.40,492.57
36.05344,367.99,496.14
36.07517,373.60,496.79
36.09434,376.76,501.42
36.11509,377.65,503.39
36.13449,382.87,504.10
36.15490,384.10,506.96
36.17546,383.91,507.46
36.19347,388.83,509.45
36.21427,387.25,510.83
36.23354,389.46,508.25
36.25448,391.23,509.88
36.27484,394.72,512.97
36.29411,394.35,513.92
36.31528,393.50,513.64
36.33462,395.97,512.11
36.35469,395.71,514.32
36.37417,397.70,516.54
36.39357,393.76,515.18
36.41387,395.16,514.20
36.43493,397.92,512.47
36.45363,397.61,512.81
36.47389,399.04,514.78
36.49375,399.16,512.35
36.51349,405.23,515.63
36.53466,419.82,516.94
36.55486,437.56,514.80
36.57359,457.02,510.34
36.59345,476.76,515.85
36.61510,497.71,523.65
36.63518,518.40,531.26
36.65356,535.08,539.38
36.67433,544.96,543.39
36.69419,545.90,547.06
36.71368,539.18,544.59
36.73464,531.55,543.91
36.75458,522.29,540.57
36.77438,508.96,536.81
36.79592,496.50,536.29
36.81434,485.19,534.95
36.83543,474.55,530.80
36.85529,463.65,528.09
36.87471,455.31,528.18
36.89463,445.52,527.36
36.91437,440.70,529.28
36.93515,432.55,525.82
36.95553,429.65,526.56
36.97445,423.71,523.70
36.99521,417.18,524.90
37.01517,416.22,524.82
37.03498,415.50,524.75
37.05542,412.73,522.17
37.07601,411.87,522.10
37.09460,409.47,523.03
37.11531,408.89,523.23
37.13472,407.13,519.40
37.15569,406.88,519.95
37.17521,404.11,520.18
37.19463,404.47,521.56
37.21541,401.06,518.34
37.23422,403.02,519.29
37.25530,401.26,518.09
37.27475,401.39,516.98
37.29539,398.73,516.99
37.31440,400.22,515.02
37.33501,398.97,517.36
37.35613,402.21,514.16
37.37584,400.42,515.14
37.39544,400.88,514.34
37.41440,398.40,512.65
37.43533,398.32,512.25
37.45507,399.45,513.17
37.47464,400.56,514.76
37.49529,397.14,515.12
37.51523,397.36,517.01
37.53609,396.89,517.81
37.55432,396.90,519.07
37.57448,399.06,519.21
37.59526,396.66,518.34
37.61573,396.89,519.71
37.63545,396.40,516.64
37.65589,396.07,516.28
37.67725,397.99,516.15
37.69572,397.95,518.33
37.71618,397.49,516.32
37.73657,398.44,517.30
37.75698,396.79,518.45
37.77722,396.97,516.50
37.79633,395.95,516.19
37.81691,397.78,517.28
37.83695,396.12,515.41
37.85632,394.88,514.24
37.87645,395.72,514.78
37.89659,397.55,513.30
37.91569,397.27,514.83
37.93536,401.08,516.33
37.95676,400.33,515.48
37.97586,399.00,515.93
37.99639,399.30,515.00
38.01723,400.64,513.07
38.03550,397.81,517.02
38.05619,397.39,517.13
38.07564,399.64,513.99
38.09692,397.92,516.95
38.11682,394.20,517.05
38.13704,397.81,516.06
38.15702,395.58,514.35
38.17543,397.29,512.71
38.19603,396.51,514.06
38.21681,396.57,514.27
38.23655,398.25,514.54
38.25715,399.07,516.62
38.27676,396.69,517.21
38.29559,397.17,516.43
38.31638,399.34,516.98
38.33704,399.53,515.93
38.35566,402.19,516.36
38.37609,402.17,515.63
38.39658,402.15,513.94
38.41591,401.22,515.11
38.43698,401.58,515.80
38.45702,400.48,516.42
38.47666,399.47,516.81
38.49611,401.90,516.46
38.51583,401.40,515.61
38.53728,400.43,516.46
38.55543,403.64,512.34
38.57627,400.20,514.99
38.59688,403.31,514.26
38.61564,400.14,516.12
38.63715,402.38,514.12
38.65724,399.39,515.84
38.67527,400.78,514.27
38.69699,402.59,514.76
38.71611,400.69,519.02
38.73689,402.81,518.61
38.75698,402.75,516.20
38.77652,401.12,519.51
38.79575,397.92,517.47
38.81662,400.71,519.90
38.83694,399.41,519.28
38.85534,402.99,516.74
38.87561,399.93,517.19
38.89545,401.59,516.15
38.91601,401.27,516.33
38.93580,400.80,515.65
38.95607,399.68,517.23
38.97732,399.46,516.92
38.99567,400.63,514.63
39.01631,399.54,513.70
39.03646,402.77,513.80
39.05702,401.46,513.28
39.07698,402.27,516.71
39.09679,401.29,514.44
39.11548,400.92,513.16
39.13654,400.79,513.60
39.15629,401.81,513.19
39.17619,400.87,513.70
39.19627,400.97,516.41
39.21574,400.14,516.11
39.23593,398.32,514.54
39.25577,398.64,517.77
39.27702,398.03,516.21
39.29649,394.37,515.04
39.31680,382.84,512.40
39.33560,364.20,511.23
39.35643,345.10,509.31
39.37553,323.04,509.06
39.39625,304.30,508.86
39.41693,286.55,507.92
39.43538,277.06,508.00
39.45602,270.95,504.25
39.47550,266.98,499.20
39.49699,269.00,495.32
39.51708,274.22,494.17
39.53603,281.72,487.94
39.55685,286.45,487.45
39.57554,295.70,483.26
39.59668,305.26,483.15
39.61510,314.93,484.78
39.63694,322.87,488.13
39.65698,331.58,488.88
39.67765,339.96,492.08
39.69642,349.27,494.65
39.71671,354.55,497.84
39.73770,362.68,500.16
39.75671,367.12,503.96
39.77676,372.26,504.50
39.79775,374.08,504.46
39.81728,376.51,504.51
39.83775,381.34,507.14
39.85702,384.01,505.62
39.87671,389.16,506.68
39.89783,389.66,509.00
39.91701,391.74,507.41
39.93660,390.45,507.34
39.95760,393.05,510.31
39.97781,395.58,510.74
39.99624,396.87,512.25
40.01721,405.46,514.60
40.03653,417.96,517.19
40.05693,428.59,519.77
40.07826,445.34,523.47
40.09771,465.55,522.47
40.11645,490.28,527.08
40.13720,511.48,527.52
40.15787,528.99,528.67
40.17797,539.19,531.10
40.19764,542.29,528.77
40.21790,537.26,526.91
40.23789,530.71,525.66
40.25752,521.80,524.95
40.27659,513.32,523.18
40.29824,500.13,523.61
40.31759,489.28,522.01
40.33743,480.32,520.75
40.35688,470.35,528.63
40.37759,464.94,531.37
40.39788,454.79,531.64
40.41791,449.99,533.66
40.43739,440.93,533.85
40.45767,436.11,530.94
40.47693,433.13,529.29
40.49748,427.64,526.73
40.51708,424.21,524.86
40.53754,419.32,527.18
40.55709,415.62,527.80
40.57685,414.88,524.11
40.59635,415.60,522.07
40.61730,415.42,520.77
40.63654,413.40,520.89
40.65813,412.80,518.71
40.67684,412.29,516.45
40.69869,409.89,517.74
40.71875,406.91,517.43
40.73896,407.08,518.00
40.75972,405.49,515.40
40.77835,406.98,515.37
40.79817,404.97,516.28
40.81953,404.28,516.81
40.83889,405.14,515.70
40.85863,406.06,514.78
40.87895,405.72,514.28
40.89822,407.59,513.72
40.91815,403.55,512.30
40.93739,404.84,512.30
40.95871,403.61,515.80
40.97754,403.54,512.83
40.99732,404.61,513.82
41.01759,406.37,514.84
41.03750,402.30,514.21
41.05759,402.43,513.24
41.07776,402.02,514.38
41.09744,402.61,513.28
41.11807,399.93,511.88
41.13920,402.66,514.26
41.15752,401.46,514.50
41.17821,398.70,517.35
41.19789,399.45,517.07
41.21895,399.34,516.84
41.23763,397.99,518.08
41.25847,398.14,514.37
41.27765,398.27,514.69
41.29916,400.16,515.73
41.31792,400.74,513.91
41.33802,398.42,512.75
41.35913,401.28,513.59
41.37744,401.97,514.61
41.39744,403.97,513.40
41.41788,403.40,515.57
41.43750,403.15,514.86
41.45851,404.08,514.49
41.47831,404.32,513.03
41.49760,403.88,512.86
41.51796,404.20,512.08
41.53915,401.71,511.23
41.55797,402.71,513.94
41.58019,400.46,511.25
41.59881,401.00,512.35
41.61833,401.55,514.20
41.63980,400.54,512.63
41.65822,403.57,513.73
41.67929,401.23,513.64
41.69925,406.18,513.76
41.71979,405.55,514.07
41.73991,403.74,514.91
41.75959,404.80,515.73
41.77982,404.11,515.93
41.79965,405.86,516.71
41.81929,404.74,512.96
41.83911,406.83,514.51
41.85913,403.64,514.10
41.87998,404.38,516.45
41.89988,402.63,513.73
41.91928,400.44,515.99
41.94056,402.52,516.10
41.95981,401.88,514.71
41.98028,399.16,515.54
42.00039,398.90,516.18
42.01996,402.70,515.86
42.04042,400.77,516.09
42.05956,403.45,515.53
42.08034,402.34,516.49
42.09950,402.78,514.06
42.11932,401.98,515.37
42.14092,402.15,515.60
42.15966,404.64,516.43
42.18021,404.37,516.20
42.19996,401.87,516.88
42.22104,402.70,516.81
42.24000,406.14,517.51
42.26045,402.05,517.45
42.27994,404.02,516.17
42.30092,404.37,517.40
42.32035,401.48,518.11
42.33924,403.86,516.12
42.36020,401.55,515.62
42.38078,405.04,518.31
42.39986,403.32,514.95
42.41973,404.90,515.14
42.44076,401.49,516.83
42.46062,401.97,516.00
42.48073,404.69,512.84
42.49950,404.22,512.41
42.51963,401.74,515.68
42.53960,401.65,515.36
42.55951,401.99,512.90
42.58008,402.30,515.00
42.59967,403.73,514.81
42.61943,403.94,515.18
42.63946,401.92,516.60
42.65941,400.70,516.70
42.68087,403.55,514.76
42.70025,400.57,517.71
42.72070,402.08,515.92
42.74107,403.06,518.22
42.76055,399.16,518.35
42.78129,403.15,516.33
42.80084,400.50,516.19
42.81920,401.45,514.97
42.83919,403.30,515.19
42.86086,403.11,514.21
42.88050,402.91,514.65
42.90048,402.08,513.50
42.92001,405.62,515.22
42.94056,403.94,517.24
42.96014,403.91,515.06
42.97979,404.25,515.33
42.99934,400.39,516.90
43.01924,400.86,515.69
43.03954,401.23,515.83
43.06090,401.52,516.30
43.07968,402.33,513.39
43.10047,403.28,513.90
43.12093,402.88,515.68
43.14088,401.64,517.05
43.16103,405.06,518.68
43.18044,402.87,516.56
43.20082,404.02,516.03
43.21919,404.80,519.30
43.24108,405.06,515.84
43.26002,403.87,518.22
43.28054,405.95,517.18
43.29936,402.64,515.63
43.32094,402.86,517.29
43.33992,401.32,516.26
43.36095,402.69,514.28
43.37927,399.67,515.66
43.40001,398.97,515.48
43.42029,399.85,516.18
43.43960,402.13,514.35
43.46070,402.65,513.34
43.47938,401.60,516.39
43.50038,401.09,516.02
43.52064,404.21,515.11
43.54057,400.91,515.81
43.55934,401.44,514.10
43.58047,404.20,511.40
43.60027,404.39,510.82
43.61934,403.34,513.08
43.63956,397.41,509.47
43.66107,383.67,510.38
43.67978,363.46,507.88
43.70015,344.53,509.90
43.72095,324.58,505.43
43.74163,307.67,501.46
43.76101,296.54,496.83
43.78204,290.78,492.86
43.80058,288.07,491.07
43.82065,285.13,490.44
43.84066,287.40,487.74
43.86049,291.89,486.29
43.88107,294.60,489.78
43.90193,300.85,490.38
43.92130,309.57,493.43
43.94062,318.29,495.31
43.96024,325.60,498.02
43.98147,332.22,499.62
44.00134,339.54,500.55
44.02071,346.22,501.01
44.04093,353.53,506.83
44.06188,359.11,506.65
44.08176,366.52,509.32
44.10227,369.01,507.61
44.12068,373.55,509.87
44.14107,375.97,511.93
44.16112,382.06,512.41
44.18105,383.58,513.74
44.20162,387.87,513.11
44.22045,388.84,512.57
44.24190,390.65,513.29
44.26166,393.65,516.26
44.28123,392.72,517.17
44.30145,393.78,518.76
44.32025,395.67,517.42
44.34142,398.38,515.21
44.36033,398.88,518.43
44.38147,400.00,517.90
44.40096,399.11,517.68
44.42176,401.26,517.09
44.44152,400.35,515.33
44.46092,400.11,517.45
44.48065,400.84,516.89
44.50151,412.16,519.16
44.52157,433.78,525.66
44.54198,462.39,528.77
44.56141,489.68,532.02
44.58081,521.67,535.01
44.60012,541.48,537.07
44.62197,549.94,536.56
44.64110,548.22,533.14
44.66178,543.68,534.44
44.68131,532.27,532.48
44.70010,522.37,529.12
44.72106,514.03,527.09
44.74126,506.39,535.11
44.76185,496.14,535.48
44.78175,488.33,539.11
44.80193,479.28,538.68
44.82079,470.37,538.32
44.84068,464.40,535.08
44.86092,455.48,531.70
44.88139,447.16,531.07
44.90183,442.51,528.48
44.92135,438.49,528.26
44.94135,432.16,531.08
44.96112,428.39,530.32
44.98046,423.08,529.16
45.00107,420.41,525.17
45.02083,415.63,523.41
45.04037,416.58,522.66
45.06149,412.81,524.09
45.08059,409.77,521.36
45.10203,411.43,522.83
45.12124,406.46,520.07
45.14204,409.09,519.88
45.16177,408.42,517.72
45.18129,404.56,519.90
45.20181,404.35,521.14
45.22215,405.95,519.29
45.24304,405.84,518.79
45.26128,402.85,518.38
45.28172,404.33,519.07
45.30257,403.27,517.98
45.32346,402.33,518.77
45.34306,401.23,518.80
45.36280,401.77,517.86
45.38225,401.40,519.94
45.40340,402.21,520.40
45.42223,402.40,518.88
45.44335,403.20,520.77
45.46359,402.22,519.43
45.48367,400.20,518.08
45.50292,400.83,520.40
45.52345,400.44,518.05
45.54222,400.28,518.87
45.56232,400.66,520.23
45.58361,399.97,520.93
45.60217,402.16,520.97
45.62290,400.08,518.52
45.64323,398.49,518.52
45.66274,401.28,520.26
45.68228,402.61,517.83
45.70365,400.03,518.00
45.72298,400.89,518.56
45.74272,403.60,518.20
45.76339,403.89,519.99
45.78299,402.71,518.80
45.80227,404.82,519.68
45.82352,402.47,518.02
45.84234,402.34,519.65
45.86347,401.95,520.03
45.88260,399.81,518.95
45.90408,400.22,517.65
45.92233,399.83,518.11
45.94430,400.47,518.25
45.96394,402.09,517.84
45.98311,400.67,516.34
46.00500,402.99,516.46
46.02409,400.55,515.97
46.04322,400.84,519.77
46.06325,398.81,518.33
46.08398,400.39,517.38
46.10312,402.73,516.47
46.12461,400.44,516.40
46.14487,399.25,518.02
46.16358,399.51,517.43
46.18447,399.71,517.74
46.20487,401.35,520.83
46.22315,399.59,519.99
46.24442,400.65,520.31
46.26506,398.89,519.67
46.28499,401.02,522.31
46.30472,399.44,519.60
46.32499,401.24,521.38
46.34488,400.93,519.95
46.36336,403.00,519.95
46.38421,402.87,518.72
46.40333,401.15,520.02
46.42497,401.92,519.78
46.44483,400.41,520.04
46.46509,403.11,521.50
46.48493,403.44,517.83
46.50345,401.00,520.45
46.52361,402.06,520.51
46.54367,403.06,518.77
46.56352,402.45,519.50
46.58436,402.39,521.46
46.60306,399.21,520.64
46.62492,399.44,520.04
46.64339,402.59,520.72
46.66473,401.20,518.90
46.68348,402.34,518.30
46.70331,399.85,521.43
46.72499,400.01,519.29
46.74372,400.86,519.88
46.76400,399.92,518.43
46.78508,401.56,515.78
46.80323,401.02,517.16
46.82429,402.93,517.86
46.84405,403.14,517.06
46.86343,398.78,519.65
46.88504,402.67,518.87
46.90345,399.56,518.95
46.92415,402.70,515.88
46.94484,401.81,517.32
46.96333,403.48,516.08
46.98479,401.39,516.36
47.00478,399.44,516.01
47.02396,400.81,518.49
47.04458,398.49,518.78
47.06434,400.86,518.63
47.08362,402.56,516.82
47.10335,402.05,518.24
47.12447,402.92,517.67
47.14597,402.70,517.23
47.16538,402.35,515.22
47.18457,402.79,515.48
47.20588,400.24,517.96
47.22416,398.33,517.68
47.24514,398.84,517.71
47.26413,399.77,516.76
47.28436,397.65,516.59
47.30453,400.61,518.36
47.32542,396.77,517.45
47.34577,397.57,517.57
47.36496,396.97,516.55
47.38601,397.46,517.04
47.40485,400.87,516.62
47.42485,398.07,516.24
47.44554,400.11,516.21
47.46456,400.16,515.25
47.48532,400.00,513.35
47.50567,398.78,512.22
47.52461,401.85,514.70
47.54614,393.17,516.37
47.56589,377.51,513.03
47.58522,355.26,511.10
47.60544,333.60,509.39
47.62532,312.67,505.85
47.64490,294.08,506.22
47.66595,283.84,501.05
47.68574,276.78,496.11
47.70428,271.54,490.07
47.72583,271.83,487.20
47.74499,273.00,487.43
47.76581,275.24,486.93
47.78563,282.12,485.27
47.80495,290.83,486.27
47.82578,299.80,486.57
47.84527,305.98,487.08
47.86411,314.14,490.51
47.88485,324.52,489.19
47.90551,331.89,494.96
47.92440,340.62,496.71
47.94498,349.07,497.40
47.96450,353.66,499.27
47.98593,357.87,501.97
48.00461,365.89,506.84
48.02580,367.66,504.33
48.04444,374.85,509.68
48.06566,376.02,511.22
48.08490,379.98,510.31
48.10559,382.93,513.14
48.12699,382.56,511.12
48.14658,386.96,512.48
48.16726,388.26,512.04
48.18526,389.92,512.37
48.20667,388.46,513.49
48.22554,389.14,513.66
48.24700,388.37,516.36
48.26623,390.67,514.49
48.28735,389.14,514.66
48.30880,387.88,518.21
48.32891,387.87,516.44
48.34786,387.16,519.42
48.36854,392.45,520.19
48.38789,410.36,524.17
48.40815,430.22,532.82
48.42842,459.26,539.42
48.44836,488.06,539.02
48.46845,517.47,539.95
48.48887,539.61,544.08
48.50777,547.33,539.74
48.52891,548.51,539.20
48.54828,541.72,534.13
48.56892,531.89,533.45
48.58699,520.86,531.07
48.60896,509.49,530.16
48.62887,498.50,530.87
48.64816,487.67,532.49
48.66770,474.39,533.42
48.68728,466.97,536.04
48.70721,458.00,533.78
48.72886,450.15,532.28
48.74726,441.41,533.06
48.76756,434.19,532.33
