Program Time [s],data 0,data 1
6.43785,436.34,533.30
6.45801,436.21,536.93
6.47987,435.52,537.41
6.50011,435.75,542.00
6.51928,437.24,540.90
6.53983,435.39,546.01
6.56066,437.28,551.63
6.58168,435.82,556.21
6.60319,437.87,559.44
6.62179,438.96,561.07
6.64299,441.76,557.77
6.66290,440.82,559.32
6.68378,444.58,553.49
6.70419,445.34,552.31
6.72526,448.31,551.45
6.74470,451.54,552.22
6.76462,452.66,549.76
6.78444,452.92,551.55
6.80480,454.13,553.67
6.82581,452.90,554.85
6.84566,452.10,557.46
6.86602,453.20,555.53
6.88618,452.32,558.87
6.90743,454.59,560.05
6.92675,451.44,556.90
6.94745,453.25,558.59
6.96819,451.42,556.38
6.98872,450.51,558.40
7.00828,452.15,557.02
7.03016,452.00,557.74
7.05026,449.17,557.28
7.06966,447.72,554.40
7.09065,448.50,557.27
7.10968,445.05,553.79
7.13036,445.29,555.95
7.15005,448.41,555.89
7.17027,443.41,554.17
7.18955,443.61,555.58
7.21003,442.40,552.31
7.23048,443.20,553.26
7.24953,446.13,553.00
7.26960,437.89,554.58
7.29043,425.82,552.53
7.31149,404.33,550.70
7.33160,382.86,550.24
7.35106,361.73,544.18
7.37139,340.50,537.88
7.39065,322.13,524.40
7.41176,309.64,514.41
7.43099,301.61,503.92
7.45078,299.67,494.10
7.47143,299.85,488.20
7.49043,301.63,482.98
7.51136,309.36,479.47
7.53126,317.03,477.00
7.55237,325.64,480.29
7.57134,335.43,483.20
7.59086,342.50,484.23
7.61172,352.51,488.91
7.63136,362.54,497.13
7.65127,369.14,502.87
7.67087,378.58,503.97
7.69235,385.32,509.78
7.71178,394.31,519.06
7.73204,400.37,522.94
7.75045,405.23,523.31
7.77180,409.81,528.30
7.79211,415.09,528.39
7.81080,416.99,533.94
7.83150,418.59,535.92
7.85237,424.38,537.10
7.87212,426.56,538.58
7.89199,427.75,539.55
7.91086,428.33,542.90
7.93089,432.32,542.98
7.95157,430.62,543.45
7.97035,433.96,543.09
7.99157,433.01,544.03
8.01095,432.88,545.78
8.03210,435.97,547.07
8.05401,439.04,552.52
8.07353,451.26,557.35
8.09383,474.96,565.57
8.11373,496.02,577.87
8.13521,526.68,589.03
8.15456,550.48,596.29
8.17479,576.98,605.76
8.19527,595.18,610.05
8.21362,611.11,613.49
8.23436,611.06,614.32
8.25490,607.21,608.98
8.27389,597.91,602.13
8.29470,586.01,594.94
8.31527,571.92,591.04
8.33404,561.75,584.75
8.35394,545.73,584.35
8.37398,533.47,576.59
8.39531,520.17,575.18
8.41363,510.53,572.69
8.43403,500.49,567.12
8.45610,489.64,566.93
8.47549,485.06,562.60
8.49559,478.39,560.95
8.51554,473.70,559.43
8.53500,469.17,557.76
8.55553,462.46,555.42
8.57578,461.40,555.48
8.59533,454.97,553.32
8.61653,453.56,549.97
8.63602,452.73,550.80
8.65626,448.63,548.69
8.67621,446.09,550.06
8.69573,446.06,548.05
8.71509,444.18,549.35
8.73464,443.40,546.01
8.75641,440.09,549.53
8.77617,443.17,549.11
8.79509,440.92,546.82
8.81625,438.77,547.17
8.83474,436.15,547.83
8.85590,435.22,545.35
8.87602,430.64,545.72
8.89502,430.16,544.55
8.91508,428.89,546.62
8.93502,429.77,542.64
8.95608,428.52,541.93
8.97650,425.22,538.72
8.99591,423.59,535.77
9.01594,423.46,538.01
9.03597,423.93,536.89
9.05601,427.20,536.69
9.07604,425.12,537.21
9.09470,425.02,535.96
9.11538,428.76,536.25
9.13553,431.67,537.08
9.15568,430.85,539.47
9.17512,432.37,538.32
9.19536,433.00,539.91
9.21492,434.56,540.56
9.23468,433.03,542.49
9.25582,434.50,543.78
9.27552,435.93,546.04
9.29486,436.64,543.41
9.31585,437.43,546.41
9.33545,437.01,544.17
9.35525,435.26,546.23
9.37620,434.94,546.23
9.39649,435.00,547.29
9.41643,433.79,545.83
9.43477,432.70,548.16
9.45612,434.11,546.43
9.47534,434.78,546.26
9.49480,433.28,546.17
9.51511,433.40,546.63
9.53479,436.66,549.23
9.55541,436.04,546.65
9.57472,435.98,546.19
9.59625,435.11,547.53
9.61613,433.85,547.10
9.63541,435.85,548.50
9.65570,434.36,547.88
9.67501,437.36,546.30
9.69611,435.19,547.33
9.71650,439.01,549.77
9.73614,436.70,549.82
9.75630,438.97,549.34
9.77513,434.55,547.49
9.79535,435.96,546.83
9.81611,435.00,547.76
9.83496,437.75,547.87
9.85488,438.90,547.57
9.87496,439.00,547.92
9.89504,436.26,549.58
9.91618,436.75,550.21
9.93449,439.82,550.30
9.95526,440.88,548.74
9.97544,438.25,549.24
9.99612,438.66,549.62
10.01559,438.08,548.93
10.03499,437.47,546.76
10.05619,436.70,546.93
10.07592,435.81,546.22
10.09476,439.07,547.50
10.11543,438.50,549.70
10.13618,439.05,547.39
10.15482,438.26,547.16
10.17509,440.06,546.31
10.19599,437.63,545.79
10.21567,438.71,545.39
10.23591,439.11,546.37
10.25562,436.63,547.35
10.27460,437.96,546.47
10.29551,436.88,548.70
10.31493,439.41,551.13
10.33472,437.71,551.34
10.35710,439.98,550.94
10.37712,439.22,550.55
10.39574,443.43,550.48
10.41663,440.48,547.39
10.43553,444.50,548.31
10.45598,443.58,550.17
10.47694,444.32,546.66
10.49619,444.14,548.51
10.51693,446.06,548.75
10.53709,444.92,545.47
10.55714,447.59,547.92
10.57575,446.47,547.30
10.59639,444.53,545.76
10.61617,445.44,548.06
10.63602,444.24,546.38
10.65596,441.59,544.91
10.67594,442.99,545.30
10.69652,444.47,546.68
10.71570,445.23,545.98
10.73740,444.45,544.00
10.75744,443.66,543.06
10.77607,443.41,545.76
10.79697,430.00,544.10
10.81739,413.79,544.03
10.83664,395.08,541.98
10.85597,373.74,541.69
10.87572,356.82,543.42
10.89602,341.26,544.51
10.91743,330.63,541.48
10.93677,322.73,533.84
10.95550,317.47,529.16
10.97564,316.31,519.39
10.99550,317.93,515.22
11.01647,323.35,510.53
11.03681,326.09,506.42
11.05583,335.39,501.32
11.07575,340.98,499.31
11.09645,349.38,502.58
11.11561,361.33,504.94
11.13725,368.78,506.45
11.15624,377.41,509.67
11.17623,386.61,513.12
11.19628,394.93,514.41
11.21555,401.13,518.42
11.23688,406.26,521.26
11.25634,412.47,524.96
11.27583,417.69,528.57
11.29604,419.41,530.54
11.31673,422.99,532.00
11.33668,427.41,532.18
11.35640,431.41,537.85
11.37562,431.51,537.26
11.39648,437.02,541.37
11.41727,437.02,540.09
11.43663,440.56,542.79
11.45682,442.16,540.70
11.47679,445.25,541.44
11.49595,446.73,544.62
11.51582,447.31,544.88
11.53660,445.25,545.03
11.55659,445.35,546.80
11.57646,444.69,545.78
11.59645,445.04,547.42
11.61594,446.23,544.62
11.63571,446.25,547.60
11.65695,458.26,555.08
11.67603,471.39,566.48
11.69596,496.35,577.47
11.71725,523.38,587.93
11.73695,548.18,589.96
11.75704,575.67,588.59
11.77741,595.57,586.40
11.79579,606.32,582.36
11.81624,610.75,578.29
11.83603,607.40,574.88
11.85704,600.57,572.80
11.87689,587.46,568.50
11.89644,577.34,563.39
11.91588,564.20,562.37
11.93641,549.94,561.15
11.95708,539.31,561.03
11.97746,530.89,556.20
11.99745,523.10,557.85
12.01592,513.36,557.98
12.03666,503.61,557.16
12.05722,497.47,554.54
12.07607,491.51,553.09
12.09722,486.43,554.21
12.11598,479.21,555.55
12.13566,475.17,554.96
12.15631,470.98,555.51
12.17684,469.40,555.69
12.19585,466.76,554.46
12.21700,466.25,552.45
12.23598,464.30,552.85
12.25661,459.69,553.42
12.27686,458.16,554.18
12.29703,459.37,553.31
12.31685,458.23,552.73
12.33574,459.81,553.08
12.35714,456.31,552.46
12.37604,456.24,552.67
12.39705,456.29,553.33
12.41745,458.44,550.47
12.43696,458.79,553.23
12.45703,456.74,552.74
12.47710,458.06,550.98
12.49583,456.84,553.09
12.51597,457.71,552.83
12.53685,455.52,551.95
12.55597,457.90,552.47
12.57653,454.38,550.84
12.59716,458.23,552.67
12.61549,458.61,549.86
12.63596,456.00,550.68
12.65566,457.01,549.67
12.67699,456.36,550.32
12.69582,455.20,553.01
12.71584,453.17,550.57
12.73586,454.29,549.14
12.75709,456.11,552.29
12.77630,455.38,550.80
12.79584,455.86,550.91
12.81605,455.56,551.53
12.83648,454.51,551.62
12.85725,456.68,553.22
12.87681,456.67,551.28
12.89723,454.28,552.66
12.91668,453.03,552.64
12.93713,456.81,551.23
12.95700,454.04,555.03
12.97741,455.26,554.52
12.99666,455.89,552.61
13.01670,457.36,553.86
13.03721,454.06,554.58
13.05571,456.10,554.10
13.07648,456.12,553.51
13.09557,452.64,555.64
13.11714,453.70,554.46
13.13660,453.87,555.03
13.15726,453.66,551.94
13.17605,452.97,553.15
13.19716,451.38,550.69
13.21715,450.63,549.68
13.23640,454.56,552.65
13.25654,453.84,550.58
13.27612,454.60,551.15
13.29732,456.80,550.99
13.31701,452.85,552.47
13.33549,455.74,551.51
13.35652,452.78,553.35
13.37718,453.70,553.03
13.39652,454.80,548.70
13.41617,456.33,548.50
13.43625,458.16,551.63
13.45589,458.37,552.63
13.47706,456.48,549.57
13.49729,457.66,549.22
13.51671,455.93,549.16
13.53665,456.97,548.91
13.55600,452.81,548.51
13.57640,453.32,551.49
13.59585,452.78,549.89
13.61679,454.71,549.11
13.63605,454.08,549.65
13.65688,451.57,550.64
13.67726,452.96,550.45
13.69569,454.92,549.06
13.71633,452.27,550.59
13.73663,454.45,548.56
13.75716,454.07,547.68
13.77640,454.45,551.47
13.79728,452.06,550.89
13.81660,451.72,552.53
13.83612,451.85,551.92
13.85626,451.43,552.84
13.87583,454.28,551.32
13.89687,451.24,551.48
13.91662,451.89,551.80
13.93717,451.94,554.09
13.95555,451.22,552.61
13.97692,451.09,552.27
13.99723,452.05,555.63
14.01685,451.84,555.32
14.03625,450.91,552.07
14.05707,450.74,552.97
14.07627,450.12,551.60
14.09604,451.15,551.23
14.11581,453.39,553.69
14.13726,453.15,552.68
14.15750,454.03,553.18
14.17802,453.43,552.97
14.19677,451.01,554.40
14.21709,452.22,554.08
14.23823,453.98,556.14
14.25811,453.35,555.68
14.27785,452.68,555.07
14.29787,451.73,551.39
14.31743,454.52,553.84
14.33790,455.10,553.15
14.35756,453.46,555.15
14.37667,453.99,553.17
14.39724,454.54,552.21
14.41685,454.20,552.90
14.43825,452.88,553.40
14.45802,453.03,555.26
14.47749,455.11,552.21
14.49721,454.23,553.81
14.51717,453.64,551.89
14.53846,455.12,553.17
14.55684,453.91,553.64
14.57803,454.92,554.25
14.59658,454.92,554.57
14.61698,456.16,553.61
14.63769,455.13,554.18
14.65722,454.17,554.01
14.67757,451.00,551.78
14.69742,453.60,551.36
14.71651,452.99,550.60
14.73696,451.56,553.45
14.75724,450.37,551.90
14.77677,449.40,553.18
14.79787,449.75,554.75
14.81721,451.67,551.65
14.83828,450.47,552.62
14.85669,453.56,552.99
14.87838,450.98,555.23
14.89670,451.61,554.60
14.91782,453.78,551.55
14.93782,453.55,553.48
14.95729,454.75,553.86
14.97807,454.36,549.52
14.99799,454.17,549.40
15.01760,447.29,553.07
15.03761,434.51,549.35
15.05818,414.21,546.36
15.07721,392.66,540.13
15.09647,368.91,536.40
15.11781,348.25,531.34
15.13764,335.17,523.88
15.15658,321.66,513.78
15.17643,317.15,506.43
15.19831,313.27,503.19
15.21762,312.53,499.24
15.23732,313.33,503.67
15.25717,320.26,504.05
15.27739,326.85,504.57
15.29814,335.67,511.20
15.31817,340.70,512.45
15.33830,350.44,516.76
15.35742,357.31,519.37
15.37716,368.25,524.95
15.39662,374.41,526.43
15.41738,380.96,527.49
15.43800,388.99,531.51
15.45652,399.61,533.44
15.47731,403.35,536.02
15.49809,410.70,540.32
15.51754,415.01,538.62
15.53758,421.92,543.22
15.55729,424.88,545.79
15.57651,427.18,546.71
15.59827,431.22,547.60
15.61643,434.93,547.91
15.63800,434.78,551.42
15.65778,438.94,551.18
15.67845,438.30,552.78
15.70013,441.26,550.53
15.71975,439.88,550.85
15.74008,441.65,550.41
15.75905,442.48,552.47
15.77886,442.50,554.47
15.79892,443.40,551.49
15.81881,444.08,551.89
15.83989,446.07,555.86
15.85900,448.80,560.24
15.87939,450.90,562.45
15.89908,456.34,567.90
15.91850,463.88,571.89
15.93938,476.79,577.60
15.95932,495.34,581.96
15.97859,519.37,585.25
15.99966,542.68,586.64
16.01960,567.83,582.82
16.04029,590.44,583.84
16.05949,605.90,580.72
16.07903,612.70,579.01
16.09891,607.94,575.46
16.11967,601.84,574.02
16.13987,588.24,573.78
16.15866,575.45,573.99
16.17908,565.02,571.31
16.20000,550.03,569.83
16.21938,539.94,570.41
16.23943,529.72,567.09
16.25819,517.44,566.82
16.27999,507.24,563.39
16.29915,497.94,564.16
16.31895,491.09,564.70
16.33959,485.38,560.81
16.35986,476.70,561.46
16.37954,475.99,562.52
16.39861,474.97,568.80
16.41923,473.47,572.93
16.43909,474.07,573.44
16.45986,470.94,569.96
16.48019,465.77,569.25
16.49925,464.09,569.14
16.51997,462.85,566.16
16.53979,457.86,564.67
16.55864,459.20,560.60
16.57969,453.39,560.18
16.59935,452.27,558.80
16.61835,449.40,558.80
16.63862,450.46,556.24
16.65833,446.56,554.30
16.67963,448.78,556.77
16.69939,443.85,555.30
16.71977,443.63,553.74
16.73969,444.64,552.13
16.75916,443.92,552.53
16.78017,443.89,555.12
16.79924,445.23,553.50
16.81922,444.63,556.01
16.83915,443.95,553.12
16.85908,445.21,555.02
16.87860,445.69,553.42
16.89994,443.63,553.08
16.91913,443.16,554.86
16.93878,444.67,553.48
16.95825,444.53,553.99
16.97877,444.77,552.39
16.99885,444.97,552.86
17.01986,443.46,553.08
17.03900,441.89,552.49
17.05951,439.08,552.75
17.07989,439.54,553.41
17.10026,439.49,554.06
17.12137,440.64,556.75
17.13948,439.64,554.75
17.16099,438.37,553.62
17.18078,440.75,553.73
17.19949,438.52,555.58
17.22074,441.78,553.89
17.24057,440.62,552.89
17.26021,439.88,555.19
17.28081,438.01,556.20
17.29988,437.72,553.15
17.32018,438.16,552.75
17.34000,436.57,551.22
17.35945,439.37,551.47
17.37951,436.64,553.25
17.40115,437.99,554.07
17.41994,438.60,552.15
17.43966,438.62,552.38
17.46056,437.74,555.02
17.48000,435.66,554.19
17.49983,435.03,553.80
17.51954,436.11,552.37
17.54089,436.35,555.45
17.55945,437.81,554.89
17.58046,436.84,552.00
17.60014,437.55,554.78
17.61994,439.17,552.34
17.64115,437.82,552.36
17.65958,434.40,556.28
17.67948,435.16,557.14
17.70057,435.39,555.84
17.72125,434.70,554.06
17.74061,435.08,553.53
17.75933,435.59,553.17
17.78025,432.88,555.07
17.80048,433.79,553.17
17.81973,434.11,554.43
17.84047,434.91,552.40
17.86017,436.06,553.89
17.88098,436.03,555.85
17.90068,435.91,551.62
17.92098,432.97,551.76
17.93923,435.37,551.94
17.95952,433.89,553.16
17.98022,431.12,553.52
18.00064,433.31,552.36
18.02134,435.58,551.46
18.04084,434.13,553.06
18.06092,431.29,554.32
18.08202,432.58,553.55
18.10153,433.91,554.40
18.12109,435.44,552.59
18.14043,434.50,554.61
18.16158,434.11,555.26
18.18209,436.23,553.14
18.20134,436.25,553.51
18.22141,437.39,555.94
18.24188,435.99,555.79
18.26212,436.31,554.13
18.28235,439.44,552.07
18.30227,436.71,551.89
18.32287,436.88,551.63
18.34185,438.92,552.00
18.36309,435.53,550.79
18.38276,439.03,550.75
18.40205,436.51,551.25
18.42243,437.57,549.85
18.44338,437.17,549.54
18.46293,437.74,549.99
18.48248,434.10,551.01
18.50242,435.12,548.96
18.52299,437.13,548.99
18.54287,438.32,550.69
18.56206,437.07,547.66
18.58153,438.23,548.81
18.60211,436.63,548.28
18.62235,438.03,549.94
18.64323,436.99,551.18
18.66276,435.56,550.11
18.68207,438.17,548.11
18.70293,438.95,549.94
18.72329,436.50,548.46
18.74301,438.71,549.58
18.76177,437.61,546.79
18.78197,438.05,551.12
18.80143,439.03,550.86
18.82324,438.77,551.66
18.84198,441.31,551.93
18.86245,439.71,551.87
18.88220,435.93,550.26
18.90281,437.92,547.21
18.92150,431.69,547.49
18.94303,412.32,546.46
18.96245,389.82,547.50
18.98289,365.98,547.82
19.00226,341.09,546.93
19.02191,321.62,538.50
19.04316,308.38,529.26
19.06171,303.10,520.44
19.08222,296.86,510.57
19.10292,297.44,504.58
19.12159,296.43,501.30
19.14164,301.12,497.39
19.16251,306.77,494.73
19.18249,316.18,499.07
19.20297,323.52,499.24
19.22282,336.06,500.00
19.24303,343.68,503.86
19.26254,353.01,509.64
19.28260,366.05,511.76
19.30248,373.24,515.30
19.32265,380.87,520.96
19.34264,387.40,525.35
19.36409,394.60,528.43
19.38276,401.12,532.47
19.40408,408.24,534.45
19.42391,412.05,533.60
19.44382,417.08,538.41
19.46295,419.17,537.07
19.48285,424.83,540.58
19.50392,427.69,544.24
19.52364,430.72,545.80
19.54357,431.59,546.43
19.56371,435.38,546.82
19.58395,435.89,547.88
19.60340,437.30,546.74
19.62398,438.60,547.01
19.64301,436.77,548.63
19.66390,437.98,548.72
19.68347,440.40,548.19
19.70307,439.24,550.89
19.72365,441.13,549.89
19.74312,440.97,552.98
19.76396,440.87,552.64
19.78361,440.16,551.52
19.80344,440.47,552.54
19.82395,451.74,555.35
19.84304,474.08,562.84
19.86264,499.21,568.71
19.88428,531.58,578.59
19.90282,563.90,582.35
19.92370,589.14,590.49
19.94362,611.28,593.66
19.96282,616.61,596.84
19.98314,613.59,593.33
20.00346,608.13,593.14
20.02236,596.62,589.90
20.04382,582.87,585.51
20.06412,571.02,584.14
20.08300,557.72,578.39
20.10303,545.70,577.16
20.12316,534.44,574.03
20.14420,522.77,568.52
20.16308,510.51,566.26
20.18392,504.07,564.77
20.20220,496.35,566.70
20.22308,487.55,565.34
20.24285,481.58,563.01
20.26268,474.96,562.24
20.28381,471.34,559.11
20.30232,469.83,559.67
20.32307,464.97,557.50
20.34349,464.29,557.11
20.36390,460.33,558.64
20.38221,458.52,554.11
20.40274,455.68,553.66
20.42382,453.68,555.96
20.44212,452.19,554.61
20.46418,452.34,555.06
20.48395,448.67,553.65
20.50319,450.76,553.80
20.52363,449.83,551.44
20.54269,447.23,551.66
20.56359,449.58,551.59
20.58231,446.45,554.64
20.60334,450.13,551.89
20.62323,448.65,550.78
20.64331,448.79,554.57
20.66377,445.92,551.90
20.68288,447.22,551.11
20.70371,447.82,553.88
20.72329,448.71,552.85
20.74341,445.98,553.26
20.76313,449.64,551.68
20.78367,448.70,552.48
20.80318,447.67,552.00
20.82389,444.92,551.91
20.84402,445.00,549.45
20.86285,443.42,552.17
20.88349,445.18,549.99
20.90371,444.92,552.11
20.92403,447.11,552.22
20.94307,448.84,552.34
20.96366,447.80,549.50
20.98376,448.10,552.51
21.00356,446.99,553.11
21.02209,444.28,555.43
21.04268,445.94,555.73
21.06373,446.84,555.68
21.08324,444.65,555.82
21.10338,447.45,554.51
21.12223,445.18,552.24
21.14225,448.52,553.75
21.16253,447.96,554.26
21.18361,445.14,553.42
21.20308,447.61,551.84
21.22319,446.31,551.98
21.24281,445.95,554.45
21.26296,447.43,552.58
21.28345,447.69,554.66
21.30442,448.67,553.98
21.32424,449.57,555.37
21.34393,448.69,552.96
21.36400,451.23,551.62
21.38509,448.40,552.70
21.40348,451.03,550.57
21.42471,448.79,550.01
21.44475,450.41,551.40
21.46390,452.47,547.80
21.48450,452.88,550.33
21.50526,450.41,548.06
21.52505,452.06,547.58
21.54504,450.63,548.61
21.56387,450.63,551.27
21.58428,452.49,548.73
21.60378,453.79,550.75
21.62440,451.14,551.11
21.64400,453.76,551.75
21.66444,451.92,552.24
21.68367,451.55,549.77
21.70377,450.25,550.65
21.72325,452.41,549.74
21.74384,449.55,551.11
21.76400,449.47,552.71
21.78524,450.34,553.08
21.80339,450.47,553.58
21.82482,450.96,553.85
21.84387,450.57,552.15
21.86350,451.74,553.31
21.88400,451.21,551.67
21.90490,451.37,552.20
21.92411,453.13,552.67
21.94413,454.08,550.08
21.96452,454.04,549.15
21.98449,452.73,548.29
22.00346,452.68,547.61
22.02502,449.55,549.80
22.04436,448.66,549.43
22.06384,450.41,549.47
22.08534,448.26,552.84
22.10524,449.36,550.81
22.12490,449.32,550.50
22.14502,449.15,552.82
22.16592,452.48,552.51
22.18611,451.99,552.04
22.20568,452.92,549.35
22.22579,452.18,549.20
22.24563,451.46,550.47
22.26521,452.86,552.02
22.28472,452.75,550.62
22.30622,454.30,551.73
22.32443,454.34,551.74
22.34584,452.51,552.65
22.36576,450.02,550.12
22.38455,451.08,553.82
22.40565,451.73,551.74
22.42603,453.97,554.04
22.44537,452.55,553.57
22.46433,451.59,555.05
22.48490,451.28,553.15
22.50465,452.35,552.79
22.52534,451.20,550.56
22.54465,453.72,552.29
22.56429,451.76,550.81
22.58482,450.66,551.14
22.60572,453.84,550.76
22.62414,450.91,548.83
22.64666,452.48,548.49
22.66560,448.85,549.64
22.68623,451.18,549.81
22.70603,451.45,545.47
22.72637,449.42,545.49
22.74631,441.25,547.29
22.76630,422.24,545.71
22.78650,396.78,547.16
22.80635,373.80,544.59
22.82521,349.32,547.42
22.84662,330.57,543.53
22.86575,320.44,538.66
22.88613,311.52,532.96
22.90776,310.28,527.91
22.92739,307.94,519.47
22.94803,310.79,515.80
22.96749,316.45,510.47
22.98803,321.04,509.34
23.00640,328.86,504.60
23.02661,337.70,507.49
23.04782,347.44,507.27
23.06779,356.24,509.41
23.08784,367.75,509.16
23.10790,375.79,513.39
23.12678,381.85,516.37
23.14680,390.67,519.73
23.16807,397.71,520.70
23.18663,402.52,525.39
23.20753,407.67,528.69
23.22632,413.96,532.47
23.24676,417.50,536.34
23.26671,421.96,538.12
23.28716,427.07,542.23
23.30694,430.17,544.59
23.32677,430.11,546.41
23.34845,432.35,548.87
23.36899,435.54,550.93
23.38988,434.36,553.94
23.40851,436.19,552.75
23.42986,436.82,553.27
23.44864,437.17,552.96
23.46917,440.12,556.00
23.48951,439.99,554.83
23.50897,438.49,556.51
23.52965,440.61,553.71
23.54910,441.15,554.43
23.56812,438.98,555.23
23.58933,440.58,553.99
23.60999,440.33,557.28
23.63000,441.49,557.91
23.65009,442.74,557.65
23.66966,443.19,556.12
23.68897,450.14,561.30
23.70820,468.37,570.55
23.72990,492.11,578.11
23.74981,522.90,587.87
23.76806,553.34,598.45
23.78863,580.36,604.78
23.80989,604.00,612.12
23.83016,613.22,612.78
23.84919,614.89,609.31
23.86992,607.73,605.19
23.88948,598.77,599.90
23.90850,583.91,595.10
23.92841,573.57,588.76
23.94843,559.12,584.29
23.96966,545.58,578.39
23.98942,531.75,571.94
24.01016,520.58,569.40
24.03068,510.78,566.56
24.05083,498.56,561.79
24.06957,490.93,560.73
24.09118,484.74,554.98
24.10935,479.55,555.24
24.12952,474.03,554.08
24.15071,467.45,551.68
24.17071,464.68,552.70
24.18974,460.19,550.43
24.21064,454.95,550.46
24.23080,454.60,551.26
24.24967,449.57,547.15
24.27033,448.19,546.18
24.28993,447.22,549.04
24.31107,445.23,547.01
24.33058,442.50,550.26
24.35037,443.04,548.38
24.37011,442.32,547.26
24.39026,441.96,548.04
24.41147,438.15,547.96
24.43153,440.77,549.70
24.45050,436.61,549.50
24.47050,438.13,551.90
24.49146,436.68,553.57
24.51081,437.44,553.42
24.53122,437.72,552.04
24.55176,438.29,552.51
24.57176,438.76,551.47
24.59114,437.92,551.24
24.61205,438.97,548.85
24.63096,436.89,547.96
24.65172,438.09,548.51
24.67103,436.48,549.82
24.69024,436.32,550.04
24.71123,436.92,549.72
24.73045,437.81,548.37
24.75145,436.58,549.71
24.77064,437.33,546.75
24.79125,438.76,545.99
24.81081,438.59,546.82
24.83090,437.54,547.37
24.85201,438.11,546.36
24.87054,435.56,546.74
24.89041,439.95,549.25
24.91195,438.45,548.75
24.93016,438.21,549.10
24.95062,438.86,548.74
24.97195,438.84,547.20
24.99082,440.56,546.48
25.01193,438.93,548.46
25.03050,440.08,549.68
25.05121,438.11,547.88
25.07138,439.55,546.47
25.09076,440.66,547.72
25.11103,436.19,548.00
25.13116,436.95,547.58
25.15118,438.25,548.55
25.17088,435.94,545.87
25.19170,435.74,548.99
25.21035,438.17,548.84
25.23187,438.73,547.53
25.25085,440.71,547.20
25.27095,439.71,547.18
25.29204,439.14,548.18
25.31136,440.01,549.10
25.33116,437.40,547.52
25.35125,437.72,549.09
25.37126,438.06,549.71
25.39085,438.59,549.04
25.41118,439.12,550.82
25.43165,438.67,550.25
25.45030,436.32,549.47
25.47134,438.03,549.77
25.49048,436.91,547.53
25.51085,439.10,547.46
25.53140,438.01,551.21
25.55104,436.99,552.91
25.57194,437.47,553.09
25.59220,438.30,550.17
25.61092,435.62,551.94
25.63182,437.66,553.26
25.65085,440.43,552.11
25.67190,439.35,551.11
25.69183,436.39,552.16
25.71232,437.34,552.15
25.73165,440.34,553.71
25.75288,439.34,551.04
25.77262,437.67,552.33
25.79198,439.15,551.65
25.81205,437.97,551.65
25.83258,439.19,552.69
25.85180,439.23,551.93
25.87283,438.76,549.89
25.89230,439.34,553.30
25.91190,440.33,549.68
25.93319,439.34,548.81
25.95270,437.43,551.40
25.97121,436.99,550.48
25.99248,438.10,551.12
26.01141,436.24,551.15
26.03257,437.86,549.11
26.05158,437.52,548.44
26.07164,439.11,549.13
26.09241,438.47,551.32
26.11193,437.03,550.25
26.13276,440.35,550.96
26.15286,436.88,548.46
26.17175,437.35,550.29
26.19171,437.50,550.08
26.21297,438.94,548.53
26.23207,437.51,551.87
26.25384,438.09,550.94
26.27364,438.02,548.62
26.29400,438.58,550.82
26.31239,439.73,551.94
26.33419,441.21,549.66
26.35335,439.01,550.20
26.37400,425.32,547.47
26.39367,407.79,541.44
26.41260,381.12,539.27
26.43366,358.34,534.30
26.45223,337.43,533.69
26.47214,323.28,528.82
26.49211,313.36,528.09
26.51303,308.40,523.20
26.53263,305.02,517.88
26.55213,303.14,512.87
26.57368,308.54,513.00
26.59289,316.97,510.17
26.61326,325.23,507.15
26.63386,334.00,510.15
26.65292,343.56,508.68
26.67293,350.20,511.15
26.69317,359.22,513.97
26.71348,368.17,515.48
26.73266,377.20,519.11
26.75307,384.65,518.53
26.77377,394.23,522.16
26.79223,399.73,528.76
26.81333,407.52,531.62
26.83410,410.03,533.78
26.85381,416.08,535.70
26.87349,420.30,539.05
26.89252,423.71,540.64
26.91272,429.01,540.77
26.93356,428.77,542.56
26.95366,431.21,542.01
26.97221,436.09,543.53
26.99399,438.12,546.08
27.01262,439.12,545.36
27.03282,435.91,546.84
27.05308,441.92,547.00
27.07381,440.08,548.13
27.09491,442.18,548.53
27.11411,446.16,547.56
27.13371,445.99,551.34
27.15403,444.71,551.31
27.17346,445.77,552.06
27.19492,448.89,553.10
27.21381,448.65,551.86
27.23478,448.78,550.80
27.25513,449.92,551.11
27.27508,451.70,551.73
27.29359,453.41,554.29
27.31401,452.65,552.13
27.33364,450.77,554.34
27.35419,451.58,551.83
27.37412,453.07,554.29
27.39466,454.24,552.43
27.41468,452.58,551.73
27.43401,453.78,551.81
27.45455,455.13,554.48
27.47476,452.46,555.60
27.49473,451.22,554.20
27.51460,451.38,552.69
27.53337,453.95,552.86
27.55500,454.07,551.50
27.57474,451.30,552.42
27.59432,452.98,550.92
27.61495,453.85,556.04
27.63489,459.96,556.45
27.65357,462.89,562.09
27.67401,469.33,572.32
27.69328,475.53,581.53
27.71314,493.03,590.74
27.73402,512.32,597.57
27.75423,536.43,605.16
27.77405,562.20,610.06
27.79308,580.12,613.61
27.81358,597.22,615.61
27.83370,605.51,611.24
27.85416,605.00,602.52
27.87481,599.76,597.20
27.89320,589.95,591.05
27.91422,576.87,584.39
27.93348,567.03,580.90
27.95451,555.61,575.66
27.97401,542.87,570.64
27.99508,533.44,565.99
28.01562,521.28,566.09
28.03535,514.21,563.70
28.05419,507.47,559.55
28.07420,499.41,558.51
28.09588,493.27,559.21
28.11547,488.34,556.18
28.13400,483.99,556.51
28.15435,477.46,557.35
28.17494,476.58,557.97
28.19450,472.96,556.29
28.21578,469.97,555.74
28.23402,468.36,555.21
28.25523,466.69,553.59
28.27481,463.30,555.10
28.29417,459.47,554.19
28.31610,458.02,556.46
28.33458,456.96,554.15
28.35476,455.42,556.58
28.37529,455.31,553.90
28.39597,456.52,557.21
28.41439,455.09,556.56
28.43556,455.67,553.65
28.45704,453.19,554.16
28.47519,455.59,555.15
28.49535,455.66,555.14
28.51629,455.68,557.69
28.53521,455.41,555.54
28.55680,453.20,554.71
28.57581,453.02,556.58
28.59614,451.02,555.12
28.61667,453.77,555.75
28.63554,450.53,553.40
28.65715,451.11,554.67
28.67551,451.44,557.73
28.69586,450.50,557.83
28.71587,452.26,556.03
28.73611,452.82,557.15
28.75659,451.61,559.39
28.77590,450.17,556.67
28.79516,448.92,558.77
28.81650,447.92,558.43
28.83517,448.65,562.56
28.85629,448.48,560.09
28.87750,449.11,557.85
28.89788,449.27,559.93
28.91680,449.78,557.25
28.93800,447.30,557.10
28.95770,446.44,558.38
28.97801,448.40,558.61
28.99752,445.00,558.12
29.01648,443.40,554.78
29.03796,443.00,558.27
29.05764,446.17,557.49
29.07693,447.05,555.84
29.09780,446.91,556.69
29.11705,447.96,553.85
29.13768,448.21,555.46
29.15631,445.29,555.73
29.17704,448.72,555.08
29.19609,447.75,553.08
29.21753,447.65,555.87
29.23700,447.18,554.58
29.25749,445.63,555.24
29.27761,448.29,555.62
29.29752,448.48,553.09
29.31605,450.11,554.10
29.33727,449.60,554.95
29.35881,446.81,553.02
29.37943,445.93,552.40
29.39868,447.24,551.54
29.41847,445.59,554.29
29.43817,444.97,554.85
29.46007,445.37,555.66
29.47906,444.25,554.03
29.49827,445.12,553.35
29.51899,442.97,554.18
29.53831,442.10,553.69
29.55965,444.26,555.60
29.57972,443.58,555.82
29.59898,443.66,556.94
29.61916,441.85,556.58
29.63921,442.80,556.65
29.65978,442.82,557.57
29.68002,441.30,559.16
29.69812,441.67,558.85
29.71983,441.06,557.63
29.73810,442.08,557.72
29.75927,443.06,557.32
29.77878,441.39,559.63
29.79982,442.53,559.68
29.81792,441.07,558.59
29.83879,442.00,560.06
29.85831,440.98,560.68
29.87816,440.58,560.87
29.89969,441.85,560.03
29.91914,440.74,559.63
29.93855,443.33,559.52
29.95976,443.92,559.93
29.97940,442.89,557.33
29.99853,442.22,557.81
30.01936,441.47,558.13
30.03848,442.72,561.01
30.05952,442.66,560.63
30.07916,443.68,557.65
30.09997,444.29,559.71
30.11820,441.16,559.85
30.13923,444.41,557.62
30.15882,443.28,558.64
30.17952,443.22,557.90
30.19917,440.91,558.61
30.21818,440.08,557.88
30.23835,443.13,557.14
30.25803,440.93,559.57
30.27828,439.30,557.71
30.29911,440.05,557.17
30.31973,440.51,557.26
30.33909,440.66,558.40
30.35937,436.82,561.46
30.37975,427.65,561.70
30.39875,410.97,556.04
30.41805,384.34,552.07
30.43855,360.01,547.12
30.45887,339.38,539.64
30.47856,324.15,530.73
30.49904,312.19,525.99
30.51993,304.97,520.05
30.53979,305.04,513.50
30.55871,304.10,510.94
30.57816,306.67,509.40
30.59927,312.05,508.15
30.61900,318.76,509.98
30.63864,328.34,509.43
30.65904,338.60,512.49
30.67845,343.65,512.28
30.69791,353.77,513.88
30.71827,359.97,517.50
30.73847,368.79,519.94
30.75800,377.19,523.13
30.77960,381.63,525.30
30.79834,391.79,529.13
30.82016,397.19,531.76
30.84013,402.99,534.17
30.85815,405.99,537.11
30.87832,411.37,536.89
30.89878,415.42,540.56
30.92048,418.09,542.93
30.93971,418.75,543.10
30.96080,421.86,544.73
30.98029,420.45,546.61
31.00016,423.22,550.86
31.01936,424.67,551.34
31.03988,427.89,550.32
31.06097,425.86,551.70
31.07980,425.89,554.01
31.09986,429.50,553.94
31.11983,428.62,555.88
31.13926,427.97,555.91
31.15978,430.85,555.08
31.18069,431.81,559.32
31.20033,432.12,559.28
31.21997,433.15,556.90
31.23992,433.91,560.19
31.26100,433.23,557.10
31.28051,432.17,556.95
31.30039,431.18,559.20
31.32008,432.85,560.71
31.34064,432.55,559.55
31.36056,435.90,563.29
31.38058,444.07,572.40
31.40040,456.50,598.07
31.42005,476.85,624.82
31.44070,498.01,655.58
31.46194,526.99,679.59
31.48195,549.92,688.72
31.50259,569.94,684.54
31.52196,587.56,668.55
31.54170,600.60,648.17
31.56259,604.34,627.84
31.58252,598.76,606.74
31.60147,588.77,588.85
31.62163,577.58,572.40
31.64204,562.31,558.25
31.66114,547.43,551.08
31.68248,535.68,539.32
31.70243,526.12,537.50
31.72141,517.04,531.75
31.74132,503.89,531.11
31.76105,497.51,528.16
31.78269,487.44,528.61
31.80225,482.70,528.35
31.82207,475.93,530.62
31.84174,468.67,532.83
31.86349,466.95,531.46
31.88336,461.27,535.34
31.90220,458.60,535.23
31.92276,456.65,536.80
31.94245,453.87,534.99
31.96376,448.69,538.97
31.98252,447.21,537.65
32.00229,449.58,537.41
32.02338,445.11,538.18
32.04296,447.57,541.45
32.06316,445.01,539.32
32.08246,443.73,541.86
32.10365,441.58,540.23
32.12342,444.62,543.74
32.14230,443.35,544.43
32.16380,442.28,542.46
32.18377,441.55,545.82
32.20237,441.98,548.68
32.22229,439.43,547.96
32.24300,441.72,546.90
32.26269,441.16,549.89
32.28379,439.45,548.79
32.30386,439.11,546.79
32.32381,441.29,546.81
32.34193,440.44,550.21
32.36329,440.59,549.29
32.38217,441.79,546.34
32.40250,439.61,549.09
32.42348,437.11,545.69
32.44384,435.42,547.11
32.46328,436.84,544.18
32.48352,438.36,545.69
32.50393,438.97,543.02
32.52306,439.20,546.66
32.54238,436.34,546.28
32.56292,435.93,544.05
32.58271,439.35,543.97
32.60321,435.71,544.32
32.62247,438.34,544.21
32.64276,438.87,544.49
32.66349,438.13,546.78
32.68236,439.70,544.45
32.70214,440.41,545.80
32.72209,442.90,542.25
32.74215,440.09,546.17
32.76295,442.05,543.36
32.78393,441.35,546.32
32.80274,440.98,543.35
32.82215,439.28,546.35
32.84201,438.30,545.05
32.86336,441.58,544.33
32.88198,442.38,547.43
32.90226,443.31,545.94
32.92366,439.38,545.19
32.94296,440.57,547.90
32.96321,439.70,545.88
32.98336,439.45,545.00
33.00304,439.78,547.45
33.02366,442.46,546.85
33.04250,442.18,548.10
33.06369,441.19,546.30
33.08365,440.30,548.61
33.10267,438.04,548.33
33.12194,438.54,547.81
33.14354,436.89,549.60
33.16215,438.17,550.06
33.18400,440.21,548.54
33.20276,441.67,549.97
33.22375,438.82,550.66
33.24249,439.99,547.72
33.26207,443.30,546.88
33.28202,443.43,548.63
33.30350,444.66,546.30
33.32262,442.49,548.75
33.34228,442.76,549.11
33.36388,440.51,547.70
33.38316,443.22,547.60
33.40206,443.50,550.40
33.42253,443.10,549.00
33.44217,443.19,551.19
33.46366,441.87,549.76
33.48349,442.48,551.56
33.50359,442.76,548.99
33.52361,441.47,548.61
33.54267,443.19,549.00
33.56216,440.62,549.52
33.58276,442.00,548.49
33.60242,441.69,551.16
33.62330,443.80,549.29
33.64203,441.15,549.35
33.66206,441.50,551.56
33.68208,442.73,552.16
33.70347,443.51,551.34
33.72266,441.57,550.81
33.74296,441.45,552.40
33.76342,443.12,550.68
33.78186,443.85,550.66
33.80366,442.92,549.32
33.82344,444.10,549.93
33.84346,442.26,548.69
33.86342,441.85,549.05
33.88208,445.57,550.07
33.90235,446.38,547.55
33.92347,447.76,547.54
33.94195,446.79,546.84
33.96399,446.98,550.46
33.98418,446.11,546.69
34.00329,447.11,547.91
34.02292,447.61,546.17
34.04318,446.77,548.46
34.06484,444.65,548.43
34.08457,446.88,548.95
34.10496,445.24,546.74
34.12321,444.68,545.91
34.14348,444.37,545.93
34.16369,444.61,547.84
34.18468,446.53,545.08
34.20405,444.58,547.48
34.22307,445.69,547.00
34.24388,446.38,545.80
34.26467,448.34,547.42
34.28310,447.04,546.82
34.30334,446.61,544.12
34.32412,448.24,545.42
34.34376,450.65,542.37
34.36330,449.55,542.61
34.38347,450.50,543.37
34.40290,448.38,544.64
34.42327,449.11,542.91
34.44313,450.88,541.94
34.46307,448.41,542.02
34.48302,452.87,542.90
34.50338,442.96,540.31
34.52343,422.91,535.55
34.54387,399.19,532.83
34.56311,373.83,534.13
34.58324,350.40,532.72
34.60385,335.56,526.84
34.62402,320.71,516.55
34.64478,312.91,510.21
34.66335,306.97,501.45
34.68403,308.05,500.77
34.70483,310.12,499.86
34.72325,314.90,499.23
34.74329,320.48,497.64
34.76429,329.74,500.95
34.78457,335.25,502.12
34.80321,344.38,504.85
34.82342,355.43,508.89
34.84444,362.19,511.38
34.86466,369.78,515.19
34.88413,377.81,518.97
34.90475,389.23,521.94
34.92408,396.01,523.77
34.94299,402.92,529.59
34.96338,406.82,531.94
34.98419,416.51,533.16
35.00296,420.14,535.88
35.02489,423.81,536.26
35.04399,428.20,538.78
35.06394,431.63,537.57
35.08355,432.49,541.24
35.10294,436.36,539.49
35.12436,437.32,537.82
35.14360,437.61,538.71
35.16474,440.28,540.67
35.18323,441.93,541.26
35.20362,440.26,542.12
35.22445,444.05,542.34
35.24389,443.85,543.36
35.26415,447.70,539.83
35.28489,447.49,541.76
35.30378,449.96,539.05
35.32379,450.81,537.86
35.34403,450.96,535.80
35.36380,447.93,533.10
35.38366,446.66,533.14
35.40408,449.97,533.61
35.42341,451.11,533.30
35.44454,450.52,535.74
35.46404,450.71,540.16
35.48373,449.96,541.24
35.50286,450.51,544.02
35.52325,452.95,545.34
35.54374,453.42,546.37
35.56468,453.62,547.05
35.58363,453.58,548.63
35.60376,449.75,548.43
35.62484,450.93,548.65
35.64420,454.09,549.70
35.66421,467.60,558.76
35.68291,484.86,569.41
35.70373,509.67,582.92
35.72429,541.37,590.83
35.74383,571.45,599.16
35.76350,601.93,607.58
35.78381,621.50,609.76
35.80336,628.61,611.02
35.82462,628.68,607.54
35.84331,621.54,604.16
35.86307,610.96,598.29
35.88458,596.75,589.86
35.90413,583.17,584.40
35.92488,568.59,577.47
35.94422,554.92,573.69
35.96459,544.21,566.45
35.98336,534.08,565.56
36.00295,524.62,559.98
36.02363,517.67,558.95
36.04426,508.11,554.07
36.06429,499.92,553.50
36.08436,497.23,552.02
36.10385,488.14,548.99
36.12489,483.71,548.65
36.14349,481.02,545.99
36.16283,476.90,543.21
36.18352,474.28,545.54
36.20421,472.00,543.19
36.22431,469.63,544.25
36.24466,464.90,542.15
36.26427,466.60,542.05
36.28494,463.14,541.40
36.30335,463.70,542.60
36.32489,461.96,541.01
36.34366,461.73,540.75
36.36440,459.39,540.66
36.38436,458.05,542.34
36.40434,458.10,543.89
36.42507,457.43,544.05
36.44528,455.75,541.79
36.46508,458.29,542.19
36.48496,457.07,542.03
36.50587,454.76,543.37
36.52450,453.44,542.85
36.54493,453.09,543.98
36.56632,455.27,540.68
36.58653,454.67,542.60
36.60659,452.36,539.15
36.62659,451.28,538.94
36.64573,452.18,538.51
36.66580,450.30,537.51
36.68559,449.18,536.62
36.70565,453.35,536.57
36.72665,452.48,539.24
36.74575,451.62,535.59
36.76594,451.36,535.11
36.78617,451.62,537.35
36.80675,453.89,537.75
36.82564,452.74,536.69
36.84559,452.44,536.79
36.86674,451.22,540.55
36.88496,453.80,540.31
36.90610,453.02,540.54
36.92507,453.86,542.15
36.94750,451.72,541.33
36.96691,450.41,541.31
36.98741,452.07,542.81
37.00740,453.03,541.79
37.02721,452.30,545.67
37.04742,453.14,544.97
37.06699,450.97,544.68
37.08729,451.74,548.65
37.10693,449.24,545.45
37.12801,446.18,548.41
37.14804,446.16,548.20
37.16736,448.28,547.28
37.18745,446.28,547.11
37.20736,444.00,549.48
37.22686,445.47,548.41
37.24714,443.98,546.22
37.26741,445.45,546.00
37.28837,445.00,548.33
37.30885,444.85,549.42
37.32911,447.05,552.02
37.34853,445.59,551.89
37.36887,443.18,550.88
37.38783,443.41,550.27
37.40857,446.01,549.72
37.42804,445.91,550.49
37.44834,446.72,548.07
37.46962,447.42,548.25
37.48822,445.02,547.68
37.50870,447.60,548.44
37.52966,444.14,548.42
37.54865,445.71,549.23
37.56978,444.96,549.15
37.58958,445.82,551.73
37.60924,444.08,551.53
37.62838,444.16,551.61
37.64885,443.16,551.69
37.66980,445.20,550.12
37.68938,442.72,551.84
37.70921,446.21,550.45
37.72893,444.18,549.70
37.74948,443.12,550.62
37.76879,447.31,549.61
37.78922,445.89,549.52
37.80961,445.33,551.36
37.83058,441.86,548.62
37.85164,440.60,548.06
37.87111,440.41,548.82
37.89205,440.13,548.19
37.91161,439.18,547.98
37.93093,437.33,551.79
37.95193,435.81,547.87
37.97231,438.70,550.49
37.99230,436.75,551.24
38.01258,435.57,549.66
38.03192,435.81,549.39
38.05102,437.58,548.61
38.07244,435.55,548.12
38.09214,435.79,549.28
38.11174,436.97,549.54
38.13087,436.70,549.31
38.15255,437.46,546.13
38.17096,436.71,546.31
38.19277,436.61,547.13
38.21150,436.87,546.77
38.23145,437.85,545.88
38.25210,437.23,543.77
38.27331,437.10,544.28
38.29346,434.14,545.38
38.31353,434.29,543.91
38.33208,433.39,543.80
38.35379,436.02,547.12
38.37316,435.15,545.34
38.39320,435.43,547.08
38.41209,435.54,545.09
38.43321,435.20,547.90
38.45271,434.65,546.44
38.47225,434.33,545.31
38.49377,436.04,548.53
38.51217,434.43,548.30
38.53206,433.41,547.20
38.55299,432.57,545.20
38.57422,434.57,543.89
38.59445,436.13,542.67
38.61299,435.77,542.28
38.63275,434.95,541.68
38.65337,439.20,541.13
38.67463,430.13,539.87
38.69418,410.56,536.57
38.71336,387.39,532.55
38.73400,361.12,531.13
38.75388,338.33,527.15
38.77405,323.01,521.05
38.79325,307.12,514.57
38.81478,302.09,508.24
38.83444,297.63,506.65
38.85574,293.99,501.06
38.87489,299.24,499.71
38.89383,302.31,498.70
38.91547,307.36,497.13
38.93521,317.87,496.52
38.95416,323.94,497.39
38.97410,335.66,501.72
38.99576,343.68,503.55
39.01549,351.44,505.09
39.03477,360.03,507.73
39.05431,368.81,511.99
39.07490,377.07,514.83
39.09398,380.61,516.49
39.11393,390.84,518.64
39.13492,397.18,518.49
39.15540,402.07,523.21
39.17482,407.56,522.29
39.19508,411.15,525.63
39.21512,415.73,530.46
39.23374,418.05,533.09
39.25531,422.24,533.35
39.27507,424.37,536.09
39.29452,424.16,536.60
39.31558,426.22,535.61
39.33477,431.45,539.76
39.35434,430.25,538.94
39.37427,432.71,540.61
39.39539,433.55,543.11
39.41510,431.56,539.90
39.43413,435.52,539.81
39.45514,433.35,540.06
39.47509,434.75,541.41
39.49535,435.97,542.52
39.51524,437.65,544.27
39.53533,439.02,544.81
39.55580,439.10,546.19
39.57619,439.70,544.44
39.59666,439.02,546.54
39.61603,438.53,545.34
39.63524,436.71,545.54
39.65602,439.70,545.64
39.67540,438.94,547.30
39.69688,439.79,551.18
39.71611,450.04,558.07
39.73652,464.51,566.93
39.75655,490.86,580.85
39.77569,521.80,588.19
39.79635,550.51,593.57
39.81566,581.59,601.40
39.83508,601.74,603.53
39.85534,608.58,604.94
39.87496,609.50,602.03
39.89616,602.02,597.41
39.91498,590.27,592.75
39.93587,578.80,589.03
39.95517,566.42,586.54
39.97645,554.66,581.01
39.99605,541.25,580.05
40.01674,535.77,574.12
40.03512,531.08,575.08
40.05664,521.12,573.74
40.07586,516.12,568.77
40.09624,508.34,567.65
40.11616,500.79,565.18
40.13519,493.05,562.54
40.15618,489.42,560.52
40.17619,482.20,558.44
40.19581,476.83,555.19
40.21533,475.43,556.75
40.23575,470.67,555.42
40.25623,468.11,552.72
40.27570,461.49,553.73
40.29510,458.27,550.51
40.31598,458.31,550.72
40.33628,453.99,550.35
40.35639,454.09,551.45
40.37601,451.18,548.96
40.39532,451.96,550.13
40.41498,448.16,550.85
40.43489,450.38,550.20
40.45506,448.47,550.04
40.47588,447.10,548.01
40.49608,447.76,546.93
40.51652,444.47,548.82
40.53494,445.07,550.55
40.55505,444.99,550.36
40.57517,443.55,550.71
40.59571,446.21,546.89
40.61482,447.05,550.06
40.63515,447.46,548.97
40.65561,443.51,548.64
40.67516,445.45,549.60
40.69657,445.89,549.87
40.71484,442.34,548.96
40.73649,444.27,548.28
40.75766,443.82,550.40
40.77692,445.19,551.25
40.79748,447.44,551.80
40.81691,446.41,552.56
40.83646,447.24,550.51
40.85678,448.18,551.21
40.87651,450.07,549.93
40.89585,451.38,548.86
40.91676,451.92,548.33
40.93795,451.72,551.13
40.95792,449.68,547.95
40.97828,448.27,549.68
40.99761,450.24,547.65
41.01785,451.05,548.98
41.03867,451.69,546.92
41.05718,449.63,551.10
41.07830,450.33,547.99
41.09879,450.40,551.03
41.11832,450.00,548.58
41.13892,450.30,547.56
41.15819,451.91,549.21
41.17797,455.92,550.67
41.19922,454.49,549.29
41.21911,453.69,551.15
41.23821,454.44,552.20
41.25886,451.40,549.72
41.27814,451.89,552.89
41.29893,454.41,549.63
41.31896,454.94,550.85
41.33904,455.58,551.74
41.35835,454.10,551.17
41.37894,456.49,549.16
41.39863,456.83,551.67
41.41789,452.61,547.73
41.43811,453.26,548.60
41.45804,452.88,549.11
41.47820,454.33,550.27
41.49771,453.61,549.82
41.51806,452.75,547.90
41.53890,451.34,547.58
41.55857,453.79,546.14
41.57832,454.59,547.98
41.59927,454.72,548.00
41.61970,452.47,547.49
41.63868,451.14,550.15
41.65788,452.14,548.66
41.67869,451.59,547.89
41.69790,453.37,548.41
41.71757,454.61,549.85
41.73846,451.89,548.07
41.76041,454.93,546.23
41.77917,452.32,547.23
41.80034,452.42,549.79
41.81933,451.70,547.54
41.83985,454.25,549.11
41.86066,453.93,552.66
41.88127,453.45,550.04
41.90052,450.41,554.04
41.92035,450.01,550.39
41.94062,447.58,551.76
41.96135,449.54,551.61
41.98119,448.60,549.11
42.00024,449.86,550.08
42.01994,447.40,548.82
42.04119,447.22,549.77
42.06158,446.80,549.37
42.08131,448.36,548.82
42.09995,449.93,551.28
42.12056,447.12,551.86
42.13994,448.09,551.68
42.16014,451.00,549.29
42.18168,451.23,551.45
42.20022,452.01,548.94
42.22057,449.97,549.79
42.24031,450.93,548.07
42.25976,449.57,550.71
42.28134,451.60,547.03
42.30009,450.77,548.99
42.32005,449.90,547.77
42.34150,448.87,548.49
42.36101,452.10,550.41
42.38117,450.50,550.03
42.40096,448.59,549.65
42.42222,449.29,549.48
42.44236,447.97,550.53
42.46212,450.47,547.55
42.48202,447.79,550.12
42.50169,447.46,549.59
42.52105,446.51,550.94
42.54135,448.07,548.81
42.56128,448.92,550.83
42.58151,448.91,549.49
42.60212,446.64,547.23
42.62104,432.39,548.03
42.64174,407.16,548.11
42.66231,384.45,549.17
42.68283,356.67,547.25
42.70233,336.27,542.76
42.72151,317.58,534.31
42.74058,303.67,527.81
42.76190,297.37,520.08
42.78112,298.07,512.31
42.80195,298.64,507.37
42.82156,301.21,501.81
42.84262,309.76,496.90
42.86092,313.74,495.06
42.88194,323.79,496.63
42.90083,334.37,493.50
42.92270,346.33,494.17
42.94272,356.64,496.21
42.96182,364.94,501.03
42.98228,373.99,501.62
43.00139,382.56,506.31
43.02095,389.96,511.62
43.04157,399.43,514.01
43.06165,406.03,521.08
43.08149,411.38,524.17
43.10208,415.10,527.54
43.12254,419.96,526.71
43.14337,422.29,530.06
43.16253,424.90,533.08
43.18341,428.01,535.70
43.20368,428.61,535.96
43.22249,429.79,541.02
43.24330,432.71,538.99
43.26434,431.99,542.12
43.28321,432.84,541.96
43.30389,434.19,542.77
43.32282,433.86,542.48
43.34372,434.33,544.05
43.36406,436.31,541.54
43.38370,435.91,544.46
43.40522,436.01,545.74
43.42446,434.58,544.49
43.44376,435.30,545.92
43.46511,436.22,546.13
43.48388,436.82,545.46
43.50411,434.11,545.59
43.52506,433.83,547.00
43.54491,437.11,546.62
43.56409,440.34,549.55
43.58528,454.00,560.57
43.60455,466.77,578.91
43.62501,494.36,594.70
43.64431,520.98,606.08
43.66536,549.43,612.24
43.68480,572.03,616.62
43.70526,596.79,612.83
43.72527,608.00,609.06
43.74540,606.65,600.93
43.76501,604.42,595.80
43.78435,591.68,588.50
43.80470,579.04,578.63
43.82525,567.55,575.92
43.84524,552.18,568.88
43.86486,543.13,565.65
43.88630,530.87,560.89
43.90525,518.50,557.56
43.92643,508.15,554.91
43.94648,499.50,554.00
43.96609,490.83,552.59
43.98506,481.85,554.34
44.00568,474.86,552.24
44.02570,469.81,552.94
44.04662,463.37,548.20
44.06475,461.38,546.41
44.08544,457.67,548.46
44.10639,453.83,545.51
44.12615,453.01,545.48
44.14503,450.27,546.65
44.16580,447.80,546.30
44.18455,444.55,547.65
44.20496,443.61,544.33
44.22586,442.26,547.97
44.24625,439.43,545.98
44.26628,439.42,546.73
44.28547,440.47,547.04
44.30594,438.63,548.45
44.32606,436.16,548.64
44.34650,436.89,548.79
44.36646,434.69,549.33
44.38647,435.62,549.12
44.40545,436.03,547.71
44.42519,438.23,549.66
44.44634,436.66,546.41
44.46675,434.65,544.89
44.48472,434.48,545.37
44.50624,434.81,546.87
44.52664,432.78,545.72
44.54656,432.76,545.89
44.56542,434.99,543.48
44.58484,434.14,544.75
44.60556,434.08,543.36
44.62601,434.93,546.55
44.64492,434.34,546.37
44.66610,433.42,545.82
44.68636,433.63,546.18
44.70513,432.25,546.33
44.72574,434.62,546.90
44.74592,434.95,545.08
44.76576,432.29,547.84
44.78624,431.66,546.67
44.80558,431.04,543.69
44.82528,434.05,543.67
44.84652,431.30,546.29
44.86583,433.36,546.54
44.88475,431.55,546.99
44.90540,430.87,545.43
44.92677,434.65,545.56
44.94526,431.53,545.89
44.96642,434.72,546.56
44.98541,434.46,547.45
45.00515,432.47,544.81
45.02539,435.49,545.46
45.04668,435.89,544.73
45.06525,434.54,545.16
45.08500,435.91,547.09
45.10478,436.40,544.53
45.12549,434.02,544.30
45.14562,436.58,545.67
45.16668,433.79,544.98
45.18564,433.45,544.05
45.20612,434.17,544.56
45.22501,436.09,544.81
45.24620,436.68,544.62
45.26527,434.24,542.76
45.28581,433.92,544.33
45.30635,435.47,545.49
45.32537,434.10,545.40
45.34483,436.51,545.07
45.36610,436.47,544.30
45.38632,436.30,546.02
45.40499,435.84,546.16
45.42649,434.91,546.52
45.44595,432.05,545.14
45.46581,432.42,545.57
45.48537,432.14,547.35
45.50481,433.43,546.13
45.52558,432.63,545.22
45.54558,432.03,542.29
45.56594,432.01,545.03
45.58551,436.55,542.59
45.60577,433.55,542.76
45.62546,436.89,540.36
45.64514,436.14,539.55
45.66502,436.28,540.32
45.68602,436.60,543.25
45.70573,438.11,542.00
45.72482,439.61,542.27
45.74542,441.52,544.30
45.76564,441.34,544.61
45.78513,444.22,548.61
45.80573,446.17,546.24
45.82657,441.84,546.99
45.84583,440.65,544.73
45.86569,442.24,545.88
45.88637,439.62,545.72
45.90505,439.07,544.91
45.92561,441.07,545.50
45.94498,438.03,549.94
45.96488,440.30,559.47
45.98543,441.78,571.72
46.00532,444.79,595.91
46.02590,454.07,627.02
46.04624,461.04,653.14
46.06609,468.80,662.10
46.08652,470.21,663.76
46.10467,468.81,650.36
46.12728,461.75,615.98
46.14685,452.05,572.47
46.16649,439.81,533.82
46.18607,430.41,501.29
46.20707,425.59,478.25
46.22604,424.82,461.60
46.24616,423.46,452.88
46.26570,420.40,448.67
46.28731,419.21,451.56
46.30641,420.90,452.30
46.32650,421.63,458.37
46.34580,422.21,462.68
46.36610,421.42,467.38
46.38664,422.40,473.39
46.40816,426.26,481.64
46.42858,424.80,487.86
46.44795,428.30,495.72
46.46728,428.35,501.58
46.48688,434.26,503.52
46.50784,431.52,512.85
46.52712,430.92,521.51
46.54681,426.23,534.53
46.56660,433.24,537.88
46.58835,434.84,540.73
46.60760,442.00,548.48
46.62771,445.74,554.37
46.64792,446.90,560.31
46.66826,448.58,571.88
46.68828,451.58,581.29
46.70853,458.63,598.95
46.72926,463.71,636.26
46.74794,475.71,665.43
46.76918,487.40,691.85
46.78915,498.51,702.61
46.80754,502.17,728.03
46.82907,504.68,744.46
46.84840,501.56,747.42
46.86813,500.33,752.71
46.88921,496.98,751.00
46.90935,490.31,742.06
46.92842,482.37,738.20
46.94960,475.35,729.98
46.96766,474.41,715.05
46.98868,464.09,700.72
47.00912,458.97,688.26
47.02874,458.25,675.09
47.04767,455.07,661.73
47.06802,456.23,647.04
47.08913,455.38,645.32
47.10938,457.79,644.87
47.12859,459.17,633.92
47.14936,458.73,633.88
47.16894,460.58,626.41
47.18905,459.90,615.28
47.20826,457.32,618.43
47.22917,458.87,613.24
47.24949,459.72,611.55
47.26880,454.32,609.86
47.28836,453.13,598.77
47.30846,456.84,592.02
47.32887,450.07,587.12
47.34923,449.31,578.27
47.36900,450.25,572.71
47.38798,449.16,563.09
47.40894,448.85,558.57
47.42899,444.79,549.72
47.44845,455.49,543.81
47.46794,452.94,548.24
47.48822,452.73,544.98
47.50966,454.46,536.75
47.52940,451.81,521.84
47.54842,451.85,505.90
47.56969,448.62,498.67
47.58842,446.44,488.62
47.60772,443.05,498.59
47.62843,445.77,502.14
47.64768,449.06,501.49
