Program Time [s],data 0,data 1
118.61485,387.38,499.15
118.63313,391.14,500.04
118.65298,391.55,499.33
118.67260,389.49,499.93
118.69343,391.49,502.91
118.71294,392.87,504.61
118.73356,392.04,501.05
118.75350,391.80,502.97
118.77230,391.34,502.82
118.79331,395.98,512.71
118.81263,394.45,518.14
118.83281,395.28,522.16
118.85211,395.65,524.79
118.87352,396.65,519.91
118.89318,399.64,519.48
118.91356,399.29,515.59
118.93258,402.19,510.81
118.95233,397.56,504.42
118.97351,401.75,504.25
118.99291,398.84,501.53
119.01346,397.77,494.96
119.03349,390.66,493.98
119.05258,399.38,492.20
119.07317,402.61,492.31
119.09314,403.68,491.01
119.11227,404.80,494.78
119.13289,406.23,496.16
119.15277,410.64,499.01
119.17372,411.54,503.66
119.19237,410.32,503.46
119.21255,410.13,507.35
119.23228,404.07,509.22
119.25289,406.82,509.01
119.27222,405.54,512.49
119.29257,405.29,513.74
119.31201,404.94,509.56
119.33374,406.76,507.49
119.35470,405.76,514.00
119.37429,397.05,507.82
119.39424,379.66,496.92
119.41476,362.64,483.43
119.43412,345.47,472.06
119.45424,328.27,460.66
119.47467,309.36,450.15
119.49399,296.32,440.56
119.51376,286.23,435.56
119.53531,282.85,433.27
119.55430,280.97,431.27
119.57460,282.18,430.32
119.59339,283.22,435.42
119.61467,286.19,442.11
119.63416,291.62,444.16
119.65487,299.42,450.39
119.67318,309.67,455.87
119.69468,314.56,456.55
119.71377,322.97,465.51
119.73407,331.24,469.18
119.75450,337.46,472.91
119.77429,345.07,476.15
119.79304,349.93,480.07
119.81302,358.81,485.93
119.83496,362.88,486.87
119.85417,366.95,491.37
119.87358,370.24,490.96
119.89441,379.74,492.49
119.91324,378.81,496.88
119.93427,378.83,496.63
119.95445,382.67,495.63
119.97498,386.57,497.91
119.99334,388.82,500.01
120.01489,388.71,499.36
120.03376,386.97,502.05
120.05400,389.95,503.68
120.07459,388.76,504.51
120.09438,391.56,504.77
120.11421,390.92,506.79
120.13389,391.13,508.74
120.15350,391.10,503.47
120.17312,393.25,504.28
120.19476,395.91,507.48
120.21480,402.26,518.19
120.23405,414.12,532.17
120.25366,433.14,550.52
120.27399,449.35,569.81
120.29492,476.13,588.42
120.31442,501.31,598.74
120.33416,523.73,601.10
120.35393,545.62,598.50
120.37405,547.28,590.78
120.39425,547.46,580.37
120.41450,538.00,570.64
120.43396,528.97,561.79
120.45436,517.50,551.01
120.47394,506.84,545.83
120.49307,492.50,534.06
120.51468,485.15,523.97
120.53385,471.79,519.99
120.55431,466.47,512.38
120.57326,459.06,508.93
120.59416,450.90,504.50
120.61384,446.49,503.65
120.63439,439.43,501.78
120.65334,432.17,500.24
120.67384,426.39,500.46
120.69351,421.52,501.22
120.71357,417.66,502.18
120.73464,416.12,501.11
120.75418,413.08,500.51
120.77308,405.27,501.31
120.79457,404.82,500.21
120.81394,401.56,501.17
120.83315,402.10,508.33
120.85426,400.91,508.24
120.87384,401.46,514.45
120.89499,404.76,524.19
120.91410,404.88,531.71
120.93400,401.64,523.82
120.95485,406.15,524.97
120.97336,408.27,524.58
120.99384,405.20,509.57
121.01400,409.29,514.11
121.03339,417.52,514.82
121.05351,426.50,519.39
121.07362,426.30,514.44
121.09479,429.87,505.10
121.11324,431.86,498.94
121.13581,433.25,499.67
121.15382,438.86,493.60
121.17493,442.20,487.58
121.19409,436.07,478.30
121.21499,434.51,477.08
121.23433,421.48,472.83
121.25403,407.02,477.48
121.27486,415.91,488.46
121.29430,413.37,495.47
121.31407,406.88,496.72
121.33331,406.11,501.74
121.35375,396.74,501.82
121.37321,392.30,503.03
121.39325,389.42,504.54
121.41328,391.05,501.07
121.43361,386.82,500.63
121.45315,383.90,501.51
121.47302,379.15,497.89
121.49312,379.51,499.77
121.51335,379.43,501.36
121.53424,381.22,504.62
121.55425,380.30,506.80
121.57382,381.92,512.53
121.59446,381.56,511.22
121.61390,383.37,511.73
121.63422,384.40,508.66
121.65349,385.31,510.52
121.67323,385.15,510.03
121.69418,383.76,510.33
121.71419,388.20,509.22
121.73387,385.43,509.91
121.75497,389.41,509.72
121.77307,392.06,507.86
121.79328,390.74,506.61
121.81426,389.93,507.51
121.83500,392.32,510.60
121.85320,389.62,508.06
121.87415,389.33,505.98
121.89455,390.42,509.94
121.91314,389.12,505.20
121.93475,391.57,505.47
121.95483,390.32,502.58
121.97416,392.18,501.72
121.99387,391.31,498.08
122.01440,389.67,500.01
122.03427,390.17,500.33
122.05498,387.10,496.43
122.07450,386.03,499.40
122.09494,389.55,500.73
122.11320,387.55,502.45
122.13317,387.09,500.56
122.15355,387.27,500.32
122.17469,386.11,501.99
122.19391,388.22,501.45
122.21353,386.90,501.32
122.23476,387.21,500.34
122.25381,388.40,501.93
122.27423,385.82,499.69
122.29343,389.39,500.76
122.31357,389.15,501.01
122.33433,388.00,501.11
122.35479,387.68,501.89
122.37497,386.11,503.66
122.39300,387.19,502.94
122.41459,386.35,503.36
122.43468,387.02,501.66
122.45360,386.72,502.98
122.47487,386.69,502.78
122.49463,385.66,500.72
122.51366,383.38,502.86
122.53482,384.71,501.50
122.55441,385.65,503.06
122.57470,384.57,503.17
122.59300,383.81,503.07
122.61327,385.15,503.32
122.63461,383.48,501.77
122.65372,385.16,501.87
122.67442,386.15,503.60
122.69433,382.62,503.50
122.71381,383.62,503.99
122.73488,386.02,504.83
122.75365,382.76,504.48
122.77330,383.21,506.23
122.79401,380.54,508.07
122.81388,369.55,507.60
122.83316,348.97,500.77
122.85428,331.98,496.40
122.87395,312.12,487.08
122.89547,294.43,472.07
122.91565,278.57,458.10
122.93574,265.18,442.98
122.95405,254.42,432.56
122.97564,253.99,425.84
122.99496,249.58,421.08
123.01528,253.77,417.75
123.03427,256.32,422.85
123.05596,260.77,427.06
123.07406,268.14,430.87
123.09541,274.06,436.87
123.11441,281.30,441.77
123.13473,289.82,446.47
123.15455,299.03,455.32
123.17557,308.09,462.13
123.19414,314.84,466.90
123.21433,323.07,473.84
123.23556,328.47,478.33
123.25546,334.55,482.54
123.27439,340.55,486.10
123.29430,347.20,489.11
123.31518,349.43,494.07
123.33530,355.65,497.54
123.35595,357.80,499.92
123.37455,361.05,500.82
123.39466,361.96,500.55
123.41512,366.19,502.51
123.43492,367.28,506.13
123.45451,370.02,506.90
123.47411,372.99,506.79
123.49445,374.62,505.23
123.51540,372.10,505.10
123.53458,375.60,506.11
123.55576,379.55,514.79
123.57444,392.72,527.67
123.59484,409.66,553.34
123.61479,433.55,579.34
123.63467,456.20,596.43
123.65594,480.88,611.83
123.67542,506.11,630.54
123.69510,527.70,650.09
123.71548,544.02,676.31
123.73566,552.56,693.06
123.75512,549.48,695.25
123.77503,543.09,678.89
123.79542,533.52,654.25
123.81527,518.85,624.05
123.83506,505.50,594.32
123.85589,491.16,564.91
123.87406,475.77,536.52
123.89535,459.56,512.39
123.91565,450.12,492.61
123.93560,439.22,476.76
123.95483,427.65,464.16
123.97595,423.51,457.81
123.99584,414.69,451.53
124.01569,408.44,448.04
124.03572,406.99,445.86
124.05584,401.34,450.39
124.07492,399.81,453.15
124.09482,396.67,452.91
124.11507,395.65,458.33
124.13569,394.57,459.42
124.15641,393.88,464.52
124.17510,389.27,470.55
124.19666,387.64,471.13
124.21674,389.43,476.45
124.23605,388.08,478.09
124.25676,384.57,480.06
124.27574,387.86,483.78
124.29632,386.07,486.26
124.31623,387.27,490.93
124.33521,386.73,493.31
124.35566,383.25,492.21
124.37596,385.18,496.57
124.39683,384.88,497.32
124.41572,383.07,500.00
124.43537,384.73,500.40
124.45685,386.77,502.61
124.47700,382.94,502.44
124.49713,386.12,504.86
124.51775,383.16,506.67
124.53606,385.83,509.00
124.55772,382.78,509.00
124.57664,384.99,507.35
124.59698,384.28,507.24
124.61756,386.26,507.67
124.63715,386.75,509.97
124.65676,386.31,505.98
124.67698,386.96,508.20
124.69609,386.29,505.18
124.71760,386.54,503.89
124.73753,384.43,504.11
124.75767,386.06,503.30
124.77741,386.59,504.66
124.79672,384.52,505.67
124.81610,385.08,506.29
124.83618,384.10,504.44
124.85632,384.65,504.60
124.87613,388.57,505.32
124.89637,384.26,506.08
124.91681,384.99,505.38
124.93680,385.28,505.79
124.95773,387.04,505.74
124.97787,387.83,505.15
124.99620,387.01,504.09
125.01776,387.84,502.55
125.03657,385.38,503.07
125.05787,386.61,504.52
125.07691,387.49,503.15
125.09626,387.75,502.93
125.11670,386.53,503.41
125.13751,389.47,503.51
125.15629,387.80,501.05
125.17729,388.72,502.32
125.19662,386.66,500.18
125.21764,386.24,500.82
125.23606,386.08,502.28
125.25651,389.32,501.61
125.27601,388.58,499.11
125.29658,389.08,499.22
125.31759,388.46,500.13
125.33677,389.05,502.65
125.35758,388.10,500.73
125.37692,389.22,502.13
125.39735,387.72,501.24
125.41793,390.53,503.21
125.43721,389.29,499.64
125.45735,389.35,498.47
125.47789,391.21,501.78
125.49641,392.07,499.67
125.51765,389.92,499.11
125.53755,390.50,499.88
125.55706,389.20,496.57
125.57767,389.12,498.38
125.59713,389.30,499.43
125.61683,390.20,498.08
125.63620,390.25,499.44
125.65639,391.85,497.44
125.67725,390.67,501.34
125.69769,390.07,498.62
125.71701,388.71,499.82
125.73664,389.68,498.96
125.75736,388.41,499.58
125.77602,389.08,497.39
125.79632,389.78,498.09
125.81612,388.29,500.69
125.83795,387.23,498.49
125.85789,387.15,499.00
125.87725,387.83,499.36
125.89672,388.35,497.18
125.91744,387.07,496.04
125.93721,388.22,500.56
125.95782,389.62,498.72
125.97636,386.11,498.52
125.99722,389.13,502.28
126.01611,388.62,501.18
126.03608,386.81,503.78
126.05665,389.53,503.00
126.07669,389.15,503.20
126.09781,389.33,502.81
126.11792,390.29,501.94
126.13639,390.18,503.47
126.15605,392.31,503.85
126.17756,393.02,503.31
126.19777,390.75,502.55
126.21755,391.39,502.38
126.23670,393.23,500.37
126.25611,391.27,500.91
126.27707,390.86,499.43
126.29610,392.87,499.56
126.31687,392.13,501.71
126.33685,390.86,500.11
126.35790,391.08,500.51
126.37694,393.65,501.19
126.39669,392.12,502.43
126.41621,390.79,503.04
126.43737,391.16,504.55
126.45791,389.63,502.67
126.47776,390.18,502.43
126.49639,390.35,498.84
126.51658,388.89,497.98
126.53682,392.24,496.57
126.55649,390.66,495.44
126.57743,393.45,498.35
126.59713,392.42,496.51
126.61686,393.80,496.00
126.63724,391.81,495.77
126.65794,393.10,495.20
126.67612,393.15,495.15
126.69648,386.42,494.66
126.71724,372.62,486.38
126.73719,346.63,476.83
126.75759,325.99,468.63
126.77747,305.02,458.87
126.79767,289.01,445.63
126.81698,275.59,441.05
126.83600,266.42,437.95
126.85753,260.00,434.64
126.87709,259.92,435.12
126.89752,259.56,435.97
126.91624,267.11,437.33
126.93663,271.96,439.89
126.95772,279.71,443.02
126.97793,290.62,444.42
126.99626,298.73,450.11
127.01741,306.77,455.31
127.03642,315.40,459.86
127.05724,323.73,463.67
127.07713,331.97,468.07
127.09638,338.90,473.85
127.11776,349.63,475.90
127.13730,354.16,480.10
127.15755,360.40,486.00
127.17612,364.74,488.72
127.19798,369.63,487.00
127.21753,373.12,492.98
127.23634,377.25,494.93
127.25668,378.46,494.66
127.27797,382.39,494.94
127.29677,384.29,497.27
127.31642,384.67,497.79
127.33635,387.69,498.06
127.35679,390.76,496.48
127.37670,390.67,500.79
127.39741,393.14,499.70
127.41716,392.73,499.01
127.43758,395.55,495.96
127.45637,395.96,498.07
127.47798,393.64,498.62
127.49614,397.65,508.39
127.51665,409.44,518.29
127.53749,425.52,534.51
127.55653,442.95,551.25
127.57774,464.70,564.64
127.59746,486.71,577.60
127.61739,511.42,583.96
127.63660,533.31,585.14
127.65799,546.80,579.90
127.67768,551.72,573.83
127.69779,546.83,567.96
127.71796,540.04,559.30
127.73708,530.63,552.19
127.75753,521.69,545.45
127.77658,510.09,539.13
127.79678,496.11,532.21
127.81784,486.59,530.42
127.83788,474.51,524.76
127.85706,465.66,520.97
127.87620,456.34,518.46
127.89733,450.03,517.96
127.91777,447.20,514.10
127.93729,440.72,513.94
127.95695,434.25,508.48
127.97699,432.90,509.12
127.99730,426.36,505.75
128.01653,424.17,506.18
128.03797,420.73,503.94
128.05674,417.54,501.67
128.07608,416.06,502.46
128.09751,411.14,503.03
128.11677,412.47,500.22
128.13725,410.15,502.55
128.15648,407.97,503.57
128.17671,406.93,501.33
128.19642,405.81,501.46
128.21618,403.79,501.46
128.23751,403.11,501.67
128.25664,403.78,500.45
128.27796,402.05,500.72
128.29758,402.66,501.37
128.31643,404.38,497.09
128.33654,404.10,500.64
128.35629,402.41,501.02
128.37799,403.79,500.44
128.39705,402.25,499.25
128.41708,401.99,497.60
128.43602,401.49,495.11
128.45603,400.24,495.37
128.47700,402.43,495.95
128.49637,400.47,495.05
128.51609,399.89,499.51
128.53711,401.48,499.32
128.55793,401.29,499.62
128.57753,400.92,499.46
128.59715,401.23,500.27
128.61798,400.96,501.05
128.63785,402.35,500.77
128.65636,402.85,502.13
128.67739,405.81,502.88
128.69642,403.94,499.95
128.71685,405.04,499.84
128.73717,406.00,502.43
128.75761,405.03,499.83
128.77653,405.07,499.66
128.79735,402.19,499.57
128.81783,404.30,500.91
128.83656,402.57,500.94
128.85745,403.31,500.35
128.87798,403.24,500.50
128.89774,401.85,499.54
128.91731,404.98,499.20
128.93633,404.19,495.77
128.95722,402.54,499.35
128.97798,405.90,496.89
128.99746,405.64,496.84
129.01743,403.11,498.63
129.03676,404.32,497.35
129.05791,404.66,499.66
129.07643,403.73,497.22
129.09605,401.25,499.06
129.11679,403.63,500.98
129.13656,404.31,502.79
129.15689,404.33,500.64
129.17645,402.69,499.81
129.19709,403.05,500.53
129.21677,403.04,502.03
129.23604,403.60,501.96
129.25608,401.89,500.44
129.27746,403.92,501.02
129.29750,402.31,497.61
129.31674,400.48,499.79
129.33628,401.66,500.92
129.35738,404.43,498.32
129.37758,402.71,498.46
129.39713,402.33,499.34
129.41610,400.56,501.29
129.43616,401.28,498.64
129.45789,401.50,500.14
129.47763,401.11,498.59
129.49646,400.69,502.27
129.51667,400.95,500.68
129.53665,401.95,500.95
129.55648,403.63,500.18
129.57650,401.88,497.93
129.59654,404.27,500.88
129.61741,402.97,499.27
129.63776,403.50,497.98
129.65695,405.82,499.61
129.67762,405.82,496.29
129.69660,403.78,498.00
129.71671,404.18,498.51
129.73756,404.54,497.02
129.75631,405.43,498.81
129.77784,403.14,499.69
129.79766,404.71,498.76
129.81626,404.51,497.21
129.83698,402.64,497.76
129.85787,405.21,499.38
129.87741,403.97,502.02
129.89767,405.15,501.09
129.91750,405.87,498.42
129.93794,405.89,501.42
129.95783,405.34,499.86
129.97632,405.90,498.22
129.99658,401.43,500.55
130.01668,403.59,497.76
130.03717,402.05,499.23
130.05661,402.96,497.66
130.07715,403.33,498.60
130.09631,401.71,498.24
130.11764,400.65,502.18
130.13645,404.94,500.16
130.15613,406.91,499.38
130.17752,403.59,499.79
130.19744,402.94,501.82
130.21733,401.32,502.48
130.23616,402.69,499.02
130.25780,403.00,499.78
130.27764,403.02,500.08
130.29652,401.15,502.52
130.31750,401.48,503.01
130.33713,404.72,502.35
130.35745,403.00,501.53
130.37705,404.57,502.97
130.39629,402.70,501.78
130.41666,403.55,499.55
130.43662,404.98,501.87
130.45699,403.07,499.18
130.47728,403.28,499.14
130.49603,401.05,500.58
130.51761,403.16,499.45
130.53689,399.72,498.56
130.55641,402.10,498.64
130.57713,400.02,497.33
130.59711,403.08,499.28
130.61649,399.13,497.81
130.63700,381.46,492.98
130.65720,362.30,488.64
130.67815,339.36,488.71
130.69968,318.39,486.45
130.71928,299.74,482.09
130.73976,287.05,473.21
130.76093,279.32,469.93
130.77986,271.88,459.53
130.80044,270.90,454.72
130.82079,276.22,450.68
130.84081,280.11,445.45
130.85928,286.56,445.12
130.88062,294.71,442.35
130.90010,301.79,443.18
130.92045,309.43,443.53
130.93949,320.92,446.20
130.95951,330.19,454.31
130.97962,338.07,457.21
131.00089,343.70,459.30
131.01909,349.90,464.64
131.04020,357.87,470.40
131.06096,362.95,475.65
131.07902,366.27,477.86
131.10095,371.78,481.41
131.12013,374.12,485.38
131.13964,377.02,489.52
131.16047,379.86,489.80
131.17964,384.69,494.98
131.20040,388.12,494.96
131.22063,390.19,496.48
131.24088,388.70,502.29
131.25991,391.20,500.49
131.28074,391.27,501.24
131.30040,391.79,502.68
131.32009,392.59,503.80
131.33998,391.99,504.88
131.36060,393.11,503.07
131.38085,393.13,504.57
131.39941,394.81,502.52
131.41907,396.28,503.58
131.44100,396.89,504.53
131.45963,395.96,505.80
131.48026,394.84,504.60
131.50023,402.77,509.25
131.52173,411.11,515.67
131.54141,427.47,528.84
131.56031,449.24,542.76
131.58145,471.28,555.91
131.60117,496.04,567.71
131.62123,517.58,575.94
131.64029,533.04,579.65
131.66109,536.99,580.58
131.68028,537.73,575.19
131.70087,527.39,569.09
131.72103,522.29,563.27
131.74174,509.30,554.75
131.76095,497.19,547.55
131.78138,489.01,542.51
131.80053,478.27,539.09
131.82040,465.97,535.13
131.84061,458.29,530.68
131.86031,451.17,525.62
131.88124,443.92,521.00
131.90087,434.99,518.32
131.92133,430.17,515.27
131.94176,423.62,515.80
131.96002,419.32,511.96
131.98161,416.50,513.74
132.00068,408.76,507.27
132.02011,401.10,504.40
132.04107,394.97,499.63
132.06188,393.30,500.81
132.08151,391.57,498.25
132.10123,389.33,495.98
132.12049,387.65,497.47
132.14031,391.10,497.87
132.16177,390.07,500.88
132.18004,387.63,498.67
132.20024,387.58,501.41
132.22130,387.00,500.12
132.24032,387.24,501.08
132.26039,388.91,501.91
132.28015,389.15,504.28
132.30023,393.26,506.60
132.32080,402.17,513.20
132.34136,411.29,520.32
132.36239,414.97,522.02
132.38160,415.08,522.76
132.40140,415.79,518.93
132.42160,412.77,520.69
132.44213,412.10,519.94
132.46216,410.54,517.83
132.48294,407.38,517.06
132.50140,404.81,515.80
132.52100,404.53,513.61
132.54125,401.32,514.43
132.56264,401.00,512.77
132.58102,397.72,509.95
132.60205,399.33,506.92
132.62260,396.84,507.17
132.64116,397.34,507.59
132.66138,394.36,508.50
132.68253,393.87,505.15
132.70140,394.30,505.82
132.72289,393.67,503.31
132.74278,390.74,503.08
132.76287,389.99,502.10
132.78221,389.49,503.27
132.80267,390.36,503.09
132.82291,391.26,502.81
132.84122,388.14,500.10
132.86252,386.22,500.10
132.88284,387.61,503.39
132.90235,388.09,501.11
132.92255,387.13,504.18
132.94161,386.03,503.52
132.96167,386.54,502.56
132.98228,386.30,505.90
133.00196,384.31,502.48
133.02238,386.14,504.11
133.04120,385.51,504.16
133.06209,386.36,502.31
133.08104,386.42,502.17
133.10278,387.79,505.76
133.12148,387.12,504.60
133.14279,388.00,504.54
133.16172,384.26,505.93
133.18300,385.03,505.18
133.20182,384.25,504.24
133.22297,384.78,505.31
133.24246,383.65,503.70
133.26116,386.21,503.38
133.28137,385.29,505.04
133.30281,383.69,506.06
133.32264,382.03,505.80
133.34265,382.05,503.83
133.36195,381.69,503.94
133.38235,383.20,506.45
133.40160,383.76,503.03
133.42108,385.89,504.90
133.44200,385.36,501.16
133.46232,384.98,500.83
133.48198,384.00,503.40
133.50250,382.67,500.42
133.52265,383.52,503.39
133.54191,382.57,501.55
133.56288,382.81,500.53
133.58130,381.03,501.85
133.60288,380.47,501.43
133.62170,381.77,499.98
133.64126,383.30,503.36
133.66194,383.52,502.54
133.68253,382.56,502.59
133.70187,384.91,500.60
133.72297,384.44,503.81
133.74298,385.76,502.74
133.76205,384.52,501.79
133.78126,381.46,503.44
133.80135,383.85,503.51
133.82161,383.47,501.16
133.84141,379.40,503.56
133.86206,379.27,503.44
133.88134,379.22,501.20
133.90196,378.31,500.62
133.92235,369.67,496.70
133.94297,353.79,491.21
133.96239,332.32,485.93
133.98279,311.99,486.60
134.00242,291.62,489.25
134.02233,275.37,486.86
134.04159,262.81,480.07
134.06168,256.56,469.52
134.08250,251.77,458.79
134.10269,251.18,451.12
134.12175,253.90,444.88
134.14159,258.98,438.81
134.16193,267.32,436.24
134.18166,274.41,436.13
134.20235,283.93,440.59
134.22130,290.80,445.37
134.24203,303.18,445.40
134.26182,309.76,451.40
134.28280,319.74,456.34
134.30155,325.25,460.55
134.32278,333.41,462.31
134.34182,340.11,467.85
134.36155,345.50,472.73
134.38119,352.96,475.27
134.40162,356.88,477.80
134.42143,360.95,484.31
134.44208,362.80,485.91
134.46173,366.45,487.23
134.48165,369.77,489.21
134.50170,370.03,490.88
134.52247,372.35,493.46
134.54237,374.01,496.45
134.56255,376.15,496.67
134.58109,377.01,496.50
134.60228,374.76,501.57
134.62102,376.83,498.23
134.64179,375.83,498.41
134.66195,380.35,501.00
134.68228,378.99,501.36
134.70154,377.40,499.89
134.72272,379.84,500.82
134.74233,378.77,496.88
134.76287,378.26,496.09
134.78286,377.43,498.56
134.80283,378.64,496.53
134.82157,377.13,499.31
134.84120,377.41,499.50
134.86147,378.06,501.50
134.88287,379.64,500.21
134.90275,381.34,505.89
134.92107,392.89,517.54
134.94276,405.61,532.20
134.96184,420.76,547.57
134.98250,443.51,559.30
135.00265,466.61,569.31
135.02109,492.57,575.36
135.04223,515.94,577.88
135.06211,525.07,574.59
135.08219,529.13,567.88
135.10100,525.39,559.62
135.12227,517.61,554.83
135.14150,508.80,544.96
135.16165,498.75,538.67
135.18119,488.44,531.49
135.20157,476.61,528.02
135.22180,467.68,521.42
135.24163,457.45,518.86
135.26286,446.16,517.04
135.28242,438.00,515.54
135.30247,432.01,512.32
135.32317,422.91,508.83
135.34230,418.71,507.60
135.36384,417.23,513.81
135.38233,418.82,518.41
135.40292,415.31,519.12
135.42261,414.73,520.01
135.44346,409.33,519.65
135.46290,406.92,516.51
135.48301,405.80,515.36
135.50201,401.51,516.18
135.52288,400.15,513.64
135.54285,398.05,511.89
135.56315,398.76,507.98
135.58256,394.73,507.42
135.60351,395.42,508.24
135.62221,392.09,504.30
135.64396,392.33,505.58
135.66327,391.67,503.29
135.68214,389.15,503.64
135.70243,386.66,501.68
135.72371,388.10,501.23
135.74310,388.31,504.20
135.76218,385.27,502.99
135.78258,383.43,502.93
135.80283,382.12,503.47
135.82235,381.96,501.69
135.84445,384.07,502.49
135.86439,383.63,502.41
135.88453,382.12,500.78
135.90627,382.99,499.15
135.92705,383.36,500.01
135.94604,385.55,501.28
135.96645,389.88,499.60
135.98610,392.83,499.97
136.00704,389.96,497.96
136.02742,391.39,501.20
136.04724,392.00,499.74
136.06865,391.72,499.58
136.08899,395.79,503.19
136.10785,397.00,501.42
136.12738,395.28,503.84
136.14791,398.70,502.95
136.16850,397.81,503.00
136.18715,396.89,502.38
136.20830,398.28,504.61
136.22862,397.71,505.64
136.24725,398.80,502.46
136.26872,396.94,505.48
136.28971,399.47,505.74
136.30938,400.66,501.64
136.32967,401.59,504.44
136.34918,400.66,501.71
136.36949,401.95,503.37
136.39042,402.35,502.49
136.41020,402.85,503.58
136.42927,403.62,502.82
136.44947,405.97,501.75
136.47099,405.68,500.49
136.48940,405.15,502.79
136.50903,405.75,501.05
136.53097,405.24,502.41
136.54991,404.15,500.26
136.57085,403.63,503.72
136.59034,405.26,500.30
136.61071,403.36,502.92
136.63040,402.69,499.90
136.65009,403.05,502.45
136.67093,404.00,500.06
136.69130,401.89,501.11
136.71011,402.54,502.25
136.73154,403.15,501.45
136.75118,403.68,502.23
136.77023,403.34,502.81
136.79158,401.95,503.63
136.81232,403.22,504.89
136.83308,403.26,506.66
136.85318,402.15,503.64
136.87388,405.05,508.47
136.89281,404.60,505.77
136.91339,401.06,505.88
136.93238,399.35,506.80
136.95370,399.88,504.34
136.97258,401.10,506.57
136.99322,398.71,505.46
137.01353,400.61,504.18
137.03476,398.95,503.28
137.05445,400.36,505.68
137.07381,400.11,504.73
137.09363,398.70,503.30
137.11361,398.91,502.61
137.13432,398.36,504.00
137.15437,397.22,504.07
137.17483,399.64,502.36
137.19326,396.57,501.28
137.21496,399.21,503.14
137.23336,397.98,504.73
137.25425,399.18,502.80
137.27381,398.49,504.39
137.29437,399.16,499.75
137.31431,398.76,502.47
137.33477,397.11,500.10
137.35442,395.02,500.68
137.37525,395.26,499.68
137.39564,394.91,501.96
137.41477,395.09,502.44
137.43521,394.65,501.74
137.45430,396.99,502.27
137.47423,397.35,503.32
137.49513,396.62,503.59
137.51442,393.54,504.40
137.53451,394.53,504.94
137.55542,392.82,502.88
137.57504,391.96,504.02
137.59579,390.27,503.14
137.61548,390.48,503.56
137.63686,386.33,503.76
137.65602,387.94,501.47
137.67722,385.73,499.87
137.69745,384.49,501.31
137.71799,384.76,502.70
137.73749,382.04,501.08
137.75653,383.68,500.38
137.77789,382.87,501.37
137.79719,381.92,502.63
137.81752,383.84,502.55
137.83710,384.77,499.85
137.85690,383.00,500.58
137.87627,383.93,503.12
137.89625,383.24,503.87
137.91764,384.30,503.67
137.93636,384.71,502.61
137.95636,384.47,501.30
137.97791,383.08,502.18
137.99668,384.63,504.20
138.01643,382.70,502.93
138.03678,382.08,502.72
138.05716,381.84,499.52
138.07678,383.72,498.68
138.09671,381.73,501.95
138.11682,381.49,502.53
138.13679,383.54,502.15
138.15607,383.11,501.62
138.17608,383.33,500.78
138.19630,382.38,500.97
138.21791,381.04,500.81
138.23625,379.96,500.20
138.25768,380.08,501.75
138.27658,381.27,502.71
138.29787,379.30,503.11
138.31829,370.44,499.59
138.33791,354.98,490.98
138.35812,334.39,490.51
138.37836,312.68,487.03
138.39992,293.27,480.15
138.42074,278.59,468.37
138.43977,267.49,456.03
138.46037,259.93,447.29
138.47918,253.61,435.35
138.50099,253.34,428.52
138.51985,254.81,421.97
138.54029,262.25,423.36
138.55982,266.56,419.93
138.57910,277.66,423.99
138.59945,285.35,424.75
138.61903,295.30,430.47
138.64033,302.42,437.25
138.66028,309.72,441.23
138.68022,318.65,450.55
138.69982,325.14,453.94
138.71951,331.98,458.90
138.73921,340.22,464.45
138.75989,343.89,469.84
138.78024,349.31,476.79
138.79998,352.20,479.44
138.82020,357.00,481.51
138.84036,360.81,486.05
138.85966,364.60,486.41
138.88098,369.86,489.01
138.89928,369.09,492.19
138.91988,373.26,496.09
138.94009,375.77,496.02
138.96041,375.47,499.50
138.98058,378.44,497.42
139.00009,377.61,500.22
139.01927,378.28,499.09
139.03918,378.46,497.69
139.06074,381.37,498.68
139.07906,379.84,498.86
139.09903,381.68,499.89
139.12043,382.66,501.68
139.13926,382.68,499.03
139.15966,382.55,500.55
139.17967,383.65,499.56
139.20083,382.28,501.98
139.21992,386.68,505.51
139.24061,393.10,510.15
139.25937,401.24,514.62
139.27996,408.58,520.54
139.30093,422.84,524.01
139.32096,439.51,535.80
139.34093,458.62,543.55
139.36083,482.73,553.82
139.37918,499.47,563.74
139.40006,513.05,569.26
139.42083,519.02,569.62
139.44067,518.27,567.39
139.46023,509.25,560.00
139.48097,502.22,557.00
139.50050,494.07,547.58
139.52014,482.80,540.49
139.53985,470.26,534.97
139.56005,465.14,532.34
139.58064,453.43,526.68
139.59945,443.51,521.63
139.61903,439.29,520.14
139.64003,432.68,516.47
139.66083,422.90,512.72
139.68051,421.06,512.50
139.69981,415.46,509.52
139.72064,411.02,510.74
139.74006,408.67,506.46
139.75960,403.75,504.79
139.78077,401.24,504.43
139.79965,400.37,504.35
139.81928,398.62,505.67
139.84047,396.80,501.53
139.86067,396.13,503.27
139.87912,395.01,504.04
139.90080,394.26,502.01
139.92141,392.73,504.14
139.94157,391.59,506.21
139.96029,392.49,504.72
139.98116,392.27,503.75
140.00103,392.27,503.37
140.02253,392.35,504.12
140.04244,393.84,503.69
140.06127,396.38,504.35
140.08209,395.51,502.30
140.10228,396.11,500.65
140.12205,396.52,500.23
140.14153,393.72,502.11
140.16163,394.80,501.23
140.18204,394.75,503.21
140.20259,392.91,500.06
140.22266,393.49,501.89
140.24262,396.49,500.53
140.26291,395.51,502.52
140.28192,395.97,499.16
140.30213,394.81,500.51
140.32148,396.17,501.49
140.34282,395.69,500.80
140.36115,396.99,500.48
140.38123,396.91,499.53
140.40222,394.83,500.50
140.42231,393.92,499.36
140.44108,394.05,500.10
140.46171,395.38,499.16
140.48240,394.65,500.02
140.50348,398.65,498.73
140.52286,397.32,500.90
140.54349,395.53,500.57
140.56268,397.05,499.11
140.58294,396.98,502.78
140.60261,400.70,500.12
140.62312,398.48,500.88
140.64301,399.77,504.18
140.66227,400.77,504.33
140.68313,400.44,503.01
140.70377,401.48,501.94
140.72201,401.09,504.06
140.74203,401.99,501.49
140.76285,400.91,502.89
140.78265,400.45,501.22
140.80386,401.15,499.12
140.82361,400.02,499.87
140.84347,400.28,501.82
140.86384,402.82,501.94
140.88375,402.15,500.54
140.90345,401.80,500.79
140.92262,404.27,499.20
140.94379,403.16,501.74
140.96392,401.79,503.08
140.98554,402.78,502.39
141.00445,399.38,501.52
141.02571,402.70,500.85
141.04581,402.07,503.28
141.06447,403.34,504.50
141.08560,403.49,503.56
141.10513,404.38,501.94
141.12473,404.73,502.66
141.14415,401.19,503.27
141.16520,404.44,502.28
141.18499,404.07,500.95
141.20506,403.40,503.31
141.22465,403.32,502.45
141.24515,404.31,503.59
141.26577,400.82,504.54
141.28613,403.04,505.70
141.30635,403.57,505.55
141.32577,404.22,502.57
141.34733,401.36,502.98
141.36622,403.16,506.41
141.38797,402.95,504.63
141.40659,400.39,504.26
141.42732,402.23,505.16
141.44741,402.49,506.26
141.46789,400.33,504.85
141.48717,401.67,506.51
141.50853,402.64,504.82
141.52757,400.11,505.67
141.54766,399.65,506.73
141.56720,400.67,505.73
141.58836,400.83,505.00
141.60742,397.91,505.25
141.62725,400.66,504.43
141.64753,400.15,508.01
141.66899,396.99,504.55
141.68775,397.88,506.75
141.70747,397.33,505.73
141.72788,396.37,505.25
141.74764,394.87,506.33
141.76800,397.35,504.68
141.78705,395.61,503.42
141.80732,398.22,504.30
141.82887,395.75,505.05
141.84784,392.51,504.64
141.86727,386.79,500.78
141.88858,387.45,502.80
141.90883,387.54,503.71
141.92858,386.63,500.08
141.94727,385.81,502.44
141.96784,388.01,502.58
141.98871,385.88,503.66
142.00715,389.43,504.03
142.02842,388.03,501.76
142.04758,389.27,503.67
142.06735,391.15,504.82
142.08832,388.39,502.72
142.10843,392.03,503.18
142.12756,388.54,503.84
142.14791,388.80,504.60
142.16749,391.90,503.91
142.18820,389.83,504.20
142.20928,392.01,502.16
142.22902,390.27,502.53
142.25006,391.72,504.26
142.27163,390.90,502.98
142.29230,386.01,501.19
142.31263,386.78,500.86
142.33262,385.90,499.36
142.35357,382.01,501.33
142.37323,383.28,499.72
142.39250,384.58,498.71
142.41245,383.32,501.31
142.43372,381.45,499.14
142.45350,382.46,501.30
142.47371,381.47,501.57
142.49259,383.80,498.59
142.51358,380.49,498.47
142.53280,379.66,497.33
142.55218,382.93,496.08
142.57384,380.59,497.37
142.59364,383.24,497.18
142.61200,380.27,495.38
142.63345,380.13,495.62
142.65386,378.96,492.44
142.67215,380.07,494.03
142.69260,380.44,492.35
142.71328,378.59,494.11
142.73236,378.75,495.84
142.75318,376.23,497.34
142.77240,369.48,494.72
142.79219,352.63,486.24
142.81345,335.75,475.59
142.83226,313.66,466.41
142.85371,295.14,456.87
142.87290,282.66,450.65
142.89361,274.53,443.03
142.91370,268.70,437.84
142.93359,269.41,431.67
142.95500,273.33,430.55
142.97387,275.02,433.91
142.99467,283.94,435.89
143.01453,292.96,439.32
143.03471,298.53,444.20
143.05305,308.12,449.45
143.07392,313.39,456.19
143.09395,320.01,460.61
143.11439,328.89,468.68
143.13303,335.12,470.65
143.15372,342.38,475.79
143.17457,348.09,481.85
143.19541,352.55,484.39
143.21503,356.42,486.38
143.23787,362.24,487.09
143.25845,366.22,488.84
143.27828,372.16,493.77
143.29895,376.61,494.57
143.31792,380.86,497.75
143.33788,383.53,497.38
143.35771,387.12,499.11
143.37839,388.31,498.97
143.39800,390.21,498.49
143.41823,391.70,499.85
143.43863,389.14,498.69
143.45714,390.11,500.23
143.47750,390.62,501.14
143.49889,392.52,500.74
143.51801,396.50,500.70
143.53910,395.29,501.83
143.55998,395.69,501.78
143.58046,398.06,504.80
143.60165,399.58,503.48
143.62378,400.07,505.52
143.64220,397.01,505.14
143.66307,400.38,503.53
143.68434,399.79,502.87
143.70448,397.04,502.62
143.72258,396.63,506.34
143.74468,397.00,505.01
143.76466,398.40,505.06
143.78468,399.79,503.01
143.80433,402.61,508.95
143.82632,410.73,518.03
143.84591,425.46,534.03
143.86545,443.66,548.19
143.88741,464.76,564.31
143.90729,488.71,581.27
143.92967,511.22,589.60
143.94843,524.86,588.35
143.96985,525.38,587.45
143.98822,526.02,578.96
144.00914,515.44,575.80
144.02849,506.20,566.47
144.04826,496.49,559.89
144.06869,484.38,550.00
144.08814,476.44,544.80
144.10884,462.57,535.67
144.12911,452.28,534.36
144.14914,442.85,528.72
144.16951,435.99,523.84
144.18860,428.21,520.08
144.20824,421.39,520.48
144.22829,417.10,517.69
144.24908,416.74,517.10
144.26945,414.68,520.63
144.28925,416.60,521.32
144.30959,417.63,520.93
144.32821,412.85,521.93
144.34789,411.18,519.26
144.36996,409.37,516.91
144.38964,406.87,514.58
144.40985,401.57,514.37
144.42852,400.59,511.40
144.44961,398.76,509.93
144.46916,394.68,510.67
144.48862,393.24,506.85
144.50859,390.48,508.73
144.52891,389.67,506.57
144.54825,391.13,505.65
144.56850,388.90,505.66
144.58994,386.86,502.58
144.60804,385.62,504.17
144.62921,386.74,502.95
144.64890,385.66,503.41
144.66831,385.14,502.36
144.68906,385.09,504.59
144.70896,385.08,503.54
144.72972,380.26,504.57
144.74991,382.01,505.25
144.76924,379.54,504.22
144.78944,379.75,503.46
144.80986,383.51,506.64
144.82865,380.68,507.19
144.84864,381.68,505.66
144.86845,382.90,505.86
144.88920,383.78,505.60
144.90865,382.13,505.25
144.92734,381.65,505.66
144.94950,382.81,507.17
144.96981,381.50,505.18
144.98838,380.93,503.46
145.00849,381.89,503.76
145.02947,384.52,503.55
145.04848,382.72,501.37
145.06803,384.22,500.02
145.08957,380.62,501.46
145.10837,379.73,498.18
145.12859,382.09,499.75
145.15041,382.79,501.72
145.16904,382.58,498.63
145.18955,382.21,500.84
145.20923,379.79,501.06
145.23038,382.34,499.30
145.24985,382.88,501.15
145.26992,381.55,498.84
145.28952,383.35,499.24
145.30930,380.53,499.30
145.33032,380.58,502.32
145.34949,380.76,502.27
145.37072,380.01,503.72
145.39052,379.75,503.34
145.41030,384.11,502.18
145.43269,381.70,503.01
145.45149,384.46,505.57
145.47183,382.41,503.41
145.49239,383.14,501.92
145.51069,384.65,503.25
145.53171,384.94,503.04
145.55032,381.80,503.78
145.57162,382.98,503.21
145.59158,382.18,502.81
145.61152,382.63,501.23
145.63270,385.77,502.29
145.65232,384.36,502.64
145.67268,385.21,503.37
145.69283,384.01,504.85
145.71231,386.12,501.70
145.73357,387.61,502.71
145.75462,387.02,501.61
145.77420,389.76,503.07
145.79511,391.07,503.28
145.81484,393.01,501.88
145.83414,391.80,501.16
145.85508,393.62,502.74
145.87437,392.83,500.79
145.89630,393.89,501.80
145.91592,398.70,499.01
145.93448,396.88,502.15
145.95643,396.96,501.34
145.97743,398.91,498.86
145.99854,399.28,500.25
146.01799,398.64,503.02
146.03806,399.99,501.40
146.05783,401.35,503.84
146.07782,398.29,503.81
146.09832,398.43,503.69
146.11936,401.63,503.97
146.13936,401.34,505.42
146.15987,397.38,503.06
146.18072,400.56,502.30
146.20077,398.03,501.91
146.22017,396.53,501.29
146.24187,399.51,503.01
146.26153,399.00,501.84
146.28225,397.18,499.96
146.30344,395.49,501.87
146.32121,397.22,501.45
146.34350,392.91,500.35
146.36263,394.20,501.32
146.38311,392.66,497.60
146.40360,390.41,501.17
146.42266,391.77,500.24
146.44376,387.35,499.03
146.46497,387.52,498.29
146.48332,388.27,497.88
146.50430,390.12,500.26
146.52483,383.56,498.44
146.54558,369.69,494.64
146.56450,347.69,492.97
146.58521,327.33,491.04
146.60401,304.69,485.09
146.62592,286.29,482.28
146.64421,270.70,477.49
146.66383,261.61,467.73
146.68483,256.46,462.20
146.70442,255.28,453.53
146.72527,256.54,447.33
146.74617,259.17,443.59
146.76607,263.12,437.22
146.78529,270.26,434.45
146.80680,280.21,432.82
146.82767,287.18,434.52
146.84744,297.61,433.87
146.86742,303.07,437.70
146.88725,312.34,442.71
146.90724,321.80,448.51
146.92735,327.59,450.53
146.94554,335.12,458.79
146.96735,342.29,465.19
146.98606,348.99,467.31
147.00710,351.11,470.75
147.02669,354.97,477.93
147.04601,356.86,478.47
147.06636,361.69,483.07
147.08897,365.60,485.00
147.10705,364.81,486.63
147.12829,370.36,491.36
147.14748,371.21,489.22
147.16859,373.17,492.43
147.18870,372.14,493.82
147.20756,375.56,495.87
147.22850,373.48,493.48
147.24807,377.89,494.46
147.26728,375.75,493.79
147.28619,376.83,497.14
147.30781,379.38,497.35
147.32604,378.94,497.28
147.34675,377.04,496.69
147.36679,379.77,498.94
147.38671,377.59,498.13
147.40715,380.98,498.82
147.42723,382.16,503.05
147.44744,393.15,511.35
147.46612,408.45,523.99
147.48809,425.67,541.35
147.50830,446.42,558.46
147.52878,465.89,570.51
147.54867,481.11,577.75
147.56827,497.91,583.79
147.58781,511.11,584.65
147.60765,523.44,582.33
147.62758,528.66,576.93
147.64713,522.84,569.02
147.66873,518.20,560.07
147.68876,509.50,550.83
147.70795,496.02,540.97
147.72612,484.71,531.99
147.74663,473.88,527.69
147.76694,464.23,518.49
147.78709,454.19,514.79
147.80737,445.20,514.49
147.82988,438.06,512.14
147.85077,434.29,510.48
147.87106,428.63,509.11
147.89118,427.23,506.71
147.91199,422.34,505.27
147.93251,416.87,505.81
147.95035,416.41,501.95
147.97176,412.28,501.78
147.99118,407.87,501.19
148.01150,409.33,503.56
148.03046,404.49,500.26
148.05183,405.59,499.37
148.07177,404.49,500.76
148.09295,404.07,499.10
148.11404,403.05,501.26
148.13464,405.47,500.77
148.15316,406.07,502.14
148.17437,405.79,502.50
148.19300,406.09,504.43
148.21488,405.36,505.71
148.23429,402.63,506.93
148.25534,403.63,502.91
148.27481,403.46,504.51
148.29330,402.04,505.06
148.31486,402.23,502.92
148.33568,403.39,502.08
148.35706,402.62,502.40
148.37908,398.91,505.68
148.39993,397.47,502.95
148.42100,397.10,502.86
148.44118,391.15,503.76
148.46198,390.04,501.86
148.48172,392.42,503.18
148.50225,388.13,502.06
148.52155,389.58,503.67
148.54220,386.94,502.41
148.56079,387.87,503.83
148.58047,388.89,502.67
148.60115,388.25,502.63
148.62131,385.25,503.57
148.64255,383.22,502.32
148.66176,383.04,502.66
148.68219,381.21,503.86
148.70305,381.26,503.93
148.72279,380.06,502.73
148.74234,382.58,501.95
148.76281,382.49,498.92
148.78359,381.72,500.29
148.80202,382.28,499.28
148.82320,382.46,499.36
148.84397,382.41,499.53
148.86389,383.26,495.91
148.88696,381.29,488.32
148.90546,382.47,485.25
148.92501,381.41,482.81
148.94631,382.72,481.71
148.96596,379.86,483.55
148.98557,381.61,481.02
149.00505,382.56,481.90
149.02554,385.37,483.29
149.04650,382.59,485.88
149.06550,381.07,484.97
149.08776,383.46,489.58
149.10754,383.17,487.80
149.12650,383.63,489.91
149.14605,384.43,490.52
149.16866,386.90,488.54
149.18847,389.12,489.75
149.20903,389.81,492.69
149.22856,391.34,492.21
149.24734,391.72,494.02
149.26831,389.55,494.17
149.28826,389.02,497.86
149.30825,390.66,496.35
149.32725,391.43,497.50
149.34873,391.89,498.51
149.36713,393.31,498.59
149.38855,390.99,497.63
149.40706,392.13,500.46
149.42820,391.29,500.53
149.44969,394.59,499.16
149.46821,390.38,498.84
149.48730,395.05,500.14
149.50826,393.54,498.37
149.52766,392.66,495.78
149.54764,393.73,497.44
149.56834,394.45,497.38
149.58802,395.95,498.66
149.60701,397.67,496.10
149.62987,394.22,486.43
149.64861,387.65,473.38
149.66833,380.20,459.37
149.68896,373.67,450.02
149.70853,368.38,447.19
149.72854,367.31,447.53
149.74880,368.96,448.96
149.76852,368.58,448.44
149.78841,371.27,456.44
149.80955,377.24,461.05
149.82715,379.12,464.55
149.84815,382.14,471.50
149.86843,383.53,475.07
149.88871,385.91,479.57
149.90849,385.48,484.72
149.92772,386.67,488.66
149.94759,391.62,493.83
149.96716,395.20,496.03
149.98843,395.47,498.10
150.00790,393.36,500.99
150.02860,397.01,503.36
150.04837,398.16,503.79
150.06904,396.74,504.98
150.08894,398.06,510.66
150.10825,397.57,510.17
150.12971,395.32,510.15
150.14915,398.01,512.95
150.16932,395.56,515.69
150.18882,395.58,516.30
150.21036,396.96,517.31
150.23066,398.00,518.40
150.24888,398.79,520.03
150.26840,398.48,526.21
150.28954,399.62,542.43
150.30873,404.42,560.04
150.32869,405.34,580.06
150.35152,406.02,600.94
150.37179,405.11,609.57
150.39258,408.13,599.01
150.41214,407.05,579.78
150.43418,404.96,558.66
150.45365,403.00,535.83
150.47301,401.17,518.47
150.49445,400.63,500.38
150.51307,399.38,484.86
150.53385,402.30,475.44
150.55449,396.31,467.25
150.57398,399.41,464.03
150.59307,397.78,459.42
150.61253,397.69,458.15
150.63435,396.54,460.03
150.65455,394.68,459.20
150.67700,394.18,462.35
150.69682,397.42,465.75
150.71678,395.96,466.83
150.73559,395.50,472.20
150.75623,395.45,476.98
150.77879,394.09,478.16
150.79887,393.00,485.33
150.82064,393.69,484.93
150.83982,394.47,488.71
150.86190,393.76,488.49
150.88106,394.88,490.17
150.90306,394.10,493.56
150.92440,395.39,495.80
150.94421,390.57,496.90
150.96515,387.41,491.20
150.98529,385.33,485.46
151.00781,387.52,482.50
151.02889,382.22,485.75
151.04945,381.49,485.01
151.06940,379.16,483.33
151.08900,379.18,488.45
151.11085,378.86,489.08
151.13042,382.17,492.81
151.15181,384.26,494.69
151.17181,386.38,497.03
151.19190,386.57,498.74
151.21031,392.77,503.75
151.23181,392.01,503.88
151.25304,394.36,504.90
151.27111,394.27,506.67
151.29125,397.33,506.94
151.31273,395.82,507.53
151.33321,396.80,509.07
151.35339,398.28,505.42
151.37438,397.60,508.88
151.39489,398.82,508.49
151.41430,398.58,508.94
151.43479,395.50,507.68
151.45447,394.46,508.28
151.47568,392.23,506.92
151.49489,392.37,507.96
151.51503,393.15,508.66
151.53508,393.96,507.88
151.55510,394.58,509.94
151.57694,395.68,511.10
151.59489,394.27,510.81
151.61561,392.32,509.95
151.63678,392.40,510.06
151.65580,391.03,508.99
151.67653,392.31,509.26
151.69784,390.14,508.55
151.71702,390.06,506.49
151.73696,393.01,505.49
151.75608,392.87,504.11
151.77785,391.21,505.94
151.79613,391.24,504.31
151.81543,390.18,506.36
151.83680,393.61,517.45
151.85583,396.13,525.55
151.87733,399.05,529.99
151.89730,402.88,533.51
151.91846,402.33,534.14
151.93791,399.61,532.81
151.95798,398.59,529.25
151.97854,395.06,527.21
151.99934,396.70,524.05
152.01801,395.87,520.14
152.03836,393.73,518.92
152.05905,393.62,514.53
152.07719,389.97,515.02
152.09887,391.90,512.69
152.11966,391.53,511.68
152.13832,390.75,508.89
152.16075,386.91,509.21
152.17847,389.94,509.10
152.19861,387.26,505.24
152.21938,388.73,506.96
152.23991,389.98,507.04
152.26073,385.73,504.09
152.28230,387.54,505.83
152.30243,385.95,499.36
152.32118,381.82,480.77
152.34129,375.34,462.20
152.36125,375.65,452.71
152.38297,373.33,452.32
152.40135,373.96,450.01
152.42151,373.54,451.83
152.44156,377.01,456.92
152.46215,380.70,462.59
152.48361,378.88,465.59
152.50558,377.91,468.44
152.52581,381.78,472.80
152.54494,382.28,479.20
152.56517,384.08,481.64
152.58531,388.49,490.94
152.60405,395.37,513.06
152.62429,405.28,534.67
152.64416,410.48,541.20
152.66566,412.34,543.14
152.68543,415.76,544.17
152.70696,416.19,537.78
152.72635,415.77,534.58
152.74641,417.05,532.74
152.76711,418.04,527.83
152.78727,416.08,523.65
152.80707,412.88,522.04
152.82781,414.97,518.65
152.84873,412.30,515.93
152.86760,409.95,514.53
152.88838,406.40,513.78
152.90741,406.48,512.81
152.92809,404.58,510.36
152.94827,403.47,508.96
152.96826,400.12,510.26
152.98741,403.40,508.16
153.00737,398.23,505.60
153.02762,396.52,499.90
153.04764,393.65,497.50
153.06810,391.19,494.81
153.08849,385.80,496.42
153.10969,383.93,491.76
153.12925,382.43,491.57
153.14976,384.21,492.09
153.16951,382.25,493.55
153.18998,386.09,493.76
153.20861,385.17,492.75
153.22823,383.63,495.64
153.24916,381.06,497.86
153.27095,383.92,496.97
153.29028,386.37,499.23
153.31183,382.85,498.41
153.33219,386.43,501.76
153.35264,387.40,499.53
153.37298,386.32,502.46
153.39358,388.55,505.06
153.41384,386.55,508.83
153.43374,389.05,506.38
153.45327,385.70,507.93
153.47247,387.85,505.86
153.49254,388.86,505.35
153.51266,388.26,506.27
153.53416,387.69,504.93
153.55305,387.20,505.50
153.57335,387.94,501.57
153.59378,389.70,502.57
153.61319,390.46,501.65
153.63302,389.51,504.36
153.65406,391.42,505.74
153.67469,393.28,502.45
153.69485,392.15,507.53
153.71396,393.70,514.38
153.73347,398.91,522.81
153.75422,400.77,526.43
153.77365,398.13,528.27
153.79459,398.55,527.50
153.81422,397.78,529.81
153.83587,395.40,524.34
153.85586,393.40,524.66
153.87467,397.03,519.80
153.89588,393.87,517.36
153.91604,397.83,519.31
153.93504,398.80,517.22
153.95643,396.67,516.65
153.97506,394.50,514.03
153.99667,394.12,514.61
154.01546,392.18,511.20
154.03541,389.92,512.47
154.05649,389.51,513.77
154.07533,390.02,512.01
154.09697,386.07,511.18
154.11632,379.66,508.76
154.13508,378.98,507.59
154.15513,377.63,506.79
154.17534,375.95,506.19
154.19642,375.21,508.18
154.21695,377.83,508.69
154.23515,377.95,509.37
154.25700,377.54,507.69
154.27666,378.41,507.60
154.29661,378.45,507.11
154.31513,377.18,509.89
154.33738,379.43,513.02
154.35735,382.98,511.19
154.37602,381.62,515.29
154.39528,384.34,520.23
154.41588,383.14,515.28
154.43602,383.08,511.73
154.45646,383.12,509.87
154.47692,393.69,509.32
154.49652,404.05,512.84
154.51555,411.31,509.75
154.53667,427.87,514.63
154.55680,428.56,509.14
154.57790,423.03,509.42
154.59617,428.09,506.33
154.61502,421.57,506.44
154.63559,420.63,504.02
154.65622,418.43,501.45
154.67527,416.03,500.62
154.69503,414.74,500.98
154.71517,411.86,500.32
154.73672,410.80,498.32
154.75628,410.83,498.95
154.77579,407.24,498.13
154.79596,399.87,494.57
154.81510,397.05,495.27
154.83655,396.27,495.86
154.85628,395.18,496.13
154.87625,393.24,500.68
154.89523,392.58,503.32
154.91536,394.27,503.72
154.93619,392.72,502.66
154.95649,390.59,499.51
154.97557,390.91,500.67
154.99513,392.60,502.75
155.01549,393.68,502.97
155.03544,392.89,501.38
155.05643,388.00,500.05
155.07703,389.17,501.76
155.09581,391.93,504.61
155.11626,388.27,506.76
155.13680,389.59,507.30
155.15570,387.29,507.67
155.17589,389.64,508.58
155.19509,391.54,510.11
155.21662,390.14,510.15
155.23664,388.75,509.80
155.25676,386.68,506.85
155.27676,387.30,512.44
155.29654,387.71,510.46
155.31709,386.64,510.08
155.33688,384.56,509.59
155.35578,385.26,511.11
155.37521,386.78,508.63
155.39678,384.75,510.06
155.41781,384.06,507.87
155.43708,386.21,506.63
155.45600,387.23,503.93
155.47638,390.16,502.97
155.49533,388.15,501.98
155.51530,385.24,502.90
155.53686,385.33,502.04
155.55689,384.29,501.84
155.57592,388.44,500.80
155.59563,384.99,502.67
155.61621,388.40,499.84
155.63581,385.86,498.00
155.65611,387.05,497.39
155.67742,390.55,499.01
155.69605,387.25,498.46
155.71608,389.35,497.87
155.73661,386.76,498.40
155.75671,388.59,498.18
155.77616,386.83,499.30
155.79648,388.40,497.56
155.81723,386.97,500.26
155.83773,389.11,501.37
155.85691,388.59,501.19
155.87649,387.93,502.78
155.89749,388.22,504.14
155.91752,392.86,502.58
155.93735,391.58,502.78
155.95721,394.64,501.39
155.97856,393.11,499.49
155.99931,391.68,501.68
156.01996,394.70,501.29
