Program Time [s],data 0,data 1
13.58732,363.91,464.13
13.60680,365.30,464.61
13.62659,368.47,459.41
13.64662,365.45,460.87
13.66732,372.43,464.45
13.68743,372.02,463.58
13.70630,368.82,460.10
13.72633,370.02,460.35
13.74641,368.67,457.78
13.76773,367.69,459.72
13.78613,367.46,456.97
13.80775,366.41,457.85
13.82587,366.13,456.71
13.84721,363.37,459.57
13.86751,361.93,461.94
13.88627,364.31,461.97
13.90631,359.96,463.83
13.92738,361.25,462.15
13.94726,360.16,459.51
13.96664,361.26,456.01
13.98739,361.60,458.15
14.00775,362.24,457.76
14.02658,366.42,456.66
14.04716,364.68,455.08
14.06792,362.92,452.81
14.08766,364.74,449.28
14.10614,366.30,450.00
14.12795,365.61,445.40
14.14773,364.27,443.69
14.16669,365.51,444.12
14.18713,363.29,440.24
14.20656,362.41,441.33
14.22667,364.83,441.76
14.24633,362.33,441.75
14.26765,365.57,439.27
14.28575,363.50,442.25
14.30615,364.48,442.83
14.32670,364.69,440.99
14.34586,363.72,441.51
14.36632,363.01,444.32
14.38736,362.95,444.49
14.40637,362.25,443.75
14.42769,360.81,445.92
14.44699,358.76,446.31
14.46607,357.93,447.42
14.48697,359.89,447.41
14.50636,360.60,447.72
14.52643,360.63,448.46
14.54616,359.19,451.58
14.56688,359.95,449.61
14.58648,360.80,450.69
14.60666,357.86,448.74
14.62757,358.16,452.96
14.64702,360.15,449.84
14.66704,359.21,449.84
14.68790,357.84,452.16
14.70667,360.05,450.52
14.72721,362.25,452.22
14.74750,360.95,451.90
14.76643,361.42,451.66
14.78787,363.40,452.71
14.80722,360.06,450.64
14.82730,362.26,450.22
14.84741,361.38,451.14
14.86646,360.57,451.07
14.88750,361.48,452.33
14.90688,359.46,450.20
14.92752,358.93,451.75
14.94701,358.98,450.45
14.96692,361.26,449.60
14.98642,362.60,451.18
15.00635,361.94,449.53
15.02753,362.80,451.13
15.04644,362.24,450.20
15.06690,363.72,450.18
15.08657,365.43,451.76
15.10662,363.90,453.62
15.12587,358.25,453.74
15.14621,345.17,452.43
15.16803,329.34,448.88
15.18753,312.31,445.55
15.20762,299.53,442.48
15.22843,287.77,439.05
15.24818,277.42,434.04
15.26820,274.58,426.18
15.28697,271.76,419.95
15.30867,272.52,414.71
15.32824,274.59,411.12
15.34843,279.37,410.29
15.36731,286.97,407.06
15.38775,294.81,407.48
15.40765,302.67,410.73
15.42875,308.83,413.72
15.44824,312.24,414.62
15.46822,320.18,420.00
15.48741,324.08,424.07
15.50726,328.74,428.09
15.52745,333.06,431.40
15.54879,336.18,432.84
15.56867,340.17,435.25
15.58816,343.81,437.96
15.60781,344.45,438.42
15.62802,347.74,441.42
15.64838,350.42,444.66
15.66840,354.62,443.32
15.68802,353.98,447.41
15.70706,358.57,446.18
15.72787,356.24,449.54
15.74775,358.38,450.81
15.76798,357.37,450.70
15.78761,361.79,452.10
15.80703,359.53,449.71
15.82761,360.95,450.84
15.84837,360.91,453.50
15.86813,363.96,454.60
15.88661,363.93,455.86
15.90865,365.26,453.89
15.92856,372.01,459.66
15.94795,385.17,466.42
15.96774,406.39,478.47
15.98706,429.90,491.85
16.00823,453.04,501.34
16.02876,474.91,503.49
16.04870,483.22,503.79
16.06735,488.57,503.13
16.08719,482.86,499.09
16.10859,476.32,497.56
16.12830,467.70,491.40
16.14715,458.11,490.15
16.16882,451.38,483.33
16.18878,440.43,482.92
16.20884,432.10,478.45
16.22815,425.98,477.96
16.24810,416.90,472.04
16.26775,410.22,471.04
16.28881,407.47,466.75
16.30684,401.49,467.80
16.32888,395.11,464.15
16.34862,391.49,461.66
16.36860,386.14,461.93
16.38867,387.10,460.64
16.41046,383.19,461.46
16.42937,380.09,460.58
16.44895,378.09,458.54
16.46896,377.40,456.75
16.49014,376.38,456.74
16.51008,374.18,456.62
16.53002,377.30,456.73
16.55155,376.90,456.91
16.57103,377.16,458.93
16.59185,376.33,457.45
16.61246,375.76,459.69
16.63156,377.74,459.71
16.65219,377.86,457.57
16.67247,376.08,456.87
16.69246,377.28,458.33
16.71217,380.36,458.78
16.73350,378.25,457.18
16.75316,382.36,456.92
16.77225,379.89,454.59
16.79341,381.42,456.17
16.81185,382.81,454.21
16.83262,382.31,455.21
16.85232,380.45,456.66
16.87260,379.04,457.13
16.89246,379.75,454.93
16.91335,381.10,456.46
16.93185,378.93,456.17
16.95293,379.08,454.47
16.97265,379.68,454.82
16.99170,382.44,458.64
17.01442,379.45,454.46
17.03299,382.19,456.42
17.05476,381.03,457.35
17.07419,381.51,453.40
17.09337,381.87,457.15
17.11309,384.66,457.32
17.13372,385.66,458.35
17.15402,381.92,457.61
17.17488,381.30,455.88
17.19651,381.94,457.71
17.21647,381.40,455.88
17.23652,384.06,458.84
17.25674,380.51,456.13
17.27679,382.91,458.03
17.29618,382.57,457.02
17.31600,381.78,457.47
17.33746,383.51,460.37
17.35787,381.15,459.87
17.37709,380.83,458.53
17.39739,380.47,458.85
17.41767,380.78,459.43
17.43760,382.78,457.34
17.45781,381.80,458.79
17.47738,378.24,458.46
17.49718,379.41,457.32
17.51795,379.12,458.12
17.53730,378.71,460.07
17.55847,377.43,456.24
17.57765,380.95,457.33
17.59873,380.08,457.93
17.61772,380.76,457.69
17.63820,378.99,457.55
17.65797,379.08,456.04
17.67863,380.26,459.51
17.69778,381.56,458.91
17.71708,381.30,455.54
17.73838,382.13,457.11
17.75813,380.48,455.66
17.77871,380.48,456.18
17.79694,380.78,456.20
17.81849,380.83,454.62
17.83871,380.22,453.93
17.85806,380.81,454.41
17.87867,382.08,457.44
17.89719,380.89,455.02
17.91831,381.35,456.51
17.93701,379.94,457.50
17.95834,379.32,454.80
17.97791,379.21,455.81
17.99718,376.99,455.87
18.01877,375.80,454.73
18.03710,378.18,457.42
18.05850,376.53,456.58
18.07751,377.18,454.94
18.09766,379.49,456.10
18.11854,378.54,453.37
18.13842,379.04,453.50
18.15852,375.98,453.08
18.17680,380.35,452.99
18.19807,379.34,454.86
18.21848,379.03,451.79
18.23664,377.00,453.08
18.25812,368.25,452.27
18.27737,354.50,451.65
18.29719,337.73,447.23
18.31862,321.74,447.58
18.33829,304.59,441.06
18.35806,296.21,434.06
18.37870,286.18,429.46
18.39778,280.58,424.05
18.41778,276.84,417.12
18.43742,278.02,412.65
18.45741,280.84,412.78
18.47675,284.09,416.05
18.49744,293.88,414.75
18.51799,299.87,418.36
18.53704,309.23,419.88
18.55849,315.14,421.25
18.57764,323.38,423.89
18.59869,330.87,429.96
18.61851,337.69,433.52
18.63774,342.44,435.64
18.65802,348.17,436.85
18.67986,350.16,442.49
18.69988,352.52,443.84
18.72004,356.83,445.85
18.73963,359.19,447.04
18.76071,361.06,446.14
18.78006,363.05,450.76
18.79969,360.49,448.32
18.82048,362.79,449.98
18.83915,362.83,451.01
18.86012,367.84,453.05
18.88067,368.31,452.32
18.90179,365.89,451.75
18.91971,368.89,455.46
18.94124,367.45,455.62
18.96048,368.82,454.32
18.98223,368.44,454.37
19.00183,366.33,453.40
19.02075,366.51,454.84
19.04063,366.71,454.56
19.06267,367.29,453.64
19.08090,366.54,455.34
19.10213,368.34,454.75
19.12348,377.56,459.68
19.14471,394.14,468.09
19.16504,412.70,481.28
19.18418,437.10,489.50
19.20488,459.51,497.37
19.22516,472.44,502.58
19.24583,479.09,502.67
19.26518,481.15,498.62
19.28651,476.60,494.44
19.30565,470.86,492.39
19.32622,462.56,486.59
19.34636,453.17,483.85
19.36481,444.14,480.42
19.38505,433.19,476.89
19.40485,424.36,472.24
19.42767,418.52,471.03
19.44630,413.33,467.66
19.46619,405.00,463.29
19.48847,400.27,464.50
19.50687,396.23,461.35
19.52657,389.92,461.74
19.54734,385.47,458.29
19.56728,384.67,461.24
19.58766,382.19,459.07
19.60838,379.93,457.83
19.62743,377.76,459.40
19.64857,375.21,457.08
19.66780,374.50,454.74
19.68815,372.02,457.81
19.70829,370.21,455.56
19.72803,371.05,457.76
19.74788,371.38,456.28
19.76777,369.02,456.50
19.78841,372.41,455.06
19.80911,369.25,453.61
19.82878,368.20,456.15
19.84892,368.07,455.99
19.86800,370.08,454.45
19.88877,369.21,456.03
19.90785,370.75,455.30
19.92896,370.79,455.82
19.94911,368.61,455.58
19.96915,372.77,452.51
19.98950,370.91,454.37
20.00896,373.10,455.60
20.03004,371.75,455.41
20.05040,369.98,452.80
20.06893,371.03,455.37
20.09001,369.54,453.41
20.11139,369.18,455.45
20.13017,372.29,455.65
20.15240,374.75,457.13
20.17201,374.70,453.98
20.19421,375.61,454.30
20.21332,376.69,456.51
20.23286,378.96,453.83
20.25436,378.33,457.35
20.27410,381.03,453.23
20.29297,381.85,457.20
20.31456,382.60,456.57
20.33375,382.69,455.49
20.35452,379.70,456.41
20.37399,380.94,453.62
20.39630,380.38,453.42
20.41644,381.32,454.39
20.43754,378.53,454.56
20.45776,378.39,453.91
20.47969,376.09,453.31
20.49959,376.45,454.51
20.52097,372.79,455.89
20.53994,372.19,455.72
20.56005,372.54,453.60
20.58168,371.81,455.20
20.60030,372.58,453.53
20.62031,372.24,454.26
20.64045,368.77,456.95
20.66168,370.10,453.46
20.68208,367.97,455.40
20.70253,367.71,455.75
20.72249,369.39,455.63
20.74200,366.64,456.77
20.76096,368.65,458.07
20.78137,367.92,455.81
20.80236,365.11,456.34
20.82228,366.84,456.44
20.84280,367.56,456.16
20.86231,363.59,455.91
20.88172,364.57,456.01
20.90263,365.97,457.41
20.92161,364.80,457.14
20.94142,366.95,455.21
20.96136,366.11,454.23
20.98126,363.70,453.85
21.00214,364.32,452.99
21.02233,365.42,452.02
21.04334,365.68,454.46
21.06455,363.81,451.76
21.08359,365.18,450.71
21.10384,365.62,453.99
21.12418,365.26,453.08
21.14573,364.49,451.60
21.16546,363.66,451.04
21.18508,366.41,450.12
21.20526,363.45,450.43
21.22510,362.17,451.62
21.24551,362.26,452.32
21.26486,364.14,454.53
21.28380,363.78,453.70
21.30487,360.71,452.88
21.32476,360.54,452.38
21.34446,361.31,451.86
21.36539,361.81,453.46
21.38393,361.89,453.19
21.40472,363.30,452.97
21.42505,362.40,453.23
21.44371,363.25,453.54
21.46540,362.78,455.23
21.48502,363.08,452.54
21.50606,361.98,454.55
21.52672,351.03,448.77
21.54591,336.69,441.02
21.56786,320.42,432.85
21.58562,304.97,422.21
21.60625,291.74,414.19
21.62655,280.82,406.68
21.64714,274.15,406.80
21.66632,268.62,402.14
21.68633,265.96,405.98
21.70688,268.08,407.18
21.72769,272.66,411.83
21.75046,278.49,415.06
21.76916,282.27,418.64
21.79092,292.29,422.78
21.81000,300.12,427.87
21.83056,307.03,428.83
21.85045,313.50,431.08
21.87062,320.68,435.45
21.89163,329.53,437.13
21.91206,338.08,440.24
21.93204,341.93,440.12
21.95215,346.77,445.19
21.97168,350.98,445.32
21.99180,356.11,446.44
22.01151,360.03,447.91
22.03174,362.62,448.78
22.05366,364.80,450.63
22.07329,365.06,452.59
22.09406,366.38,454.37
22.11440,367.83,452.05
22.13489,367.40,452.10
22.15375,370.17,453.16
22.17473,372.40,453.19
22.19509,375.41,454.48
22.21485,377.01,455.54
22.23552,377.25,456.37
22.25632,373.74,457.37
22.27532,373.40,455.59
22.29642,376.14,457.14
22.31547,375.17,456.54
22.33762,376.96,457.70
22.35596,376.79,458.52
22.37617,377.85,456.05
22.39691,378.63,458.39
22.41625,382.32,456.57
22.43728,378.60,457.29
22.45653,378.56,459.60
22.47694,379.96,458.47
22.49711,380.75,456.59
22.51657,378.47,456.80
22.53608,380.72,459.30
22.55591,393.59,463.08
22.57642,414.34,472.48
22.59747,440.01,477.27
22.61713,460.73,480.74
22.63696,480.65,484.72
22.65841,494.10,485.71
22.67850,492.91,484.97
22.69855,490.11,480.57
22.71892,480.32,477.80
22.73771,472.21,478.05
22.75902,464.41,473.01
22.77853,456.13,470.06
22.79861,448.93,469.67
22.81893,439.43,467.20
22.83851,430.93,466.87
22.85831,425.40,465.50
22.87909,418.04,463.70
22.89800,413.28,460.29
22.91950,408.11,463.56
22.93894,404.01,462.56
22.95795,400.71,462.64
22.97767,393.09,462.99
22.99845,389.97,459.54
23.01892,390.65,459.58
23.03840,385.92,462.20
23.05917,386.57,460.72
23.07888,384.29,458.20
23.09872,383.30,460.62
23.11862,381.79,460.66
23.13804,381.30,458.88
23.15904,377.60,459.19
23.17934,376.78,459.42
23.19770,375.97,458.42
23.21965,374.07,458.91
23.23863,376.22,457.02
23.25858,376.94,456.16
23.27825,374.87,454.85
23.29750,376.16,456.18
23.31854,375.43,457.69
23.33830,374.12,457.67
23.35956,374.02,455.07
23.37823,371.97,455.94
23.39811,379.81,459.82
23.41782,383.84,462.68
23.43866,387.74,465.62
23.45903,387.40,465.47
23.47856,388.05,465.79
23.49854,386.76,464.67
23.51880,389.30,466.50
23.53934,387.26,462.74
23.55810,387.57,464.47
23.57768,387.05,461.58
23.59815,383.29,460.86
23.61944,381.51,462.95
23.63961,382.36,463.57
23.65929,380.04,462.02
23.67777,379.70,460.37
23.69787,377.40,459.91
23.71818,379.02,456.48
23.73814,374.71,456.43
23.75924,376.12,457.38
23.77928,377.73,454.35
23.79823,375.36,455.46
23.81837,375.72,454.16
23.83913,376.49,453.13
23.85830,374.87,455.55
23.87865,374.09,455.70
23.90074,374.85,452.81
23.92086,370.11,455.18
23.94226,371.58,452.25
23.96247,369.48,452.02
23.98353,370.63,454.95
24.00217,367.04,453.79
24.02351,365.67,454.26
24.04289,366.44,452.84
24.06363,363.67,455.50
24.08209,363.82,453.26
24.10409,363.20,454.44
24.12303,363.77,452.08
24.14390,363.33,454.54
24.16417,361.36,455.88
24.18405,361.69,453.11
24.20400,363.53,456.77
24.22272,361.76,453.76
24.24425,363.10,455.17
24.26343,362.53,454.71
24.28444,362.53,453.48
24.30354,362.92,453.26
24.32481,363.07,452.89
24.34489,365.11,454.44
24.36541,365.55,452.49
24.38465,364.35,454.85
24.40463,365.28,452.77
24.42509,365.79,451.68
24.44697,365.00,454.80
24.46769,366.68,453.98
24.48598,366.29,453.50
24.50608,367.44,451.34
24.52577,367.06,451.45
24.54718,363.67,451.67
24.56624,366.68,451.89
24.58709,365.25,452.18
24.60703,365.96,453.94
24.62819,367.11,454.62
24.64727,366.02,454.25
24.66794,365.63,451.13
24.68815,368.05,451.34
24.70719,368.68,453.37
24.72703,366.79,453.85
24.74679,368.89,453.60
24.76756,369.77,451.41
24.78858,371.83,451.49
24.80752,372.09,448.85
24.82897,372.21,449.29
24.84792,369.24,449.25
24.86793,371.65,449.65
24.88948,373.82,451.84
24.91051,373.68,448.84
24.93001,376.23,449.19
24.94984,373.31,450.59
24.97047,370.22,450.07
24.98991,357.46,454.18
25.01076,344.73,451.84
25.03089,328.30,454.63
25.05192,308.68,448.10
25.07144,295.30,441.35
25.09166,288.80,433.55
25.11187,280.31,426.43
25.13336,277.21,423.17
25.15291,278.46,421.54
25.17376,278.60,417.65
25.19474,282.16,421.09
25.21676,287.02,422.14
25.23590,290.94,422.10
25.25646,299.20,426.68
25.27778,305.65,429.26
25.29939,311.84,430.32
25.31825,318.72,434.70
25.33906,326.47,435.32
25.35791,333.05,438.31
25.37960,339.05,439.62
25.39897,342.14,443.39
25.41807,348.76,443.62
25.43832,350.09,446.70
25.45944,352.64,445.60
25.47924,357.73,447.03
25.49864,359.58,446.57
25.51768,360.53,446.28
25.53914,360.56,448.37
25.55885,365.16,448.43
25.57848,364.57,447.16
25.59848,365.62,449.16
25.61833,367.94,448.12
25.63833,368.69,449.94
25.65898,369.42,451.04
25.67929,371.53,449.03
25.70002,372.02,452.14
25.71858,371.65,451.39
25.73852,377.93,454.21
25.76019,396.36,457.47
25.78166,414.87,462.18
25.80092,441.16,463.36
25.82198,462.66,463.80
25.84102,482.25,464.75
25.86094,491.69,465.66
25.88158,496.02,461.52
25.90227,493.49,462.23
25.92204,485.33,459.33
25.94213,477.65,458.51
25.96105,468.91,457.70
25.98198,457.67,457.92
26.00066,450.41,456.68
26.02265,438.73,457.54
26.04355,429.26,456.00
26.06549,422.22,459.30
26.08450,416.46,463.66
26.10341,409.48,463.27
26.12494,405.73,463.93
26.14412,399.32,463.60
26.16507,394.29,463.26
26.18488,390.36,463.41
26.20413,386.90,460.10
26.22551,380.41,459.62
26.24554,380.50,457.56
26.26391,376.77,459.66
26.28372,372.77,457.86
26.30466,372.71,456.31
26.32538,370.71,456.43
26.34494,369.98,453.76
26.36435,370.52,452.58
26.38538,366.01,454.61
26.40423,365.07,452.51
26.42424,363.50,451.33
26.44547,362.88,452.44
26.46369,362.07,452.61
26.48488,363.29,450.74
26.50496,363.27,449.15
26.52449,359.81,452.89
26.54541,362.24,451.61
26.56366,361.01,450.09
26.58650,362.95,452.75
26.60619,363.00,453.22
26.62530,364.05,454.20
26.64477,365.13,454.30
26.66466,364.49,449.98
26.68632,364.23,450.51
26.70682,366.28,450.80
26.72788,367.30,451.03
26.74675,366.48,452.60
26.76814,365.69,451.19
26.78667,365.41,452.40
26.80816,364.60,450.96
26.82808,366.18,453.51
26.84843,367.30,451.65
26.87048,369.20,455.45
26.89081,373.82,452.95
26.90978,372.20,450.81
26.93042,373.27,454.23
26.95055,376.11,454.04
26.96998,375.76,453.25
26.99101,375.82,453.32
27.01032,375.61,452.40
27.03026,374.76,453.27
27.04997,376.19,452.73
27.06996,377.92,452.01
27.09028,376.27,452.67
27.11083,377.82,452.00
27.12983,376.58,453.09
27.15049,376.56,456.18
27.17020,377.56,454.63
27.19131,379.51,454.08
27.21205,377.49,455.44
27.23332,375.83,456.70
27.25336,377.56,457.81
27.27263,377.92,456.59
27.29240,380.23,458.04
27.31161,379.59,454.92
27.33403,380.44,457.64
27.35289,378.65,454.58
27.37430,381.33,454.38
27.39293,379.78,454.92
27.41440,378.15,452.61
27.43393,382.05,453.86
27.45395,380.89,456.30
27.47295,379.48,455.56
27.49284,381.78,454.91
27.51334,378.89,454.36
27.53441,380.19,455.22
27.55367,379.64,452.86
27.57475,378.37,455.35
27.59543,382.58,455.10
27.61517,380.67,452.81
27.63408,383.12,456.28
27.65520,381.78,453.40
27.67453,381.55,455.51
27.69416,379.10,454.06
27.71394,380.90,456.31
27.73379,380.08,455.50
27.75532,379.39,454.94
27.77471,381.14,453.63
27.79411,378.53,454.32
27.81531,380.25,453.62
27.83500,381.89,454.40
27.85534,382.93,457.61
27.87367,380.70,458.10
27.89465,381.73,458.41
27.91464,380.94,457.30
27.93575,381.23,456.95
27.95539,380.31,457.42
27.97462,383.63,454.50
27.99442,383.55,456.97
28.01371,380.01,457.25
28.03484,369.53,460.03
28.05410,355.06,468.57
28.07464,337.45,473.68
28.09373,318.72,473.76
28.11445,299.24,470.87
28.13445,288.56,464.53
28.15419,279.27,455.57
28.17449,271.45,447.39
28.19516,270.21,440.48
28.21398,270.56,434.99
28.23455,274.67,431.99
28.25411,277.13,426.70
28.27460,284.50,424.38
28.29363,288.51,426.05
28.31358,298.08,426.67
28.33364,302.89,426.57
28.35418,311.99,429.63
28.37466,318.53,431.82
28.39439,321.24,432.16
28.41409,327.81,432.86
28.43353,335.73,438.90
28.45505,339.82,439.02
28.47419,346.95,442.31
28.49424,351.34,444.53
28.51355,356.18,444.12
28.53371,358.35,445.50
28.55487,359.74,448.54
28.57389,362.18,449.69
28.59457,366.72,448.80
28.61362,369.41,449.64
28.63495,369.86,452.01
28.65375,369.06,450.35
28.67407,370.03,450.33
28.69491,374.45,453.20
28.71484,373.22,451.51
28.73469,376.77,451.89
28.75542,377.43,451.28
28.77484,374.56,452.14
28.79508,376.15,452.10
28.81425,384.52,455.14
28.83505,400.06,452.56
28.85443,420.06,455.86
28.87356,440.39,459.68
28.89435,463.69,463.64
28.91509,487.02,464.30
28.93413,502.14,467.74
28.95380,512.74,473.24
28.97378,512.84,473.53
28.99409,508.45,473.69
29.01347,499.43,471.28
29.03409,490.09,470.53
29.05426,479.77,467.69
29.07425,470.94,466.12
29.09365,463.32,469.30
29.11427,454.76,470.01
29.13388,446.37,469.90
29.15361,440.03,469.63
29.17431,430.53,466.97
29.19376,425.86,466.11
29.21459,420.83,466.50
29.23593,417.08,466.89
29.25580,409.49,466.77
29.27443,405.87,463.62
29.29700,403.94,462.33
29.31685,400.86,464.94
29.33687,397.37,463.10
29.35576,394.41,464.38
29.37803,390.66,462.42
29.39826,388.14,464.16
29.41883,389.47,460.65
29.43826,386.13,461.38
29.45849,386.07,459.12
29.47909,383.20,458.25
29.49827,384.40,457.11
29.51795,382.56,458.15
29.53968,380.79,459.19
29.55823,381.64,457.86
29.57769,378.03,455.24
29.59749,379.33,455.13
29.61820,378.32,457.39
29.63803,380.99,453.82
29.65884,380.08,456.92
29.67827,379.67,455.73
29.69858,378.70,454.25
29.71792,379.10,453.21
29.73918,376.88,453.45
29.75884,377.27,452.57
29.77930,376.70,452.10
29.79838,376.29,455.11
29.82008,374.23,454.86
29.83999,376.56,454.98
29.85877,375.04,454.05
29.87911,374.66,454.14
29.89987,373.43,454.69
29.91967,373.12,454.63
29.93908,374.04,456.13
29.96010,373.02,455.26
29.98159,375.23,455.86
30.00119,374.24,452.66
30.02274,370.87,453.52
30.04397,368.52,455.24
30.06348,369.65,453.53
30.08487,365.04,454.88
30.10452,365.39,453.20
30.12382,366.35,454.99
30.14549,361.90,455.09
30.16511,361.82,457.75
30.18390,363.23,455.92
30.20375,361.45,454.21
30.22393,364.89,454.91
30.24389,361.36,455.81
30.26379,362.11,456.90
30.28510,363.95,453.53
30.30420,360.01,455.00
30.32484,362.17,456.24
30.34491,360.37,453.17
30.36416,360.43,455.14
30.38383,360.74,454.60
30.40350,362.17,455.76
30.42363,359.00,453.15
30.44355,362.28,452.44
30.46442,361.85,453.33
30.48497,362.79,452.89
30.50439,362.69,455.66
30.52490,363.33,453.02
30.54389,360.30,456.24
30.56523,362.31,456.19
30.58417,363.18,452.88
30.60409,363.67,454.72
30.62528,360.33,454.46
30.64541,361.91,452.02
30.66335,360.77,451.65
30.68534,362.62,454.03
30.70388,360.73,454.43
30.72405,359.67,453.09
30.74604,363.22,454.89
30.76520,363.87,454.98
30.78454,361.10,453.96
30.80577,361.10,453.11
30.82584,360.13,456.42
30.84478,363.85,456.37
30.86446,359.95,456.01
30.88594,359.50,453.45
30.90710,363.41,454.61
30.92796,363.80,451.91
30.94799,361.44,454.46
30.96743,364.85,454.14
30.98704,360.78,451.64
31.00651,363.38,453.87
31.02665,361.54,452.91
31.04700,364.13,454.07
31.06774,361.19,454.67
31.08837,362.09,456.91
31.10811,364.72,456.75
31.12829,362.28,456.47
31.14828,365.43,458.23
31.16821,364.55,456.77
31.18738,364.86,454.83
31.20753,365.09,457.56
31.22894,366.55,455.29
31.24903,367.47,455.60
31.26793,365.85,456.08
31.28930,368.29,454.67
31.30760,368.32,454.17
31.32847,368.23,456.22
31.34767,366.17,454.35
31.36917,367.37,454.74
31.38925,367.81,453.72
31.40739,369.74,451.13
31.42870,368.71,450.88
31.44860,368.41,452.62
31.46874,365.89,454.64
31.48763,365.99,453.07
31.50865,364.92,452.33
31.52862,365.70,453.12
31.54811,366.78,451.25
31.56829,368.18,451.00
31.58899,366.06,449.73
31.60906,367.12,452.71
31.62755,365.17,451.62
31.64795,367.44,451.12
31.66901,367.94,452.24
31.68996,367.53,449.47
31.70886,367.45,450.99
31.72966,367.28,451.41
31.75028,365.13,450.46
31.76981,368.21,449.67
31.78850,366.47,452.48
31.80876,362.31,451.94
31.82872,347.91,450.34
31.84910,334.32,449.19
31.87006,316.55,448.85
31.88916,295.77,443.94
31.90961,282.46,438.21
31.93017,270.33,433.29
31.94944,263.06,429.86
31.96966,259.95,430.18
31.99096,261.19,430.44
32.00940,261.66,428.45
32.02964,266.17,427.73
32.04974,271.27,428.10
32.07068,276.61,430.77
32.08956,282.82,432.23
32.11046,291.46,434.54
32.13136,298.79,434.47
32.14969,307.60,435.60
32.17119,314.41,437.70
32.19060,320.01,439.19
32.21181,327.88,441.73
32.23180,332.20,444.42
32.25033,336.12,446.77
32.27092,339.05,445.94
32.29122,342.72,449.87
32.31114,348.22,449.31
32.33178,350.02,451.13
32.35074,355.86,450.58
32.37291,358.32,452.34
32.39278,361.48,450.76
32.41298,362.24,449.19
32.43314,362.91,452.83
32.45235,365.64,450.26
32.47142,367.05,449.72
32.49164,367.67,451.00
32.51357,368.42,453.79
32.53428,372.41,449.97
32.55288,369.52,454.15
32.57366,379.24,452.64
32.59368,394.10,458.33
32.61330,415.56,459.39
32.63309,439.79,460.89
32.65238,464.46,460.52
32.67387,486.11,464.46
32.69419,500.97,470.50
32.71399,503.36,468.62
32.73340,502.41,470.14
32.75320,497.47,470.38
32.77327,489.96,469.84
32.79377,479.16,466.73
32.81377,470.65,466.31
32.83281,463.91,468.35
32.85285,456.82,470.43
32.87348,450.15,469.84
32.89254,443.28,471.36
32.91335,434.74,469.46
32.93457,430.69,466.93
32.95370,423.59,464.39
32.97432,418.05,466.28
32.99416,411.07,462.32
33.01449,405.75,463.86
33.03398,403.02,462.59
33.05351,398.22,460.08
33.07303,395.93,458.03
33.09376,393.63,458.45
33.11259,390.01,457.08
33.13292,388.03,456.28
33.15301,385.50,455.44
33.17424,386.05,455.77
33.19362,384.96,457.74
33.21289,382.68,455.49
33.23404,381.36,455.52
33.25277,379.61,455.34
33.27333,378.23,456.55
33.29413,379.10,454.19
33.31269,377.98,454.00
33.33318,376.31,455.97
33.35326,374.67,453.53
33.37445,375.26,455.22
33.39311,373.86,453.58
33.41354,375.14,453.83
33.43393,373.76,451.68
33.45412,375.22,453.56
33.47345,376.56,453.08
33.49325,374.93,454.93
33.51336,378.19,456.60
33.53415,376.57,455.05
33.55279,376.90,456.21
33.57322,375.80,457.09
33.59376,374.52,455.66
33.61351,374.35,454.53
33.63418,374.38,453.42
33.65435,373.95,456.54
33.67279,376.22,454.85
33.69366,375.01,454.81
33.71248,375.32,454.82
33.73261,376.16,454.13
33.75331,377.28,454.61
33.77438,374.75,452.52
33.79326,376.98,454.19
33.81275,374.54,454.35
33.83279,375.72,454.04
33.85435,376.33,455.45
33.87378,374.59,456.05
33.89308,377.61,454.78
33.91263,376.74,452.89
33.93405,376.61,452.15
33.95379,374.52,455.12
33.97296,376.13,452.45
33.99284,375.35,454.16
34.01273,375.51,452.75
34.03318,373.69,454.36
34.05320,374.92,453.55
34.07430,375.96,452.19
34.09300,375.50,452.91
34.11422,376.32,450.92
34.13422,374.00,452.44
34.15288,375.60,451.49
34.17281,374.49,453.22
34.19429,376.02,454.51
34.21245,376.92,451.69
34.23294,376.03,455.13
34.25255,376.71,454.69
34.27366,374.56,452.95
34.29433,377.55,455.05
34.31327,374.63,452.27
34.33408,378.08,455.62
34.35430,375.02,452.58
34.37297,373.62,453.76
34.39361,374.41,452.60
34.41274,373.06,453.06
34.43381,373.62,452.06
34.45412,373.32,453.65
34.47270,372.35,452.67
34.49370,374.75,454.17
34.51263,373.37,452.19
34.53439,376.70,453.88
34.55437,375.89,454.02
34.57412,372.72,453.49
34.59413,374.12,451.05
34.61299,373.73,452.73
34.63411,375.60,453.37
34.65445,375.15,452.94
34.67273,375.44,451.43
34.69312,376.20,451.83
34.71227,374.72,453.26
34.73426,373.75,451.44
34.75350,375.28,453.17
34.77409,373.32,452.64
34.79278,376.45,452.41
34.81435,376.72,452.88
34.83247,376.53,453.95
34.85397,372.69,454.68
34.87417,371.83,451.93
34.89271,371.45,451.21
34.91334,373.45,450.08
34.93321,372.60,450.09
34.95404,371.96,452.72
34.97330,370.39,451.91
34.99392,370.28,454.68
35.01251,373.53,455.20
35.03379,372.44,454.58
35.05312,370.97,454.08
35.07445,371.97,453.56
35.09245,373.13,456.18
35.11304,373.96,456.19
35.13232,374.21,456.59
35.15337,375.39,456.53
35.17390,373.80,457.64
35.19355,376.02,453.61
35.21343,375.31,454.57
35.23265,374.89,455.20
35.25288,376.04,453.96
35.27295,375.69,455.47
35.29368,371.64,455.01
35.31245,374.03,455.01
35.33322,372.64,453.01
35.35272,373.18,453.84
35.37335,372.20,451.18
35.39387,372.06,452.30
35.41436,375.51,451.47
35.43251,373.47,454.87
35.45408,374.06,453.41
35.47291,375.00,452.17
35.49430,373.94,452.31
35.51345,374.44,451.83
35.53382,374.78,450.68
35.55536,371.66,451.58
35.57505,364.37,456.10
35.59415,352.48,460.77
35.61416,335.61,463.62
35.63526,317.88,463.17
35.65364,303.39,459.34
35.67388,286.53,453.08
35.69452,280.30,445.34
35.71362,273.91,435.74
35.73398,268.59,429.15
35.75461,271.79,421.31
35.77431,271.67,418.51
35.79409,272.97,415.79
35.81508,280.84,412.78
35.83394,285.05,415.31
35.85453,290.43,412.85
35.87472,296.95,415.35
35.89522,305.77,417.05
35.91354,312.04,418.86
35.93516,319.99,422.87
35.95474,326.19,425.52
35.97500,332.52,428.92
35.99398,335.96,431.01
36.01336,344.61,434.42
36.03373,346.77,435.48
36.05400,352.46,437.14
36.07470,356.46,437.58
36.09547,358.89,438.93
36.11448,360.87,443.52
36.13458,363.87,445.14
36.15528,365.67,446.61
36.17473,365.96,448.07
36.19412,368.15,446.51
36.21339,367.85,447.82
36.23433,369.63,447.45
36.25363,371.13,451.90
36.27549,373.91,451.75
36.29435,375.40,453.18
36.31338,376.31,454.28
36.33533,373.63,453.88
36.35366,373.58,452.73
36.37356,377.09,452.91
36.39426,375.70,454.99
36.41386,376.93,453.75
36.43480,377.32,451.30
36.45519,377.57,454.09
36.47352,378.09,451.27
36.49435,376.19,452.83
36.51472,382.98,455.43
36.53322,394.69,456.10
36.55376,410.92,453.64
36.57457,430.74,451.63
36.59441,447.50,453.75
36.61403,464.70,460.19
36.63399,484.48,467.26
36.65373,497.72,473.20
36.67441,507.27,477.42
36.69491,507.67,481.90
36.71399,503.25,478.41
36.73381,494.91,477.51
36.75585,484.46,477.85
36.77582,474.39,474.03
36.79584,462.10,474.18
36.81448,454.99,469.38
36.83468,444.13,466.92
36.85606,437.81,466.57
36.87546,429.48,465.51
36.89556,419.47,463.12
36.91432,413.55,464.82
36.93484,410.41,465.00
36.95544,404.41,464.46
36.97622,399.55,459.87
36.99501,394.67,462.11
37.01520,392.59,460.20
37.03543,391.08,459.43
37.05429,391.17,460.68
37.07560,391.86,457.72
37.09621,387.25,458.58
37.11622,387.29,459.73
37.13591,385.73,457.25
37.15434,384.83,459.67
37.17587,383.18,458.15
37.19527,383.33,455.98
37.21466,381.66,456.56
37.23572,380.36,458.66
37.25488,382.45,455.22
37.27561,379.45,454.56
37.29477,378.34,454.78
37.31616,379.60,457.08
37.33561,380.18,452.60
37.35606,379.34,454.02
37.37443,381.67,453.67
37.39507,380.86,452.16
37.41496,377.76,452.48
37.43429,377.92,453.60
37.45521,378.14,454.90
37.47615,378.07,452.85
37.49550,378.23,454.96
37.51446,379.53,453.64
37.53516,375.41,457.37
37.55537,378.38,457.66
37.57431,374.90,459.10
37.59558,377.61,455.94
37.61428,374.40,456.99
37.63530,375.46,458.20
37.65552,373.30,456.78
37.67542,375.46,457.11
37.69698,376.15,457.69
37.71639,378.64,456.30
37.73536,377.15,455.45
37.75594,377.05,458.14
37.77606,377.03,456.61
37.79737,376.53,452.82
37.81717,374.68,453.65
37.83616,376.21,455.52
37.85621,375.75,453.84
37.87715,377.61,452.12
37.89652,377.59,452.60
37.91554,377.38,452.55
37.93647,377.42,453.88
37.95576,378.67,452.97
37.97558,379.61,453.94
37.99565,380.90,452.82
38.01612,380.02,454.88
38.03645,377.15,452.80
38.05561,377.69,453.56
38.07721,376.79,454.52
38.09583,376.42,453.02
38.11585,375.12,454.04
38.13569,374.29,453.61
38.15618,375.54,454.92
38.17725,376.71,452.89
38.19679,378.23,452.00
38.21624,378.96,455.20
38.23590,378.04,452.41
38.25547,377.94,454.55
38.27512,377.83,455.04
38.29590,376.43,453.12
38.31594,378.89,452.45
38.33531,377.34,454.77
38.35658,379.39,455.13
38.37590,378.91,455.12
38.39637,380.80,452.63
38.41707,380.41,454.94
38.43590,376.99,452.19
38.45567,378.53,452.13
38.47586,380.28,454.88
38.49735,377.97,454.39
38.51561,381.33,453.08
38.53663,381.17,455.10
38.55646,381.30,453.62
38.57643,382.53,450.75
38.59652,378.89,452.28
38.61622,378.63,454.48
38.63674,378.80,453.70
38.65548,378.33,452.34
38.67685,378.75,452.18
38.69651,380.37,452.22
38.71548,379.17,457.39
38.73689,379.57,456.64
38.75700,381.52,456.21
38.77639,378.78,455.47
38.79544,379.41,456.62
38.81663,379.63,457.79
38.83623,380.84,458.66
38.85674,380.57,454.68
38.87660,380.18,457.16
38.89658,382.07,456.63
38.91648,380.07,453.80
38.93578,379.70,455.92
38.95585,379.13,455.50
38.97670,378.45,454.19
38.99722,379.88,453.18
39.01545,380.23,453.65
39.03588,381.61,452.82
39.05619,382.67,451.70
39.07704,380.02,452.68
39.09581,378.32,453.12
39.11717,380.85,451.13
39.13565,378.66,453.09
39.15753,381.79,452.64
39.17655,380.39,453.39
39.19673,379.82,454.92
39.21532,377.26,454.59
39.23622,376.67,456.00
39.25604,378.92,454.66
39.27670,376.25,455.05
39.29635,375.41,452.99
39.31693,366.10,452.43
39.33679,350.40,448.96
39.35625,329.21,448.01
39.37551,311.80,446.69
39.39598,291.95,448.79
39.41649,278.98,447.48
39.43614,271.71,449.52
39.45664,265.67,446.19
39.47652,262.14,442.73
39.49563,262.53,435.51
39.51705,266.27,435.37
39.53686,274.49,431.69
39.55611,280.74,426.79
39.57639,290.57,428.32
39.59633,295.10,428.11
39.61612,306.72,427.94
39.63658,313.91,431.44
39.65684,320.51,431.80
39.67818,325.82,434.08
39.69755,334.19,433.78
39.71698,340.13,437.95
39.73708,344.30,439.97
39.75701,348.22,443.86
39.77637,352.53,443.41
39.79716,357.37,446.05
39.81740,359.34,446.87
39.83740,362.89,444.95
39.85698,366.10,445.12
39.87750,366.36,446.13
39.89692,368.10,449.00
39.91692,371.78,445.92
39.93769,373.18,448.24
39.95635,373.55,448.79
39.97624,375.55,449.21
39.99671,378.75,449.55
40.01687,383.13,452.60
40.03698,393.78,455.05
40.05732,406.42,457.82
40.07721,420.95,458.18
40.09656,437.61,460.73
40.11822,459.24,463.81
40.13661,478.68,464.13
40.15642,492.68,464.20
40.17738,504.06,468.12
40.19692,502.74,466.75
40.21743,502.68,464.56
40.23704,497.22,464.94
40.25751,485.49,463.69
40.27718,478.35,460.84
40.29736,466.10,461.44
40.31707,458.43,460.70
40.33771,448.91,458.90
40.35647,442.42,465.81
40.37762,436.15,466.80
40.39780,426.81,467.34
40.41799,423.39,468.32
40.43774,418.28,468.77
40.45804,412.71,467.56
40.47632,409.50,465.83
40.49736,405.47,463.54
40.51737,402.40,465.73
40.53651,397.53,461.81
40.55770,396.14,462.57
40.57786,391.64,460.16
40.59800,390.37,459.51
40.61796,391.64,457.71
40.63738,390.75,459.00
40.65826,388.09,457.35
40.67629,388.51,454.79
40.69796,387.82,454.96
40.71857,384.84,457.03
40.73874,385.87,454.22
40.76001,384.31,453.84
40.77770,384.40,454.89
40.79769,385.29,455.08
40.81904,382.98,451.85
40.83784,385.69,452.57
40.85842,382.59,451.40
40.87869,383.31,454.02
40.89782,383.58,452.30
40.91895,384.66,453.39
40.93843,384.92,453.23
40.95854,384.07,452.32
40.97750,382.48,453.21
40.99791,384.35,450.57
41.01887,383.37,452.02
41.03738,380.84,450.82
41.05917,380.60,451.55
41.07793,380.32,453.64
41.09883,381.68,452.02
41.11758,379.91,452.60
41.13816,381.72,453.54
41.15928,379.44,453.21
41.17782,379.98,455.86
41.19717,378.24,454.29
41.21753,378.56,456.58
41.23924,377.37,452.85
41.25900,378.47,455.40
41.27877,380.28,454.63
41.29818,379.20,454.76
41.31766,376.97,452.19
41.33761,377.87,451.17
41.35909,380.44,450.37
41.37759,379.99,452.93
41.39847,380.18,453.09
41.41789,381.34,452.14
41.43865,381.29,451.26
41.45921,381.85,453.47
41.47821,381.99,451.93
41.49796,381.54,451.69
41.51806,382.83,452.70
41.53893,379.85,451.65
41.55837,382.18,450.34
41.57868,379.32,450.28
41.59917,377.67,449.50
41.61887,379.86,450.44
41.63844,378.37,450.52
41.66004,379.77,452.63
41.67994,380.18,453.98
41.70020,381.82,454.43
41.71898,384.79,453.06
41.73965,383.30,455.21
41.75920,382.37,453.27
41.77844,383.94,454.73
41.79988,382.50,454.77
41.81997,383.49,454.12
41.84020,383.07,452.54
41.85972,384.09,453.11
41.87861,379.69,452.74
41.89926,381.10,454.56
41.92006,381.57,454.09
41.94091,382.21,451.60
41.96034,380.94,452.39
41.98046,380.87,454.07
42.00010,380.93,452.00
42.02099,380.63,454.99
42.03936,381.37,453.02
42.06067,380.78,453.95
42.08091,379.55,452.58
42.10030,379.79,454.81
42.12090,380.49,454.19
42.13971,380.86,455.48
42.15942,382.18,455.14
42.17934,382.03,453.18
42.19948,381.39,454.98
42.22117,383.34,453.41
42.24107,383.95,454.42
42.25947,382.20,456.79
42.28101,381.11,455.05
42.30009,383.17,455.61
42.31994,380.64,455.08
42.34022,384.49,455.11
42.35943,383.78,455.12
42.38006,382.62,456.12
42.40053,382.60,456.49
42.42008,381.37,455.84
42.43940,380.53,454.49
42.46030,381.41,452.51
42.47998,383.76,451.33
42.50068,381.85,450.89
42.52080,382.66,454.89
42.53950,383.40,453.58
42.55961,379.76,452.59
42.58006,381.53,454.15
42.60038,382.99,453.79
42.61998,380.39,451.72
42.63938,381.15,451.46
42.66026,382.61,455.35
42.68077,380.42,454.70
42.69926,381.58,454.94
42.71954,379.18,457.26
42.73923,381.92,455.62
42.76047,379.96,456.02
42.77972,379.26,455.36
42.80021,381.93,457.00
42.82104,382.00,454.10
42.83985,380.74,455.27
42.86016,379.70,453.95
42.88111,382.37,453.92
42.89983,380.86,454.56
42.92066,384.04,455.52
42.94054,383.66,453.06
42.96067,382.75,454.50
42.98103,380.39,453.45
43.00070,380.69,454.93
43.01921,379.38,454.95
43.04064,382.25,454.40
43.06017,381.67,453.72
43.08086,380.42,451.44
43.10130,381.82,452.36
43.11937,380.47,455.37
43.14061,383.35,455.34
43.16109,381.08,455.00
43.18106,380.57,456.42
43.20002,384.22,455.65
43.21990,381.42,455.90
43.23938,383.99,457.09
43.25966,384.66,457.50
43.27982,382.08,454.89
43.29974,382.95,455.12
43.32061,384.71,455.11
43.34012,380.40,453.37
43.35968,380.13,454.14
43.38055,379.05,455.45
43.40024,378.44,455.07
43.41951,381.13,453.96
43.44078,381.46,452.27
43.45989,381.48,452.80
43.48041,381.86,452.23
43.50034,379.60,451.90
43.52024,381.83,452.58
43.54056,382.66,452.70
43.56102,382.22,451.36
43.57984,382.23,452.68
43.59959,381.54,451.23
43.62011,381.94,449.84
43.64048,378.89,451.55
43.66007,365.15,447.69
43.68008,349.08,449.35
43.70033,327.77,448.47
43.72223,313.11,443.35
43.74195,299.67,442.38
43.76105,286.95,438.63
43.78088,281.07,435.94
43.80071,278.87,430.89
43.82112,279.06,430.31
43.84110,279.50,429.26
43.86168,282.90,429.45
43.88218,288.35,430.67
43.90055,291.71,433.14
43.92176,297.81,431.42
43.94124,307.18,433.78
43.96030,313.82,437.80
43.98099,317.30,438.44
44.00182,326.23,441.21
44.02207,333.58,442.08
44.04108,337.09,444.32
44.06016,345.56,447.30
44.08185,349.98,445.62
44.10141,350.61,448.78
44.12019,355.79,448.56
44.14138,358.70,451.55
44.16158,359.82,451.84
44.18018,363.88,450.18
44.20046,365.80,450.99
44.22052,367.87,452.77
44.24106,371.03,455.05
44.26200,372.69,454.68
44.28103,374.35,455.25
44.30145,374.82,455.41
44.32109,376.63,455.38
44.34024,378.86,457.12
44.36171,377.28,455.33
44.38140,378.91,455.23
44.40039,376.69,456.30
44.42105,377.58,454.62
44.44108,379.37,454.38
44.46120,378.70,456.80
44.48016,379.32,454.20
44.50105,389.61,456.52
44.52197,408.33,461.35
44.54110,434.13,462.93
44.56111,461.86,466.58
44.58019,485.08,469.97
44.60061,504.42,473.07
44.62141,510.06,471.34
44.64070,509.10,468.87
44.66064,504.18,469.69
44.68037,495.55,466.93
44.70156,489.47,468.10
44.72091,477.53,464.51
44.74002,473.39,471.52
44.76176,464.82,470.97
44.78098,457.85,471.56
44.80193,448.21,474.60
44.82086,439.78,471.86
44.84063,434.00,470.25
44.86187,428.95,470.61
44.88130,422.93,469.71
44.90196,415.19,466.89
44.92146,413.15,466.83
44.94185,407.34,465.18
44.96057,403.43,465.91
44.98019,401.03,465.02
45.00042,395.57,461.90
45.02213,393.72,460.50
45.04067,393.43,460.00
45.06148,391.99,459.47
45.08046,389.70,460.11
45.10270,388.00,459.76
45.12245,385.64,458.02
45.14275,385.80,458.52
45.16100,385.97,456.07
45.18201,382.30,455.30
45.20322,384.29,458.38
45.22257,384.26,459.07
45.24159,384.05,458.01
45.26180,383.55,458.76
45.28270,381.18,458.16
45.30415,380.44,458.56
45.32281,381.51,458.07
45.34276,380.92,458.00
45.36326,379.42,458.09
45.38250,381.66,457.71
45.40335,379.87,457.24
45.42286,381.41,456.73
45.44338,382.97,457.29
45.46339,379.97,456.50
45.48231,382.38,458.81
45.50270,380.72,457.08
45.52233,378.58,458.74
45.54391,378.68,456.14
45.56256,381.45,456.82
45.58326,379.21,457.92
45.60387,380.07,459.31
45.62275,379.82,459.11
45.64293,377.81,455.04
45.66342,382.00,456.72
45.68405,380.44,457.30
45.70214,381.92,456.94
45.72249,379.50,455.80
45.74291,382.05,454.47
45.76360,381.53,454.93
45.78407,381.43,456.94
45.80391,381.37,455.82
45.82389,383.77,455.41
45.84254,378.84,454.53
45.86302,379.04,455.42
45.88257,381.20,457.15
45.90347,378.75,458.52
45.92263,380.24,457.06
45.94330,378.57,457.42
45.96306,381.67,458.22
45.98382,380.38,455.37
46.00380,378.66,455.83
46.02424,382.15,457.38
46.04322,378.23,455.70
46.06415,378.39,457.44
46.08343,379.44,457.30
46.10506,378.19,456.89
46.12373,379.20,454.46
46.14332,378.74,457.15
46.16424,376.85,457.47
46.18366,379.85,458.97
46.20315,380.53,456.35
46.22455,378.61,459.49
46.24351,378.21,458.32
46.26325,380.80,457.96
46.28499,380.62,459.16
46.30429,379.58,459.56
46.32446,382.21,458.55
46.34406,378.55,456.75
46.36305,378.83,458.08
46.38399,378.91,459.10
46.40317,380.51,459.52
46.42461,381.96,458.07
46.44403,381.86,457.83
46.46311,379.27,458.48
46.48420,381.50,455.75
46.50458,382.01,459.78
46.52434,379.81,457.67
46.54397,378.91,457.15
46.56399,380.14,459.23
46.58347,378.60,460.35
46.60336,379.88,457.58
46.62443,379.24,457.93
46.64434,380.42,456.56
46.66489,379.27,457.52
46.68441,378.90,456.57
46.70422,380.23,456.82
46.72435,381.95,455.53
46.74461,382.03,457.23
46.76459,379.06,456.64
46.78345,380.72,457.43
46.80372,379.57,458.25
46.82388,379.96,456.93
46.84470,380.96,454.23
46.86485,379.94,456.11
46.88442,379.80,456.34
46.90336,381.25,454.37
46.92369,381.94,455.29
46.94392,380.18,457.10
46.96335,380.41,455.74
46.98477,380.24,455.85
47.00349,379.15,454.04
47.02337,379.19,456.94
47.04374,378.20,453.99
47.06481,381.40,456.69
47.08386,381.71,453.71
47.10462,379.72,453.45
47.12316,379.26,456.39
47.14468,378.64,452.73
47.16461,381.73,453.79
47.18502,379.67,453.54
47.20436,377.84,456.37
47.22429,377.61,452.77
47.24410,379.67,454.47
47.26444,380.41,455.79
47.28427,377.07,454.23
47.30568,379.74,454.95
47.32485,376.77,456.08
47.34469,377.72,454.66
47.36489,379.11,455.80
47.38561,376.84,454.60
47.40607,378.60,453.76
47.42458,379.52,455.05
47.44610,379.99,452.88
47.46430,377.51,452.90
47.48577,378.21,451.57
47.50437,377.83,452.49
47.52464,378.28,451.43
47.54534,374.77,451.34
47.56437,359.85,452.58
47.58502,341.01,450.36
47.60437,319.67,448.25
47.62523,302.35,447.45
47.64577,287.24,444.02
47.66599,276.70,440.08
47.68453,270.41,435.89
47.70576,267.35,434.98
47.72425,265.90,428.66
47.74630,267.56,427.53
47.76430,271.47,427.37
47.78451,274.47,425.84
47.80452,281.14,428.22
47.82560,290.60,427.69
47.84410,296.29,430.42
47.86518,303.12,431.91
47.88462,310.68,430.90
47.90489,317.63,436.34
47.92512,327.81,438.44
47.94423,332.26,437.76
47.96621,337.78,439.95
47.98442,341.97,444.29
48.00604,346.16,445.65
48.02515,350.45,444.15
48.04576,354.89,447.60
48.06428,358.42,447.84
48.08489,361.44,450.56
48.10425,361.67,449.86
48.12666,364.61,453.31
48.14679,365.32,452.78
48.16582,366.45,454.14
48.18616,366.86,453.14
48.20637,368.66,452.73
48.22641,370.93,452.98
48.24693,369.38,453.10
48.26701,370.39,454.27
48.28721,367.81,452.63
48.30782,369.23,453.71
48.32899,367.07,453.91
48.34898,367.70,457.51
48.36877,373.13,456.91
48.38758,386.29,464.92
48.40697,405.36,470.10
48.42891,430.01,473.79
48.44793,455.99,475.59
48.46866,480.37,477.03
48.48812,500.45,476.96
48.50761,508.10,474.98
48.52819,510.18,475.10
48.54806,502.78,470.59
48.56824,496.29,468.62
48.58829,484.65,470.61
48.60864,477.68,466.84
48.62712,463.77,464.41
48.64845,455.60,467.38
48.66826,447.63,469.38
48.68848,438.41,470.41
48.70825,428.57,468.94
48.72734,422.14,467.51
48.74897,415.49,467.27
48.76749,407.19,465.69
