Program Time [s],data 0,data 1
6.43853,357.81,453.47
6.45897,356.89,456.85
6.47891,357.09,460.95
6.49912,359.94,460.39
6.52026,357.06,462.26
6.53960,360.51,464.20
6.56205,358.34,472.80
6.58324,360.99,476.49
6.60339,361.01,474.91
6.62289,359.67,476.27
6.64230,360.35,476.26
6.66394,363.07,476.66
6.68478,365.45,472.77
6.70412,365.78,471.75
6.72528,368.52,470.95
6.74402,371.36,469.93
6.76465,373.44,468.54
6.78489,371.59,468.33
6.80496,371.11,471.11
6.82543,370.76,472.64
6.84536,370.90,474.95
6.86524,371.94,474.58
6.88608,373.21,474.05
6.90633,373.82,475.72
6.92643,371.47,474.52
6.94694,373.82,475.93
6.96831,370.77,475.49
6.98797,369.76,476.73
7.00846,369.17,476.90
7.03021,370.95,474.20
7.05101,367.97,473.14
7.06956,368.45,474.21
7.09119,366.68,472.60
7.10960,368.38,472.05
7.12967,367.93,472.46
7.15132,368.73,472.01
7.17108,364.00,474.41
7.18983,365.18,474.10
7.21072,365.75,472.19
7.22979,364.12,470.25
7.25001,367.12,471.74
7.27124,360.46,472.55
7.29001,349.45,472.57
7.31025,334.04,471.35
7.33143,314.41,469.55
7.35105,297.26,461.96
7.37088,278.59,456.25
7.39116,263.35,446.45
7.41233,254.69,438.14
7.43204,249.42,428.21
7.45069,244.48,425.01
7.47203,243.78,416.35
7.49066,249.95,414.62
7.51064,253.22,412.21
7.53047,259.25,410.98
7.55059,268.03,412.42
7.57141,275.58,412.40
7.59170,282.23,417.05
7.61093,290.96,421.18
7.63061,298.83,423.22
7.65152,305.15,428.86
7.67127,312.24,432.94
7.69240,316.54,438.29
7.71061,322.11,441.16
7.73170,329.53,445.49
7.75043,333.28,448.19
7.77250,338.91,450.58
7.79152,342.22,452.23
7.81129,344.04,455.02
7.83217,346.64,456.59
7.85066,348.70,456.70
7.87189,347.44,458.82
7.89168,349.96,461.92
7.91087,352.78,464.63
7.93150,353.94,462.22
7.95202,354.03,464.87
7.97084,355.96,463.55
7.99138,358.28,466.06
8.01071,357.90,465.61
8.03300,358.60,467.72
8.05444,363.87,469.30
8.07320,372.11,476.26
8.09496,387.90,482.69
8.11515,408.80,491.56
8.13431,430.52,501.81
8.15488,454.53,506.12
8.17391,474.86,515.63
8.19392,491.66,520.00
8.21435,502.87,521.47
8.23481,501.97,521.60
8.25398,498.30,518.74
8.27462,493.25,513.23
8.29409,481.32,506.64
8.31456,471.09,501.08
8.33497,462.63,498.80
8.35451,449.55,494.70
8.37400,440.15,491.96
8.39433,428.06,489.92
8.41531,418.68,486.97
8.43395,411.51,485.63
8.45485,402.44,480.67
8.47596,398.62,480.43
8.49460,391.67,477.82
8.51504,386.92,477.03
8.53475,385.73,475.07
8.55616,380.51,475.30
8.57557,379.72,471.48
8.59485,376.05,470.48
8.61472,374.82,469.24
8.63518,370.31,470.65
8.65586,370.10,469.54
8.67539,368.46,470.28
8.69568,364.83,466.08
8.71466,366.09,468.70
8.73632,363.12,465.90
8.75467,364.01,466.20
8.77484,364.29,468.48
8.79598,361.79,466.04
8.81475,362.35,469.17
8.83625,358.59,466.96
8.85495,355.08,465.88
8.87604,355.74,465.79
8.89586,353.37,467.12
8.91602,354.40,463.69
8.93514,353.50,464.61
8.95576,353.34,462.41
8.97471,350.55,461.92
8.99543,350.35,457.19
9.01542,347.83,460.47
9.03577,349.38,458.35
9.05600,350.22,459.96
9.07585,351.65,457.82
9.09536,351.88,459.09
9.11630,351.69,460.36
9.13463,354.84,458.30
9.15484,353.74,458.98
9.17532,357.75,458.24
9.19583,356.94,460.64
9.21560,355.49,460.73
9.23646,357.90,462.70
9.25620,357.35,462.86
9.27490,355.75,464.45
9.29643,357.20,463.00
9.31529,359.56,467.09
9.33624,359.40,465.32
9.35629,355.92,466.66
9.37593,359.17,464.17
9.39547,357.54,464.74
9.41594,355.83,465.20
9.43561,357.04,464.26
9.45606,356.22,467.31
9.47461,355.96,466.28
9.49615,356.46,466.61
9.51482,355.29,466.52
9.53581,356.46,466.56
9.55490,355.62,466.14
9.57508,359.52,468.11
9.59466,357.98,468.41
9.61634,357.96,466.89
9.63664,356.48,467.30
9.65555,356.04,468.37
9.67640,357.46,468.47
9.69615,359.30,466.34
9.71619,358.35,468.82
9.73519,359.25,466.49
9.75454,358.27,468.86
9.77451,358.86,469.45
9.79593,357.24,466.47
9.81571,360.09,469.67
9.83563,357.78,467.31
9.85547,360.55,469.91
9.87638,360.74,469.51
9.89458,358.45,467.94
9.91456,358.39,468.27
9.93567,360.58,468.67
9.95481,360.66,468.10
9.97492,360.84,468.15
9.99632,359.24,469.52
10.01498,357.52,469.92
10.03641,358.64,466.33
10.05616,357.15,467.01
10.07605,361.17,468.16
10.09542,358.01,467.27
10.11518,358.77,466.29
10.13633,357.94,465.64
10.15481,360.43,468.12
10.17538,359.69,465.93
10.19462,361.24,466.16
10.21532,361.39,466.40
10.23548,358.38,466.03
10.25547,362.32,468.26
10.27588,360.54,466.64
10.29534,361.16,467.95
10.31532,361.05,467.57
10.33457,360.32,468.18
10.35571,363.02,470.22
10.37696,363.36,468.21
10.39603,362.23,468.00
10.41642,364.55,469.39
10.43560,366.90,468.59
10.45667,366.79,468.71
10.47549,367.60,468.12
10.49724,365.51,466.25
10.51692,367.61,467.20
10.53699,364.56,464.90
10.55684,367.80,466.30
10.57688,364.70,468.40
10.59608,363.71,464.66
10.61676,364.52,464.70
10.63728,363.04,464.78
10.65580,362.95,466.35
10.67614,364.46,466.27
10.69653,364.90,464.82
10.71640,367.03,463.77
10.73742,364.69,463.51
10.75707,364.96,465.93
10.77703,362.61,464.02
10.79692,355.42,463.37
10.81705,339.17,463.09
10.83573,324.49,464.09
10.85742,307.52,465.28
10.87593,292.26,463.08
10.89566,279.80,465.76
10.91598,270.63,460.06
10.93697,263.15,454.26
10.95591,261.90,449.89
10.97662,258.67,446.58
10.99627,260.34,440.87
11.01576,264.22,437.22
11.03684,267.73,430.96
11.05673,275.24,431.01
11.07724,280.71,428.32
11.09598,287.08,430.25
11.11564,295.13,431.70
11.13646,303.75,434.92
11.15604,310.93,436.21
11.17709,316.06,437.52
11.19606,324.75,443.10
11.21641,331.12,443.91
11.23629,332.45,447.92
11.25616,340.24,449.84
11.27570,343.63,450.33
11.29659,347.27,453.46
11.31629,350.25,455.69
11.33744,352.59,454.52
11.35561,353.47,456.21
11.37583,354.21,460.74
11.39717,358.64,460.34
11.41734,361.12,459.57
11.43540,361.45,462.85
11.45594,362.05,461.52
11.47725,364.02,461.80
11.49625,365.48,462.82
11.51735,367.30,464.84
11.53535,367.45,463.23
11.55720,365.84,467.00
11.57672,364.41,464.44
11.59607,365.44,464.27
11.61557,364.15,463.91
11.63588,366.70,467.25
11.65756,375.60,473.31
11.67608,389.82,481.90
11.69678,408.55,494.77
11.71749,429.00,502.08
11.73725,453.77,503.23
11.75704,471.16,503.35
11.77664,489.55,500.28
11.79678,499.62,494.98
11.81715,502.25,491.54
11.83657,498.42,488.99
11.85749,492.61,486.54
11.87727,482.83,485.17
11.89563,475.23,481.75
11.91731,462.45,478.75
11.93626,454.53,477.77
11.95705,445.52,474.76
11.97572,434.52,473.93
11.99567,428.79,473.61
12.01650,423.01,475.97
12.03726,417.00,474.40
12.05576,410.55,473.55
12.07670,402.37,474.22
12.09678,398.62,471.72
12.11698,395.60,472.30
12.13723,390.36,472.69
12.15737,387.79,473.28
12.17533,386.31,472.85
12.19719,384.37,470.12
12.21618,381.81,469.90
12.23732,382.12,471.92
12.25736,380.97,471.97
12.27556,378.15,469.72
12.29549,378.88,470.71
12.31716,377.78,472.26
12.33678,374.99,470.39
12.35635,376.03,470.25
12.37576,376.04,470.45
12.39642,374.36,470.66
12.41555,375.79,471.53
12.43637,375.10,471.35
12.45647,375.66,469.36
12.47587,377.69,470.11
12.49615,374.72,470.19
12.51552,374.59,471.18
12.53675,372.76,470.59
12.55606,375.62,468.68
12.57614,374.33,468.52
12.59593,375.09,470.52
12.61596,375.96,470.37
12.63698,374.53,468.52
12.65572,374.20,469.24
12.67685,374.17,469.73
12.69686,376.08,469.00
12.71675,374.26,468.43
12.73635,373.15,468.80
12.75677,373.64,467.88
12.77707,372.97,471.34
12.79573,373.72,468.80
12.81574,372.66,470.86
12.83727,374.11,470.28
12.85592,374.05,468.88
12.87712,373.68,470.25
12.89636,374.91,471.64
12.91622,372.21,472.05
12.93655,374.38,471.17
12.95595,373.18,473.65
12.97676,371.87,472.33
12.99704,375.36,471.88
13.01612,373.71,471.99
13.03655,375.27,471.80
13.05558,375.38,473.12
13.07611,372.12,471.07
13.09718,374.49,470.34
13.11631,371.51,472.65
13.13746,373.87,471.82
13.15570,372.14,471.36
13.17620,373.32,471.39
13.19670,370.03,471.35
13.21645,372.58,469.16
13.23670,373.11,472.54
13.25731,373.45,469.63
13.27677,376.51,470.54
13.29733,371.93,469.61
13.31667,373.50,469.47
13.33701,372.13,469.52
13.35655,374.46,468.60
13.37694,373.97,469.51
13.39615,375.27,469.09
13.41599,376.04,468.64
13.43556,374.89,471.09
13.45558,373.98,470.70
13.47624,375.42,470.02
13.49628,373.88,469.39
13.51565,372.70,468.60
13.53729,375.69,470.88
13.55663,371.87,468.63
13.57568,373.22,470.38
13.59544,372.86,469.75
13.61737,371.33,468.27
13.63574,371.13,468.35
13.65558,371.89,468.74
13.67668,371.42,467.07
13.69694,371.25,470.40
13.71681,373.41,470.31
13.73594,374.15,469.06
13.75578,374.97,466.79
13.77606,374.15,470.03
13.79555,371.83,468.38
13.81739,374.20,470.37
13.83627,371.48,470.03
13.85723,373.07,469.64
13.87697,370.89,471.96
13.89575,371.38,471.46
13.91618,373.92,472.00
13.93640,373.37,473.13
13.95593,372.60,472.98
13.97668,370.86,472.82
13.99565,369.88,472.11
14.01640,371.57,473.42
14.03717,370.13,471.70
14.05643,370.26,472.54
14.07619,371.00,470.73
14.09568,370.70,471.33
14.11652,371.93,470.28
14.13715,371.90,469.88
14.15745,370.43,473.45
14.17653,370.44,472.55
14.19640,371.51,470.96
14.21652,373.77,473.13
14.23761,371.99,472.04
14.25769,373.93,474.47
14.27747,371.05,472.85
14.29835,371.73,473.74
14.31631,371.96,473.33
14.33684,374.96,470.69
14.35772,371.50,470.65
14.37814,372.16,472.37
14.39663,373.25,473.84
14.41685,371.32,473.52
14.43781,373.74,472.83
14.45642,373.32,473.58
14.47752,375.12,471.15
14.49744,372.36,471.78
14.51805,374.17,471.02
14.53716,372.34,473.38
14.55656,373.87,472.38
14.57803,374.52,471.92
14.59789,374.66,473.02
14.61648,374.65,474.33
14.63806,373.08,472.13
14.65643,373.24,472.37
14.67687,373.22,472.06
14.69830,370.60,471.57
14.71757,372.35,470.11
14.73749,371.10,472.62
14.75828,369.96,470.02
14.77802,369.40,472.41
14.79715,371.94,470.91
14.81659,370.62,472.98
14.83693,372.54,472.14
14.85719,371.71,473.43
14.87776,374.05,470.34
14.89830,370.92,472.62
14.91838,371.75,470.58
14.93677,371.67,470.06
14.95658,373.51,472.23
14.97713,371.46,469.69
14.99751,370.62,471.41
15.01681,366.99,470.52
15.03840,356.67,468.90
15.05782,340.80,464.95
15.07750,321.85,462.02
15.09793,303.58,458.33
15.11682,288.13,454.91
15.13840,275.21,446.21
15.15670,266.22,439.05
15.17713,258.88,430.92
15.19754,256.87,428.27
15.21767,257.78,426.74
15.23764,256.38,427.47
15.25838,263.97,430.63
15.27662,267.94,430.28
15.29829,274.16,433.61
15.31722,281.61,436.47
15.33725,290.37,440.54
15.35834,296.09,443.57
15.37787,301.29,447.35
15.39676,307.38,449.66
15.41788,312.69,450.39
15.43661,322.35,453.04
15.45675,328.94,456.45
15.47723,333.47,456.11
15.49726,339.07,460.90
15.51678,341.13,462.96
15.53747,345.42,465.13
15.55812,348.46,466.13
15.57762,352.65,466.15
15.59676,356.21,468.81
15.61794,357.81,469.63
15.63814,358.41,467.68
15.65905,358.93,468.07
15.67956,359.55,471.61
15.69859,359.31,471.24
15.71927,364.21,469.14
15.73965,361.78,469.05
15.76026,361.26,470.33
15.77914,360.42,470.96
15.79835,364.87,472.77
15.81871,362.76,473.03
15.83924,363.88,473.47
15.85881,365.80,476.95
15.87991,370.41,479.37
15.89974,373.50,483.32
15.91915,380.16,486.08
15.93859,390.88,491.88
15.96013,408.58,491.85
15.97994,427.24,498.74
15.99879,446.09,500.62
16.02046,466.26,497.84
16.03857,484.75,496.26
16.06036,496.84,494.82
16.07859,504.36,492.62
16.10013,500.37,491.01
16.11927,493.30,488.88
16.13958,486.72,488.02
16.15945,476.47,486.85
16.17949,462.03,486.90
16.19893,452.12,486.22
16.21900,444.50,486.65
16.23975,435.39,482.83
16.25983,424.34,482.07
16.27885,416.14,482.69
16.29869,410.77,481.44
16.31887,402.61,480.01
16.33953,397.14,480.40
16.35968,391.98,477.43
16.37908,389.65,480.19
16.39937,389.46,484.23
16.41836,389.01,488.31
16.43886,388.67,486.23
16.45982,386.73,486.25
16.47902,384.98,483.79
16.49939,382.01,485.28
16.51850,380.25,479.45
16.53990,376.67,479.11
16.55893,375.66,478.62
16.57936,372.53,476.74
16.59919,369.86,476.19
16.61970,369.42,474.19
16.63836,369.72,473.28
16.66016,367.37,475.42
16.68003,368.29,474.74
16.70027,366.44,473.65
16.71980,367.34,469.99
16.73907,366.48,470.86
16.76018,366.74,470.79
16.77950,363.27,474.27
16.79921,363.55,471.01
16.81913,365.59,474.76
16.83941,364.25,471.64
16.86013,363.88,473.47
16.87957,364.06,472.29
16.90006,364.10,473.02
16.91921,363.42,470.00
16.93857,367.00,472.95
16.95872,364.10,472.67
16.97963,364.87,474.51
16.99891,363.61,473.57
17.01892,361.71,473.18
17.03908,362.23,471.36
17.06019,359.97,470.59
17.07852,363.89,470.79
17.10002,360.60,471.00
17.12118,362.52,472.27
17.13954,362.04,474.01
17.16017,362.73,473.40
17.18129,360.26,472.64
17.19983,361.96,472.89
17.21968,360.32,473.20
17.24102,362.87,472.86
17.26087,360.80,473.81
17.28064,361.60,472.11
17.29994,358.70,472.42
17.32104,359.58,473.22
17.34115,361.09,472.77
17.35978,359.23,471.40
17.38132,360.21,472.66
17.40089,359.55,473.33
17.41989,360.51,470.58
17.44140,360.76,472.37
17.46105,360.34,472.27
17.48080,358.45,472.51
17.49980,356.23,473.25
17.52116,359.34,470.83
17.53965,359.01,472.73
17.56135,357.50,473.23
17.57963,358.33,472.21
17.59924,357.92,471.80
17.62129,358.26,473.21
17.64110,357.24,471.51
17.66027,358.93,471.55
17.67942,357.16,473.52
17.70028,356.72,471.86
17.72030,356.03,472.10
17.74139,358.70,471.75
17.76052,355.95,473.42
17.78130,356.85,472.29
17.80027,357.35,473.22
17.81945,357.17,472.66
17.84129,358.03,471.93
17.86001,355.73,470.62
17.88111,359.15,470.81
17.90029,357.25,470.79
17.92078,355.85,470.67
17.93988,355.22,469.92
17.96127,358.49,471.60
17.98032,356.61,472.42
18.00002,354.54,472.79
18.02207,356.70,471.70
18.04071,358.30,469.07
18.06198,355.47,471.15
18.08036,354.66,471.69
18.10038,356.33,469.64
18.12179,357.86,472.50
18.14201,357.34,473.90
18.16196,358.11,471.23
18.18119,358.76,473.12
18.20034,358.24,474.66
18.22253,358.64,473.15
18.24135,359.02,473.79
18.26240,359.93,474.58
18.28225,360.05,471.01
18.30285,358.44,470.98
18.32294,358.44,469.92
18.34145,359.43,467.77
18.36189,358.39,469.42
18.38309,358.52,470.39
18.40301,360.95,468.25
18.42272,360.21,471.03
18.44333,357.33,471.22
18.46165,359.05,468.09
18.48258,359.13,467.40
18.50301,360.50,467.96
18.52166,359.66,468.54
18.54136,360.55,468.83
18.56337,358.54,469.33
18.58287,361.71,468.54
18.60268,360.54,470.78
18.62233,359.57,467.71
18.64243,357.29,469.93
18.66181,360.23,467.48
18.68226,360.49,468.54
18.70194,361.77,467.37
18.72246,358.71,469.56
18.74299,360.96,470.06
18.76245,360.98,468.02
18.78193,359.04,466.92
18.80182,360.44,469.59
18.82135,362.52,470.32
18.84272,362.91,467.84
18.86233,361.40,468.37
18.88164,360.29,469.45
18.90255,361.80,468.45
18.92270,352.74,468.94
18.94220,340.07,467.80
18.96227,318.67,467.68
18.98223,298.13,466.51
19.00175,280.94,464.73
19.02356,265.32,460.33
19.04300,254.37,451.68
19.06311,247.46,442.35
19.08243,242.83,438.16
19.10315,243.23,430.37
19.12181,244.22,426.10
19.14210,247.02,427.65
19.16326,252.42,425.95
19.18252,258.37,425.35
19.20156,268.29,426.01
19.22256,276.07,427.73
19.24424,284.11,430.11
19.26366,292.16,434.81
19.28387,299.26,439.12
19.30406,307.08,441.43
19.32321,314.19,443.58
19.34403,321.70,449.12
19.36271,325.33,450.56
19.38291,330.50,451.93
19.40357,335.13,455.81
19.42317,339.85,457.95
19.44287,342.96,457.40
19.46301,344.46,459.96
19.48330,347.86,461.82
19.50326,352.32,464.93
19.52393,354.72,464.35
19.54245,356.88,467.01
19.56232,356.70,465.33
19.58358,356.46,467.77
19.60217,360.28,466.61
19.62401,358.59,468.12
19.64336,360.85,468.35
19.66269,361.67,466.95
19.68291,360.28,467.63
19.70251,362.54,471.14
19.72392,361.14,467.47
19.74379,361.28,470.62
19.76400,362.93,469.90
19.78281,360.25,471.81
19.80244,362.25,472.37
19.82376,373.55,471.99
19.84412,387.63,480.11
19.86327,412.08,486.10
19.88275,434.80,490.28
19.90326,461.48,494.06
19.92322,483.40,499.29
19.94391,501.92,505.97
19.96360,505.14,504.48
19.98256,507.06,506.72
20.00412,501.04,502.55
20.02395,491.84,501.34
20.04276,480.01,497.88
20.06317,468.31,494.01
20.08309,458.14,490.91
20.10243,449.73,492.24
20.12392,438.96,489.45
20.14404,429.29,485.70
20.16405,418.50,482.88
20.18325,413.86,484.34
20.20396,406.82,480.36
20.22325,401.87,481.73
20.24250,397.09,478.80
20.26326,392.62,479.58
20.28425,389.76,479.23
20.30239,386.24,475.12
20.32297,384.55,477.68
20.34402,380.45,474.40
20.36264,376.64,474.02
20.38337,376.66,473.36
20.40261,376.20,473.95
20.42342,372.69,474.38
20.44311,370.60,470.93
20.46322,370.55,470.92
20.48386,370.34,471.57
20.50313,368.49,471.35
20.52256,370.94,469.32
20.54275,366.27,471.92
20.56228,366.51,471.11
20.58429,369.25,470.95
20.60304,368.43,472.14
20.62361,369.02,469.77
20.64317,366.94,470.04
20.66276,367.13,469.74
20.68414,366.28,472.93
20.70223,368.21,472.44
20.72281,368.19,471.07
20.74377,367.88,471.47
20.76353,369.41,470.15
20.78321,367.75,469.74
20.80414,366.96,469.41
20.82354,368.69,468.36
20.84268,367.71,469.64
20.86263,364.72,469.53
20.88309,367.42,467.50
20.90394,366.72,470.73
20.92237,365.64,469.13
20.94242,367.87,471.16
20.96392,369.38,470.90
20.98398,365.51,470.45
21.00373,367.08,470.64
21.02237,365.70,470.62
21.04249,364.87,471.19
21.06325,367.76,473.77
21.08281,368.44,473.88
21.10350,368.25,472.77
21.12220,366.50,471.18
21.14417,368.09,471.73
21.16380,365.72,469.89
21.18348,366.53,470.36
21.20318,367.42,473.16
21.22277,369.75,471.35
21.24355,369.69,469.75
21.26325,368.37,472.00
21.28356,367.83,471.85
21.30346,371.25,471.01
21.32518,371.54,471.12
21.34435,369.54,472.54
21.36460,369.97,471.62
21.38505,368.15,471.28
21.40484,368.67,469.10
21.42384,371.28,469.64
21.44351,369.91,468.27
21.46418,370.97,468.00
21.48347,373.42,469.15
21.50330,371.85,468.97
21.52374,371.76,469.03
21.54488,370.39,468.60
21.56433,369.72,470.54
21.58431,372.44,470.08
21.60386,372.37,470.38
21.62521,370.04,467.90
21.64404,370.62,468.11
21.66459,372.05,469.10
21.68432,372.26,468.08
21.70388,372.21,471.29
21.72501,371.25,468.42
21.74466,370.92,468.29
21.76465,371.93,472.09
21.78423,372.14,470.53
21.80375,370.04,470.72
21.82453,371.24,471.20
21.84514,371.63,469.00
21.86526,372.83,471.09
21.88488,372.60,468.73
21.90423,370.87,469.06
21.92411,369.77,471.80
21.94381,372.91,468.14
21.96457,371.98,469.33
21.98384,371.96,468.14
22.00441,371.49,467.14
22.02409,371.45,468.99
22.04514,369.30,467.20
22.06330,370.52,468.32
22.08488,369.86,468.39
22.10602,371.32,467.76
22.12534,370.07,471.27
22.14504,372.48,467.98
22.16513,369.93,470.09
22.18423,372.48,469.89
22.20480,370.48,467.90
22.22468,371.80,469.77
22.24490,370.22,468.15
22.26431,372.96,468.86
22.28423,373.02,469.12
22.30522,373.94,471.34
22.32477,372.95,471.10
22.34453,372.82,469.00
22.36439,369.60,469.33
22.38496,373.73,472.52
22.40612,373.41,470.06
22.42482,373.07,470.89
22.44544,370.67,473.13
22.46597,369.76,471.43
22.48548,370.59,473.10
22.50455,373.24,472.32
22.52426,369.95,472.05
22.54553,371.10,470.59
22.56569,372.99,470.98
22.58488,369.82,470.73
22.60516,372.54,470.56
22.62602,370.50,470.01
22.64561,369.58,470.39
22.66539,369.49,468.12
22.68698,372.33,465.84
22.70687,368.16,465.68
22.72691,370.73,467.70
22.74605,362.40,466.15
22.76595,347.05,466.01
22.78538,327.84,464.41
22.80704,308.50,465.57
22.82667,289.04,466.59
22.84718,271.98,463.20
22.86703,263.94,460.72
22.88572,255.22,455.25
22.90702,252.73,451.66
22.92649,252.64,445.76
22.94660,255.80,442.73
22.96626,256.83,437.35
22.98692,265.29,433.01
23.00778,270.36,430.95
23.02733,280.25,431.50
23.04676,284.41,434.01
23.06754,291.86,434.02
23.08731,301.07,437.66
23.10751,305.57,439.98
23.12682,315.77,441.50
23.14783,319.19,444.50
23.16778,326.76,446.29
23.18781,330.92,448.41
23.20797,336.72,452.88
23.22635,338.68,453.65
23.24654,342.04,457.97
23.26729,348.00,461.94
23.28748,349.28,461.72
23.30725,353.03,466.61
23.32781,353.21,466.67
23.34859,357.77,467.97
23.36763,359.29,468.49
23.38925,358.93,469.05
23.40911,359.23,472.54
23.42864,357.65,473.82
23.44885,357.89,473.20
23.46891,359.00,474.21
23.48964,361.86,472.00
23.50968,362.28,473.43
23.53009,360.46,474.02
23.54812,360.52,473.31
23.56933,359.79,473.71
23.58848,363.42,475.29
23.61007,360.45,472.10
23.63004,363.46,474.55
23.64910,363.76,474.59
23.66987,363.64,473.39
23.68907,368.76,478.61
23.70830,385.12,483.22
23.72940,403.73,493.58
23.74854,426.40,499.92
23.76903,451.82,507.96
23.78984,477.42,515.51
23.80944,494.96,520.78
23.82888,502.47,518.26
23.84869,506.36,518.45
23.86873,499.58,512.96
23.88923,492.70,508.67
23.91000,478.99,505.50
23.92890,471.90,502.89
23.94870,459.86,497.95
23.96890,450.25,491.11
23.99085,437.17,488.32
24.01058,428.94,486.54
24.03029,417.93,481.06
24.05036,411.32,480.16
24.06930,402.15,476.18
24.09087,399.89,474.85
24.10985,394.57,472.86
24.12991,387.41,469.79
24.14996,384.21,471.33
24.16995,379.26,470.65
24.18916,377.79,471.21
24.21124,375.60,469.66
24.23119,371.59,469.40
24.24909,371.31,467.81
24.27006,370.35,465.65
24.29022,365.47,468.52
24.31175,366.67,467.72
24.33134,365.65,468.19
24.35082,364.57,469.72
24.37192,361.77,466.76
24.39007,364.22,467.31
24.41059,363.34,467.31
24.43140,360.80,469.15
24.45042,362.03,468.01
24.47173,360.85,471.50
24.49117,359.40,470.21
24.51166,360.47,471.97
24.53195,360.30,470.65
24.55029,358.32,471.35
24.57203,360.19,469.68
24.59112,359.89,468.29
24.61061,361.14,468.74
24.63202,361.79,470.13
24.65051,358.50,469.42
24.67098,360.74,469.23
24.69004,357.96,469.91
24.71027,359.07,466.78
24.73163,361.13,466.58
24.75056,358.62,466.08
24.77027,360.42,467.42
24.79168,359.59,468.89
24.81052,359.55,465.23
24.83017,358.49,466.57
24.85088,361.49,468.26
24.87148,360.35,467.09
24.89176,359.68,467.92
24.91181,358.43,467.97
24.93203,360.96,467.99
24.95052,360.66,469.70
24.97102,359.18,467.38
24.99168,361.69,466.49
25.01161,361.74,468.77
25.03093,362.66,468.87
25.05016,360.80,468.34
25.07081,360.87,467.83
25.09163,361.22,465.80
25.11025,359.67,467.69
25.13125,359.35,465.04
25.15187,360.64,464.95
25.17133,357.66,466.89
25.19149,359.62,464.83
25.21038,360.03,465.67
25.23017,360.74,467.15
25.25018,359.19,466.22
25.27044,359.45,465.41
25.29143,359.73,466.40
25.31141,361.42,469.07
25.33055,359.44,468.52
25.35157,359.76,466.48
25.37041,357.05,468.37
25.39162,360.13,469.32
25.41072,359.86,469.73
25.43156,359.26,466.49
25.45209,361.26,467.27
25.47157,360.03,469.71
25.49002,360.21,466.58
25.51130,357.81,467.92
25.53124,359.44,467.80
25.55135,360.20,471.14
25.57088,361.60,469.40
25.59021,359.88,470.94
25.61204,360.97,470.72
25.63211,359.21,472.34
25.65163,360.89,469.05
25.67146,360.83,472.00
25.69215,361.62,468.92
25.71199,361.70,469.74
25.73227,360.80,469.56
25.75240,361.31,469.92
25.77132,363.18,469.91
25.79122,359.39,472.64
25.81198,359.27,472.77
25.83277,359.71,472.62
25.85122,360.30,470.75
25.87153,359.47,470.77
25.89253,362.73,469.28
25.91263,359.44,471.47
25.93291,361.35,467.64
25.95244,360.30,470.76
25.97315,361.17,469.40
25.99175,361.13,469.03
26.01256,358.42,468.29
26.03131,359.42,470.94
26.05266,359.44,467.98
26.07243,362.00,467.55
26.09183,361.38,467.86
26.11138,360.65,467.42
26.13123,362.39,470.97
26.15285,361.21,471.02
26.17228,361.89,467.46
26.19153,360.79,468.00
26.21248,362.81,466.66
26.23257,360.74,469.41
26.25274,359.68,470.20
26.27268,360.02,469.53
26.29379,359.85,469.92
26.31247,361.47,469.83
26.33255,362.38,468.15
26.35271,362.50,468.73
26.37274,351.21,467.43
26.39389,333.94,462.72
26.41318,313.62,458.99
26.43287,295.66,458.15
26.45293,276.62,453.87
26.47280,267.02,455.17
26.49390,258.23,451.94
26.51325,254.39,448.16
26.53274,250.03,441.93
26.55254,248.97,440.53
26.57273,255.08,438.66
26.59333,260.49,434.14
26.61276,265.05,433.67
26.63309,272.71,435.13
26.65337,282.20,436.90
26.67235,287.95,435.38
26.69278,296.77,437.85
26.71313,305.57,439.59
26.73287,309.17,443.65
26.75371,316.91,443.69
26.77317,321.68,447.02
26.79344,328.94,449.13
26.81349,332.04,454.58
26.83233,337.70,455.16
26.85287,342.52,457.01
26.87352,347.72,459.04
26.89273,347.66,461.12
26.91363,350.97,463.47
26.93293,353.35,461.28
26.95212,355.10,465.03
26.97304,357.08,465.92
26.99289,360.40,463.96
27.01240,361.15,467.20
27.03281,361.27,465.20
27.05500,362.28,465.62
27.07346,363.32,468.48
27.09463,362.29,465.80
27.11497,367.11,467.45
27.13322,365.77,468.37
27.15360,366.30,470.29
27.17417,366.89,468.27
27.19510,367.17,469.56
27.21480,366.68,471.94
27.23310,371.24,469.74
27.25380,371.90,469.49
27.27331,370.14,470.34
27.29494,371.76,469.24
27.31351,370.66,471.11
27.33356,373.26,473.25
27.35310,373.24,470.61
27.37481,372.73,472.80
27.39508,371.63,472.49
27.41318,371.07,469.97
27.43336,371.01,472.29
27.45396,373.73,473.88
27.47503,374.54,472.52
27.49508,372.42,471.71
27.51450,372.58,471.90
27.53379,372.59,473.78
27.55396,372.71,470.68
27.57517,370.75,469.88
27.59392,373.15,469.42
27.61491,371.29,474.31
27.63416,378.26,475.21
27.65313,380.83,478.62
27.67424,387.37,488.24
27.69340,390.63,494.05
27.71403,405.26,502.90
27.73395,419.52,507.85
27.75507,440.65,515.84
27.77449,461.33,520.07
27.79492,480.28,521.65
27.81394,490.59,521.72
27.83338,496.42,519.51
27.85424,496.44,512.76
27.87449,491.75,510.84
27.89498,484.61,505.30
27.91487,474.55,497.70
27.93466,465.67,493.61
27.95579,453.84,489.66
27.97560,446.61,487.48
27.99477,436.14,481.36
28.01426,430.10,482.59
28.03490,424.62,479.54
28.05556,417.19,478.56
28.07525,409.06,478.80
28.09578,403.04,474.19
28.11549,398.99,473.29
28.13491,394.53,472.50
28.15569,394.42,473.17
28.17534,391.77,473.32
28.19533,389.58,475.04
28.21525,385.48,473.23
28.23494,386.07,472.31
28.25568,382.60,474.32
28.27607,381.37,473.50
28.29530,380.07,472.42
28.31450,378.56,471.05
28.33437,374.63,474.45
28.35461,375.24,474.60
28.37510,376.07,473.73
28.39540,376.57,472.43
28.41444,373.27,472.93
28.43415,374.34,473.77
28.45558,371.55,472.63
28.47606,372.68,475.84
28.49564,371.98,473.21
28.51638,374.14,475.59
28.53678,372.16,475.78
28.55643,371.02,473.63
28.57547,371.47,476.17
28.59502,373.93,475.89
28.61573,373.78,474.99
28.63602,372.73,474.93
28.65621,369.86,475.21
28.67564,371.29,472.23
28.69686,371.61,475.18
28.71718,371.87,473.20
28.73598,368.91,474.54
28.75520,370.08,475.19
28.77617,370.90,476.10
28.79534,369.53,476.54
28.81670,370.08,476.84
28.83545,368.00,480.07
28.85814,368.19,476.89
28.87757,368.69,477.63
28.89659,369.51,476.82
28.91730,370.38,477.67
28.93718,370.35,475.12
28.95617,369.79,475.46
28.97628,369.40,473.95
28.99778,365.02,472.89
29.01788,364.75,474.93
29.03693,364.06,474.84
29.05762,365.98,474.59
29.07784,365.74,473.25
29.09658,366.70,473.58
29.11683,366.94,474.27
29.13768,368.75,472.63
29.15690,367.85,472.25
29.17706,367.19,471.65
29.19690,368.40,473.96
29.21726,368.25,473.35
29.23605,368.20,471.02
29.25746,367.12,471.03
29.27721,368.32,474.56
29.29782,368.15,471.15
29.31686,367.90,475.00
29.33893,367.69,470.87
29.35808,367.98,471.08
29.37887,368.56,471.09
29.39850,368.12,471.30
29.41959,365.40,471.36
29.43957,369.16,472.69
29.45994,365.64,471.51
29.47879,366.64,472.58
29.49943,366.50,474.51
29.52030,366.37,471.11
29.53927,365.79,473.81
29.55995,363.91,474.04
29.57896,364.04,473.19
29.59885,365.18,475.54
29.61954,361.59,474.09
29.63978,364.31,473.83
29.65854,362.22,475.38
29.67935,361.23,473.80
29.69943,362.82,473.15
29.72001,363.11,476.01
29.73817,363.44,475.92
29.75852,363.66,475.50
29.77875,361.73,476.20
29.79994,363.55,479.01
29.81850,361.89,477.50
29.83858,364.00,477.33
29.85902,361.87,478.21
29.87961,363.66,477.17
29.89973,364.63,476.66
29.92000,362.93,476.42
29.93844,365.19,475.21
29.95975,361.89,476.43
29.97940,364.77,478.16
29.99915,365.37,477.03
30.01863,362.84,478.62
30.03859,363.26,477.69
30.05907,365.11,477.97
30.07963,366.29,475.35
30.09925,363.34,473.89
30.11927,362.47,474.98
30.13918,364.00,474.02
30.15951,362.27,474.36
30.17905,365.15,474.95
30.19812,362.50,477.72
30.21861,361.81,476.80
30.23877,364.76,475.49
30.25861,362.18,475.84
30.27792,362.48,475.01
30.29843,362.02,475.11
30.31863,360.90,475.42
30.33872,362.84,474.79
30.35808,361.91,476.94
30.37850,351.32,477.29
30.39958,337.27,474.63
30.41921,316.03,471.41
30.43863,298.51,465.41
30.45911,282.48,457.42
30.47960,267.08,453.25
30.49821,258.63,447.00
30.51923,252.41,443.69
30.53811,250.45,441.41
30.55795,251.49,436.43
30.57876,252.90,436.42
30.59836,257.19,436.23
30.61847,261.28,436.27
30.63828,269.04,437.24
30.65902,274.75,434.75
30.68006,283.02,439.89
30.69876,291.80,440.20
30.71801,297.71,443.99
30.73997,305.08,445.31
30.75795,308.00,446.16
30.77817,315.49,449.90
30.79974,322.28,450.25
30.81849,327.33,452.80
30.83886,331.63,455.28
30.85959,333.79,456.28
30.87838,338.29,457.88
30.89846,338.72,463.30
30.92045,340.56,463.09
30.93895,345.61,464.25
30.95999,343.25,466.61
30.97922,346.42,467.93
30.99937,345.70,468.48
31.02106,347.52,471.23
31.03975,349.65,469.12
31.05963,352.10,471.88
31.08060,349.90,472.32
31.10034,352.36,471.76
31.11957,351.75,473.27
31.13980,354.81,471.77
31.15998,352.35,475.06
31.18070,354.12,476.69
31.19992,354.94,477.03
31.21997,355.97,476.83
31.24017,357.43,475.11
31.25941,355.94,478.22
31.28028,355.78,476.26
31.29906,354.32,478.02
31.32070,354.10,477.22
31.33955,355.15,475.18
31.35969,356.89,480.31
31.37909,365.63,487.83
31.40086,374.46,509.54
31.42009,392.18,531.89
31.44134,411.33,554.00
31.46279,431.46,574.88
31.48134,451.91,585.15
31.50163,467.70,579.44
31.52237,482.00,565.92
31.54282,491.35,549.55
31.56197,494.58,533.54
31.58141,491.33,513.21
31.60174,485.70,498.81
31.62212,472.53,486.93
31.64181,463.00,475.75
31.66156,452.16,469.72
31.68169,441.89,463.12
31.70215,430.45,456.67
31.72299,425.47,455.48
31.74238,416.57,454.40
31.76192,408.37,451.24
31.78203,400.63,453.57
31.80248,396.03,453.84
31.82113,391.28,454.23
31.84200,387.85,454.39
31.86244,381.49,453.73
31.88320,378.92,454.12
31.90214,376.38,454.68
31.92336,374.38,457.86
31.94234,372.42,458.30
31.96228,370.92,460.72
31.98219,369.34,458.73
32.00242,367.02,459.91
32.02386,366.20,458.80
32.04296,365.17,462.59
32.06366,364.68,460.59
32.08363,363.58,463.19
32.10259,365.59,461.77
32.12366,363.26,461.73
32.14254,361.48,463.26
32.16282,363.78,464.29
32.18378,364.65,464.75
32.20372,362.73,467.65
32.22343,363.39,465.54
32.24298,362.22,467.93
32.26314,363.14,466.27
32.28206,362.35,466.98
32.30338,363.06,468.94
32.32227,363.71,466.53
32.34288,364.29,467.71
32.36212,361.22,468.78
32.38274,361.14,467.27
32.40275,362.63,467.29
32.42242,358.98,464.32
32.44285,357.34,466.39
32.46213,360.23,465.36
32.48374,361.67,466.21
32.50394,361.20,464.61
32.52196,361.87,465.05
32.54311,358.76,463.73
32.56385,358.78,465.62
32.58384,361.03,464.10
32.60308,361.14,465.90
32.62380,359.78,465.28
32.64283,361.41,464.92
32.66332,359.88,465.13
32.68255,360.49,464.42
32.70345,362.14,463.19
32.72358,363.75,464.58
32.74193,362.83,466.37
32.76200,363.53,462.90
32.78351,363.01,463.12
32.80350,360.39,465.99
32.82355,359.32,464.56
32.84219,363.17,466.16
32.86328,362.98,463.38
32.88291,360.98,465.85
32.90308,362.98,464.46
32.92354,362.26,464.97
32.94325,361.25,465.24
32.96220,363.28,467.35
32.98367,363.76,466.29
33.00266,362.86,466.57
33.02294,362.91,467.13
33.04260,361.41,464.57
33.06244,362.35,466.35
33.08303,359.85,468.29
33.10380,362.49,467.50
33.12302,361.16,468.92
33.14267,359.06,468.75
33.16239,360.60,466.68
33.18374,359.83,469.41
33.20323,362.78,467.89
33.22236,363.48,468.20
33.24306,364.17,468.45
33.26312,365.73,466.68
33.28343,365.26,469.27
33.30367,365.46,469.24
33.32377,364.13,466.60
33.34366,362.67,469.20
33.36195,361.97,467.08
33.38258,361.71,467.23
33.40337,364.14,468.89
33.42263,362.25,470.87
33.44213,362.27,471.35
33.46267,361.16,470.00
33.48231,364.54,470.45
33.50320,362.31,468.22
33.52223,361.08,471.07
33.54221,362.17,469.44
33.56278,361.52,470.47
33.58279,363.92,469.63
33.60320,361.88,468.86
33.62334,362.39,469.41
33.64244,361.99,469.69
33.66354,365.39,469.42
33.68385,365.23,467.95
33.70307,365.30,470.74
33.72182,364.23,469.61
33.74301,362.85,470.14
33.76298,362.85,470.16
33.78321,364.57,469.78
33.80246,362.59,468.18
33.82366,362.66,468.03
33.84199,363.52,467.08
33.86197,363.96,467.86
33.88291,363.09,466.51
33.90316,364.51,468.84
33.92258,367.70,466.88
33.94357,366.45,465.56
33.96443,367.36,468.09
33.98426,364.42,467.36
34.00464,366.40,467.97
34.02314,366.32,466.95
34.04332,366.26,466.20
34.06323,366.97,468.33
34.08287,365.96,466.35
34.10457,366.00,468.76
34.12328,366.62,466.43
34.14307,365.96,466.27
34.16281,365.68,467.84
34.18507,366.57,465.18
34.20381,364.12,464.92
34.22385,368.34,466.30
34.24477,365.87,466.08
34.26326,369.33,465.95
34.28456,367.04,465.01
34.30368,366.75,466.00
34.32422,366.56,465.70
34.34419,368.76,463.22
34.36446,367.97,464.09
34.38363,369.75,466.18
34.40305,368.82,463.89
34.42458,370.18,465.22
34.44372,371.01,462.84
34.46296,371.05,460.72
34.48372,371.93,462.33
34.50324,361.61,460.26
34.52485,347.85,458.92
34.54427,327.01,455.48
34.56460,308.60,457.12
34.58454,290.80,454.56
34.60414,273.70,450.87
34.62471,262.86,442.28
34.64383,254.35,435.42
34.66292,254.88,431.95
34.68378,253.10,430.51
34.70403,255.50,426.41
34.72403,257.24,426.28
34.74376,264.55,427.60
34.76291,269.98,429.09
34.78365,274.93,430.61
34.80348,283.86,430.97
34.82304,293.38,436.60
34.84284,300.52,438.67
34.86294,306.09,441.48
34.88406,311.43,441.13
34.90431,317.17,444.26
34.92422,324.11,446.37
34.94376,330.57,452.04
34.96468,337.29,453.79
34.98303,339.65,455.39
35.00348,346.80,457.69
35.02456,349.88,458.68
35.04461,349.92,459.77
35.06328,354.04,460.99
35.08322,355.23,458.77
35.10392,358.77,458.90
35.12384,357.62,461.31
35.14455,360.63,459.17
35.16357,361.23,462.54
35.18287,362.67,461.51
35.20480,363.63,462.62
35.22344,364.27,462.49
35.24361,367.34,464.08
35.26355,368.80,460.70
35.28293,367.46,462.75
35.30310,369.70,459.97
35.32326,367.45,456.77
35.34353,367.34,455.51
35.36468,367.49,455.93
35.38311,368.57,455.46
35.40430,367.83,454.61
35.42333,369.65,458.04
35.44473,370.42,459.06
35.46373,368.44,460.46
35.48275,369.22,463.15
35.50429,371.40,462.71
35.52472,369.22,464.84
35.54365,371.56,465.09
35.56418,369.97,466.00
35.58362,373.08,464.93
35.60338,371.31,466.27
35.62332,371.27,468.83
35.64357,372.88,469.24
35.66414,384.63,477.37
35.68347,399.17,487.23
35.70424,418.26,496.62
35.72355,442.59,502.31
35.74361,470.61,511.35
35.76314,495.16,516.29
35.78300,511.96,518.27
35.80457,516.23,517.84
35.82311,516.25,517.14
35.84336,510.02,514.67
35.86441,502.68,508.21
35.88412,490.78,501.49
35.90491,479.37,498.39
35.92371,468.13,491.89
35.94292,455.75,487.67
35.96449,446.91,483.79
35.98386,439.34,479.29
36.00344,429.99,478.46
36.02366,422.70,477.00
36.04323,416.71,474.02
36.06460,411.57,473.84
36.08410,409.11,471.06
36.10459,400.74,469.21
36.12317,398.55,468.59
36.14356,397.47,466.83
36.16359,394.84,463.56
36.18290,391.78,462.95
36.20297,387.25,465.43
36.22312,387.13,464.54
36.24388,381.81,463.27
36.26364,384.81,463.19
36.28460,380.40,463.25
36.30426,381.70,461.18
36.32362,378.71,461.95
36.34291,377.71,462.32
36.36424,376.13,462.32
36.38475,376.74,462.52
36.40447,375.54,463.46
36.42495,376.86,461.53
36.44523,377.74,464.66
36.46514,375.55,462.06
36.48546,372.79,462.22
36.50514,373.35,463.81
36.52403,373.94,464.16
36.54609,373.16,463.50
36.56604,371.83,463.39
36.58647,373.96,460.67
36.60545,372.91,460.91
36.62679,371.27,461.66
36.64519,371.08,458.97
36.66576,371.25,457.99
36.68554,372.02,457.78
36.70526,371.51,459.57
36.72631,370.95,460.31
36.74510,369.99,457.95
36.76629,371.40,458.03
36.78635,370.33,456.64
36.80675,373.41,460.42
36.82627,372.89,458.55
36.84507,372.79,460.56
36.86648,370.44,460.01
36.88517,373.17,460.61
36.90539,373.09,459.70
36.92585,370.39,463.21
36.94749,371.01,460.08
36.96727,371.24,460.97
36.98608,373.06,462.04
37.00736,370.18,463.95
37.02613,370.58,462.56
37.04605,372.54,463.83
37.06750,370.09,464.19
37.08750,370.24,465.66
37.10702,367.50,467.30
37.12811,367.95,465.77
37.14808,368.84,464.93
37.16717,366.39,467.43
37.18769,367.29,466.99
37.20761,366.06,466.75
37.22841,367.50,465.26
37.24796,363.85,465.46
37.26771,363.61,466.32
37.28859,364.96,467.74
37.30800,366.94,466.53
37.32849,365.65,468.34
37.34932,366.26,471.39
37.36989,366.58,470.28
37.38927,366.27,468.02
37.40959,365.14,469.77
37.42936,364.73,470.22
37.44876,367.92,467.21
37.46933,365.22,469.35
37.48874,365.57,470.28
37.50959,367.22,469.45
37.52933,368.07,468.90
37.54813,365.91,470.37
37.56809,365.15,467.59
37.58976,365.59,467.60
37.60839,365.34,470.16
37.62939,365.57,468.52
37.64886,365.04,467.86
37.66949,365.93,467.33
37.68869,365.15,468.47
37.70791,367.59,467.96
37.72987,363.24,470.46
37.74800,366.09,470.60
37.76920,365.15,468.28
37.78919,365.03,470.46
37.81049,363.58,471.81
37.83081,361.38,468.90
37.85185,363.24,468.25
37.87021,359.45,467.02
37.89147,360.24,469.10
37.91258,359.70,466.94
37.93106,358.70,469.40
37.95285,357.62,467.93
37.97119,357.60,470.06
37.99117,360.23,468.93
38.01265,359.69,467.68
38.03107,359.96,469.83
38.05142,357.63,467.56
38.07163,359.44,470.60
38.09185,359.56,469.67
38.11111,358.86,466.79
38.13082,361.10,466.45
38.15143,357.42,466.86
38.17180,357.41,466.85
38.19083,356.66,466.43
38.21247,356.51,463.06
38.23099,357.13,463.87
38.25253,356.71,465.24
38.27220,358.21,465.46
38.29314,356.72,462.66
38.31344,358.54,464.09
38.33298,358.85,466.71
38.35307,356.14,466.98
38.37265,357.87,466.53
38.39200,357.28,465.50
38.41248,356.54,464.93
38.43313,356.94,466.31
38.45306,358.14,467.61
38.47277,358.27,468.27
38.49284,357.63,466.75
38.51216,356.01,464.31
38.53320,358.58,465.29
38.55316,358.58,463.36
38.57442,358.46,462.20
38.59339,358.43,461.36
38.61397,359.44,461.52
38.63358,357.75,462.72
38.65425,358.75,461.06
38.67382,353.12,460.73
38.69406,337.51,458.35
38.71377,318.14,454.30
38.73419,299.24,451.62
38.75409,277.91,448.56
38.77334,264.13,446.20
38.79479,252.39,442.21
38.81312,248.65,435.54
38.83351,244.69,433.62
38.85561,242.52,428.74
38.87460,244.42,427.42
38.89577,247.50,427.47
38.91454,254.86,427.93
38.93527,262.37,426.63
38.95577,267.29,427.33
38.97491,272.62,426.91
38.99386,280.36,431.93
39.01551,288.68,432.90
39.03421,295.91,436.01
39.05452,302.41,434.90
39.07417,310.36,437.32
39.09507,314.10,440.83
39.11505,319.16,443.63
39.13489,326.50,444.45
39.15498,331.16,446.04
39.17468,335.54,448.04
39.19576,339.57,449.20
39.21511,341.09,452.55
39.23495,344.30,455.48
39.25542,346.53,457.50
39.27560,347.92,457.17
39.29503,350.25,457.01
39.31381,353.37,456.91
39.33461,352.42,461.25
39.35490,353.11,462.99
39.37451,355.22,463.80
39.39561,356.10,462.97
39.41468,357.30,464.02
39.43599,357.41,463.48
39.45378,358.66,460.91
39.47416,355.81,461.64
39.49557,359.49,463.83
39.51640,359.94,462.41
39.53671,357.78,463.64
39.55489,360.07,465.29
39.57688,359.04,464.35
39.59582,361.28,464.88
39.61614,361.91,465.31
39.63622,358.69,465.37
39.65505,359.68,467.84
39.67634,360.25,465.89
39.69519,362.94,469.73
39.71687,368.54,473.98
39.73566,382.39,484.60
39.75568,403.71,493.58
39.77648,429.57,499.95
39.79534,452.04,505.41
39.81621,475.61,510.60
39.83520,494.70,513.73
39.85669,501.81,513.85
39.87681,500.36,510.93
39.89524,493.16,510.37
39.91525,486.34,505.79
39.93534,476.75,501.71
39.95651,466.00,497.68
39.97524,455.54,494.20
39.99524,447.31,493.28
40.01612,437.13,489.85
40.03499,435.39,487.61
40.05543,427.49,488.86
40.07552,421.50,485.65
40.09675,418.84,483.09
40.11591,413.29,481.78
40.13536,406.17,480.37
40.15571,401.71,476.13
40.17495,398.38,477.04
40.19618,394.16,473.50
40.21497,387.99,474.81
40.23636,385.08,473.29
40.25676,383.69,471.35
40.27626,380.70,471.33
40.29620,379.10,469.39
40.31591,377.07,468.37
40.33647,372.26,469.59
40.35551,371.71,468.98
40.37625,372.55,467.02
40.39498,370.39,467.70
40.41483,370.96,466.64
40.43522,367.65,469.87
40.45638,369.01,469.51
40.47583,368.39,467.22
40.49477,366.79,466.07
40.51479,364.70,467.12
40.53654,365.93,467.03
40.55568,365.85,468.41
40.57591,367.37,470.50
40.59662,365.82,468.27
40.61584,365.86,467.23
40.63471,365.34,467.37
40.65469,366.35,467.21
40.67508,364.90,469.21
40.69651,366.72,466.97
40.71538,366.98,469.59
40.73552,364.32,468.97
40.75606,364.50,466.66
40.77609,368.47,470.33
40.79722,368.04,470.42
40.81612,369.46,469.77
40.83648,367.11,470.04
40.85687,368.81,467.25
40.87629,369.18,468.69
40.89591,370.95,467.64
40.91744,371.46,469.80
40.93873,368.27,467.88
40.95812,369.87,468.86
40.97765,368.61,468.74
40.99778,368.22,468.13
41.01695,370.67,467.81
41.03755,368.44,468.72
41.05683,369.60,469.93
41.07832,371.17,467.30
41.09842,372.47,469.25
41.11840,371.42,468.39
41.13938,371.47,467.22
41.15861,371.75,467.52
41.17909,372.32,469.91
41.19802,372.00,471.66
41.21853,372.43,471.00
41.23794,374.45,468.54
41.25850,371.89,470.27
41.27819,370.79,470.36
41.29971,370.21,471.95
41.31879,374.63,469.85
41.33970,373.55,468.69
41.35807,375.48,468.06
41.37931,373.43,468.53
41.39919,372.45,468.69
41.41796,372.15,468.39
41.43898,372.82,467.19
41.45928,373.38,467.77
41.47815,374.73,468.66
41.49774,371.51,469.66
41.51776,371.22,468.39
41.53836,371.05,467.52
41.55946,373.71,468.58
41.57958,373.49,466.12
41.59958,370.79,465.27
41.61958,371.12,467.59
41.63855,373.47,468.04
41.65836,372.58,468.56
41.67806,372.87,466.68
41.69852,371.30,468.69
41.71831,372.65,470.63
41.73877,372.30,468.15
41.76026,373.03,467.40
41.78010,373.53,469.39
41.79975,372.95,465.78
41.81907,370.45,466.62
41.84115,371.55,467.22
41.85986,373.13,468.75
41.88017,371.76,471.49
41.90062,371.31,470.07
41.92133,370.98,472.50
41.93997,371.24,471.18
41.95996,370.71,469.21
41.98084,369.38,471.12
42.00023,368.65,468.12
42.02161,368.92,468.91
42.04039,369.28,468.03
42.06040,368.53,470.05
42.08105,368.16,471.30
42.10077,366.59,471.81
42.12070,369.25,470.02
42.14146,370.35,467.91
42.16123,369.55,467.91
42.18123,372.29,469.87
42.20082,368.45,470.14
42.22118,370.14,467.25
42.24061,368.59,468.66
42.26068,371.66,469.88
42.27996,371.73,469.44
42.29971,370.52,466.93
42.32017,370.92,468.69
42.33994,368.93,468.54
42.36245,372.71,466.61
42.38127,369.54,466.59
42.40188,371.54,467.60
42.42215,368.90,467.97
42.44174,370.22,468.53
42.46223,371.03,470.30
42.48237,371.05,466.88
42.50181,369.80,467.37
42.52201,366.62,470.41
42.54080,366.67,467.24
42.56223,367.80,469.86
42.58228,367.44,469.41
42.60160,365.05,466.74
42.62252,354.07,469.51
42.64097,335.58,469.00
42.66271,314.17,470.36
42.68100,291.50,467.87
42.70134,273.51,464.95
42.72176,260.43,458.88
42.74080,250.64,451.50
42.76132,244.55,443.87
42.78162,242.64,436.18
42.80184,242.64,434.62
42.82167,246.93,429.97
42.84155,253.70,428.12
42.86083,260.02,423.84
42.88077,266.24,423.28
42.90236,274.85,424.24
42.92206,283.88,423.07
42.94251,291.49,423.80
42.96264,302.07,426.21
42.98139,307.18,429.20
43.00284,314.30,432.11
43.02169,323.10,436.28
43.04230,326.16,439.43
43.06153,334.31,442.57
43.08136,336.15,446.43
43.10208,340.60,451.08
43.12284,345.28,453.29
43.14218,348.33,455.26
43.16187,350.03,457.01
43.18340,350.40,456.26
43.20341,350.84,459.27
43.22273,352.54,459.39
43.24328,353.98,461.42
43.26393,355.48,460.65
43.28364,356.41,460.94
43.30410,357.82,461.00
43.32342,355.99,463.51
43.34323,359.14,462.88
43.36372,360.07,464.37
43.38279,358.60,464.24
43.40551,356.62,464.62
43.42488,356.12,466.46
43.44377,357.75,463.40
43.46547,360.44,465.29
43.48509,357.84,465.59
43.50571,357.94,466.64
43.52400,356.06,464.87
43.54392,357.78,465.57
43.56473,360.76,471.26
43.58492,370.33,476.91
43.60532,385.07,491.69
43.62548,403.48,507.36
43.64458,425.88,516.52
43.66533,452.09,521.31
43.68436,472.89,524.23
43.70530,488.89,522.27
43.72443,499.02,515.49
43.74480,501.29,513.31
43.76511,496.44,506.93
43.78507,487.90,501.63
43.80528,475.47,492.38
43.82657,465.83,487.54
43.84540,454.20,487.33
43.86492,446.96,483.24
43.88646,437.31,476.98
43.90542,427.80,477.48
43.92656,419.10,473.97
43.94525,410.21,473.07
43.96521,403.54,471.16
43.98516,398.25,472.43
44.00658,392.81,471.64
44.02644,385.40,471.98
44.04515,382.06,466.99
44.06632,378.61,468.66
44.08531,374.18,465.56
44.10512,372.73,468.29
44.12648,370.81,466.99
44.14522,369.85,468.89
44.16602,368.74,467.80
44.18509,366.49,467.78
44.20477,365.40,467.05
44.22656,364.56,466.22
44.24542,362.74,467.26
44.26622,360.32,465.01
44.28606,360.17,465.87
44.30510,360.20,466.62
44.32566,361.73,469.18
44.34583,359.63,468.25
44.36665,360.44,467.60
44.38585,357.57,466.64
44.40585,359.40,468.13
44.42518,360.86,468.80
44.44651,359.11,465.26
44.46664,356.47,468.08
44.48660,357.63,465.83
44.50633,359.35,464.00
44.52641,354.98,464.31
44.54660,358.46,464.31
44.56571,357.03,465.50
44.58474,357.08,464.84
44.60663,359.24,464.75
44.62554,357.84,464.04
44.64552,356.62,466.41
44.66587,357.81,467.14
44.68472,354.31,463.95
44.70616,356.33,466.80
44.72496,355.58,465.18
44.74632,357.23,467.63
44.76655,355.38,466.51
44.78587,356.69,466.80
44.80498,355.42,465.39
44.82558,353.73,465.25
44.84487,353.60,466.94
44.86498,356.93,464.65
44.88657,354.27,463.96
44.90656,355.89,466.31
44.92650,357.79,464.70
44.94456,354.30,466.32
44.96543,355.43,463.72
44.98574,357.49,463.50
45.00576,358.06,467.12
45.02652,357.25,464.57
45.04540,355.49,465.90
45.06586,355.52,465.29
45.08642,357.91,464.11
45.10587,357.43,465.60
45.12599,357.34,467.16
45.14574,355.91,463.83
45.16586,357.65,463.45
45.18584,358.83,467.24
45.20575,356.68,465.91
45.22524,356.01,465.81
45.24502,356.90,462.73
45.26503,360.08,462.87
45.28483,357.43,465.37
45.30639,357.78,465.68
45.32466,358.92,462.20
45.34636,357.54,462.71
45.36652,356.46,464.99
45.38643,358.89,464.36
45.40496,359.34,464.21
45.42479,359.24,465.42
45.44644,355.52,465.90
45.46526,357.75,464.77
45.48646,354.61,465.54
45.50576,357.59,464.87
45.52606,358.11,464.54
45.54544,357.70,464.36
45.56635,357.22,464.70
45.58616,358.07,462.86
45.60572,359.65,461.06
45.62608,359.45,463.19
45.64554,360.18,463.59
45.66524,360.34,462.40
45.68571,359.17,461.61
45.70640,359.36,462.95
45.72513,362.59,463.37
45.74642,360.87,464.40
45.76473,364.63,467.26
45.78629,363.56,468.46
45.80527,365.87,466.04
45.82637,366.19,466.71
45.84520,362.01,466.27
45.86489,363.90,464.95
45.88538,363.13,466.39
45.90606,363.64,465.36
45.92496,362.09,467.58
45.94473,361.57,466.47
45.96485,359.80,476.52
45.98579,363.54,488.65
46.00659,366.21,507.23
46.02623,373.90,531.74
46.04545,380.22,551.59
46.06540,386.33,562.27
46.08553,386.90,562.39
46.10568,385.67,549.30
46.12690,380.65,522.75
46.14610,369.71,489.96
46.16705,361.37,452.56
46.18712,355.99,430.55
46.20749,352.68,410.61
46.22750,349.45,397.54
46.24731,347.35,388.17
46.26693,348.34,385.85
46.28587,346.95,386.55
46.30736,343.42,389.12
46.32676,347.56,393.19
46.34742,345.00,398.55
46.36626,345.70,401.86
46.38753,346.11,405.27
46.40679,348.74,412.79
46.42697,348.24,416.95
46.44850,352.88,423.93
46.46757,352.59,429.83
46.48730,357.36,432.08
46.50854,353.06,438.47
46.52837,356.19,445.48
46.54750,349.95,455.96
46.56752,357.69,461.49
46.58817,358.93,461.36
46.60744,363.89,465.51
46.62705,365.80,472.91
46.64801,369.79,477.20
46.66878,367.75,487.13
46.68770,373.46,493.57
46.70864,377.88,511.45
46.72786,380.26,538.90
46.74879,393.20,563.79
46.76765,401.48,582.78
46.78935,407.71,594.33
46.80760,410.59,616.16
46.82786,415.18,628.36
46.84815,411.00,629.16
46.86878,411.02,637.34
46.88795,406.65,634.74
46.90827,401.00,628.75
46.92876,395.49,623.94
46.94891,391.86,618.57
46.96858,391.26,605.12
46.98821,382.72,594.03
47.00947,377.41,581.55
47.02768,377.55,570.20
47.04863,372.98,559.78
47.06850,374.93,546.34
47.08911,374.96,547.28
47.10839,376.39,545.87
47.12791,375.04,541.50
47.14957,377.73,538.52
47.16921,380.25,529.87
47.18924,378.26,522.63
47.20857,377.51,525.14
47.22922,380.33,518.72
47.24881,377.85,521.96
47.26811,374.59,517.53
47.28763,370.67,508.23
47.30831,376.75,503.86
47.32959,371.42,500.39
47.34904,371.05,492.37
47.36949,369.94,486.55
47.38939,370.88,478.44
47.40867,367.73,474.62
47.42893,367.94,470.33
47.44753,372.52,462.68
47.46946,373.82,466.67
47.48766,373.37,468.49
47.50873,373.08,458.95
47.52823,373.50,443.87
47.54868,371.46,433.10
47.56798,367.65,429.73
47.58882,367.72,418.42
47.60844,364.88,427.88
47.62833,365.24,432.26
47.64898,368.82,430.80
