Program Time [s],data 0,data 1
12.81303,402.00,491.61
12.83399,401.28,491.26
12.85362,403.20,490.66
12.87371,398.96,489.52
12.89436,401.97,490.30
12.91430,401.59,493.62
12.93481,398.44,494.18
12.95448,397.85,495.14
12.97478,397.75,495.57
12.99418,400.81,496.02
13.01338,399.14,497.62
13.03472,401.25,497.18
13.05390,400.47,498.49
13.07314,398.51,497.72
13.09378,398.60,498.71
13.11427,397.03,502.49
13.13391,394.11,502.47
13.15381,392.94,507.41
13.17318,395.27,527.01
13.19450,396.86,546.86
13.21464,396.47,560.19
13.23445,391.42,570.69
13.25417,392.53,567.02
13.27281,388.62,563.48
13.29342,389.23,555.58
13.31458,389.99,546.14
13.33399,388.93,538.30
13.35300,386.58,529.75
13.37370,385.22,520.92
13.39297,388.93,513.67
13.41312,389.86,509.64
13.43429,388.87,504.46
13.45469,389.54,500.94
13.47403,390.54,498.99
13.49456,389.76,496.54
13.51453,390.94,495.36
13.53324,388.72,491.67
13.55385,390.05,492.00
13.57334,392.09,492.66
13.59307,391.07,491.27
13.61327,389.79,488.02
13.63479,392.55,491.56
13.65446,393.78,492.17
13.67456,393.93,488.40
13.69329,391.64,487.55
13.71440,395.68,486.85
13.73316,396.12,490.70
13.75327,392.42,493.94
13.77394,390.59,492.30
13.79369,391.02,492.75
13.81357,388.50,495.19
13.83460,390.84,497.98
13.85481,388.42,496.57
13.87384,386.59,496.85
13.89355,388.82,498.53
13.91423,389.04,501.73
13.93291,388.15,498.06
13.95473,388.66,499.05
13.97360,386.37,501.95
13.99467,386.47,499.86
14.01389,389.38,498.22
14.03421,386.52,498.16
14.05432,388.75,503.27
14.07279,389.59,515.22
14.09304,389.54,527.93
14.11297,389.84,532.34
14.13394,391.06,532.50
14.15268,392.61,535.63
14.17401,389.86,530.37
14.19418,392.93,528.36
14.21317,391.05,525.35
14.23497,391.44,523.21
14.25496,390.34,518.14
14.27557,390.78,517.33
14.29537,390.05,514.92
14.31546,389.09,511.20
14.33588,388.39,512.24
14.35650,388.74,508.20
14.37722,386.91,506.06
14.39659,388.27,504.06
14.41617,381.42,501.52
14.43754,367.87,496.33
14.45654,348.54,483.74
14.47758,331.05,478.21
14.49708,308.98,473.21
14.51776,293.65,460.64
14.53663,279.90,446.55
14.55724,270.38,438.57
14.57740,265.18,430.04
14.59693,261.40,427.22
14.61707,261.37,426.57
14.63655,261.61,423.10
14.65763,265.30,424.61
14.67624,269.82,425.36
14.69772,274.96,427.62
14.71654,280.61,433.64
14.73655,290.84,438.65
14.75590,298.26,443.22
14.77590,308.00,447.19
14.79725,312.55,453.14
14.81754,321.50,460.22
14.83754,326.03,462.53
14.85688,331.97,467.43
14.87630,337.51,472.74
14.89644,340.36,475.81
14.91663,343.25,476.52
14.93695,350.66,480.74
14.95662,351.18,486.26
14.97776,355.97,486.07
14.99754,360.04,489.43
15.01565,364.24,489.61
15.03715,365.27,493.56
15.05707,365.93,492.06
15.07687,371.63,494.94
15.09706,369.59,499.36
15.11597,373.96,497.41
15.13759,375.06,500.31
15.15673,371.81,500.33
15.17743,376.94,502.82
15.19688,377.54,502.60
15.21572,376.86,501.12
15.23693,379.77,504.89
15.25737,376.42,504.88
15.27678,378.34,506.44
15.29708,378.35,503.22
15.31709,378.73,503.13
15.33767,381.54,504.82
15.35780,379.59,502.53
15.37711,382.15,498.13
15.39824,380.38,496.36
15.41832,380.99,499.49
15.43770,393.51,497.18
15.45814,416.00,495.17
15.47783,444.87,491.86
15.49833,479.32,487.81
15.51780,503.62,487.46
15.53832,517.51,488.84
15.55802,518.15,490.27
15.57739,516.68,492.33
15.59709,511.14,493.26
15.61769,500.65,493.93
15.63838,489.81,494.41
15.65828,478.05,494.66
15.67713,468.82,490.97
15.69734,457.60,491.49
15.71857,447.55,494.40
15.73885,438.82,491.74
15.75773,430.73,493.69
15.77745,426.37,495.57
15.79743,420.62,497.45
15.81745,415.84,496.40
15.83801,406.47,498.72
15.85874,405.57,499.31
15.87736,401.78,500.46
15.89828,397.05,500.26
15.91851,390.12,499.78
15.93692,394.33,510.07
15.95782,397.67,521.52
15.97785,400.22,530.54
15.99843,401.30,539.97
16.01832,398.53,541.17
16.03792,400.30,538.84
16.05810,397.22,540.10
16.07802,398.25,536.22
16.09671,395.04,531.45
16.11816,394.57,528.94
16.13741,393.90,523.33
16.15761,390.65,521.03
16.17692,388.86,515.87
16.19784,389.82,514.86
16.21697,389.55,512.45
16.23735,386.90,509.11
16.25777,386.92,507.92
16.27770,381.77,505.61
16.29786,382.22,502.56
16.31798,380.08,501.16
16.33701,381.68,501.12
16.35821,382.98,504.61
16.37703,383.41,523.64
16.39829,386.68,536.27
16.41661,385.28,542.63
16.43871,388.25,542.84
16.45718,385.18,540.52
16.47754,386.80,539.50
16.49848,387.82,534.81
16.51831,386.36,530.34
16.53815,386.17,523.92
16.55754,386.23,519.96
16.57813,383.97,517.29
16.59729,386.16,515.74
16.61826,385.84,510.96
16.63726,383.10,511.47
16.65805,384.42,510.08
16.67823,382.54,505.38
16.69828,383.22,503.74
16.71872,384.59,503.57
16.73720,383.48,501.51
16.75833,384.02,502.07
16.77723,384.29,501.02
16.79774,382.39,498.47
16.81848,386.05,497.87
16.83777,384.91,498.86
16.85775,384.66,499.81
16.87874,382.91,498.18
16.89697,384.07,495.70
16.91817,384.43,497.58
16.93891,382.88,495.98
16.95855,381.84,495.15
16.97887,384.29,499.20
16.99870,383.19,496.34
17.01868,384.05,497.41
17.03761,382.99,498.83
17.05804,384.52,498.70
17.07709,385.47,497.91
17.09676,381.41,498.18
17.11689,382.55,495.66
17.13702,385.02,495.77
17.15827,383.26,497.14
17.17732,383.09,497.08
17.19826,384.67,495.56
17.21771,383.87,495.74
17.23840,384.16,499.47
17.25741,383.53,499.72
17.27822,386.63,498.68
17.29893,384.81,497.14
17.31806,387.92,499.54
17.33784,387.91,496.92
17.35849,388.08,495.99
17.37891,386.50,495.64
17.39858,386.75,493.98
17.41827,388.34,495.19
17.43857,388.34,495.10
17.45950,390.15,493.83
17.47865,387.95,492.29
17.49967,388.47,494.37
17.51842,388.93,495.39
17.53811,388.99,495.74
17.55948,392.12,495.62
17.57816,391.50,496.18
17.59780,391.69,495.40
17.61874,392.61,497.63
17.63889,391.63,497.70
17.66077,392.10,495.86
17.67917,390.76,498.51
17.70024,391.62,496.95
17.71944,390.87,497.13
17.73989,392.71,496.64
17.76077,394.80,494.16
17.77977,396.04,496.35
17.79889,394.29,493.93
17.82065,392.81,494.39
17.83982,393.27,495.56
17.85968,393.17,492.30
17.88040,391.47,492.77
17.89914,390.81,494.88
17.92062,389.52,494.44
17.93926,390.19,494.02
17.95949,390.02,493.99
17.97885,392.38,495.43
18.00058,392.82,495.36
18.01997,393.27,497.83
18.03953,394.24,497.46
18.05893,392.86,496.15
18.07969,394.91,495.40
18.09962,394.03,498.61
18.11925,393.03,496.54
18.13995,395.78,497.64
18.16009,395.07,497.42
18.18035,396.42,495.92
18.20029,395.92,495.98
18.22063,396.19,496.27
18.23892,393.63,493.64
18.26050,397.84,494.02
18.27930,395.31,496.43
18.30033,397.70,494.50
18.31981,397.22,497.76
18.34040,394.92,494.45
18.35928,395.19,494.65
18.37965,396.72,496.24
18.40057,396.66,494.23
18.41899,393.82,494.08
18.44011,393.88,493.28
18.46050,388.60,490.88
18.48041,378.99,489.54
18.49980,360.14,482.35
18.51909,338.59,476.79
18.53942,319.78,473.68
18.56061,304.87,468.41
18.57875,289.93,463.74
18.59901,281.94,455.82
18.61928,276.83,450.98
18.63982,270.74,446.59
18.65921,272.05,445.15
18.67934,275.59,446.16
18.70034,278.98,445.31
18.72022,285.11,451.01
18.73924,293.86,450.96
18.76061,300.28,456.24
18.77969,311.05,460.97
18.80019,319.79,464.33
18.81976,326.66,465.92
18.83902,335.49,470.46
18.85916,342.53,471.85
18.87932,350.48,474.65
18.89951,355.44,478.90
18.91860,360.66,482.17
18.93871,368.36,483.48
18.95939,372.49,488.03
18.97989,372.27,486.33
18.99883,377.50,487.29
19.01861,380.80,488.72
19.03965,381.95,489.92
19.05864,383.74,491.86
19.07898,383.79,494.66
19.09941,388.04,495.33
19.11944,386.08,493.83
19.13958,389.03,497.52
19.16016,388.13,494.60
19.17976,391.03,495.40
19.19954,391.04,498.76
19.22116,391.36,497.58
19.24094,390.96,496.57
19.26091,392.04,498.67
19.28247,395.71,499.35
19.30091,399.29,506.65
19.32130,414.68,521.79
19.34204,434.70,541.02
19.36173,462.49,560.78
19.38186,488.84,571.10
19.40169,514.94,571.46
19.42183,534.87,567.92
19.44263,546.21,559.53
19.46180,548.04,552.04
19.48241,547.07,540.36
19.50280,538.55,535.18
19.52230,524.96,526.04
19.54198,512.95,518.42
19.56319,503.96,515.61
19.58216,489.39,510.74
19.60179,479.49,508.82
19.62181,468.52,506.51
19.64240,458.22,505.24
19.66311,451.58,502.14
19.68270,440.84,502.15
19.70365,432.60,500.38
19.72250,425.06,500.62
19.74357,421.40,502.04
19.76313,414.43,502.41
19.78366,412.77,501.17
19.80203,409.03,500.33
19.82303,407.06,499.45
19.84227,404.38,499.36
19.86375,404.61,499.91
19.88221,401.50,499.63
19.90357,397.84,501.12
19.92314,396.84,500.03
19.94320,395.42,497.54
19.96178,392.52,501.37
19.98269,392.83,500.79
20.00221,392.69,501.73
20.02358,392.54,503.13
20.04286,391.06,503.04
20.06211,390.08,500.58
20.08343,389.58,499.57
20.10173,392.03,500.36
20.12196,392.61,500.80
20.14169,389.75,499.43
20.16211,391.10,501.24
20.18326,390.45,499.47
20.20336,388.45,500.68
20.22236,388.62,500.55
20.24260,387.53,500.87
20.26250,387.76,500.61
20.28171,388.83,499.13
20.30178,388.74,500.50
20.32242,388.33,500.60
20.34251,386.93,498.36
20.36331,389.02,498.27
20.38230,388.08,497.86
20.40297,385.95,499.04
20.42318,383.94,500.12
20.44236,384.28,500.05
20.46307,386.36,498.46
20.48374,387.41,498.68
20.50265,384.34,499.78
20.52311,385.73,501.73
20.54308,386.39,501.74
20.56157,388.46,502.34
20.58222,386.22,499.12
20.60189,388.17,500.89
20.62324,385.47,497.92
20.64253,386.52,498.03
20.66233,386.00,501.78
20.68308,387.17,498.45
20.70300,385.41,499.05
20.72253,386.02,499.63
20.74196,382.64,499.07
20.76311,382.49,502.07
20.78355,383.03,502.28
20.80265,385.39,501.60
20.82260,387.24,502.72
20.84182,386.10,500.28
20.86181,386.23,502.84
20.88296,382.82,499.44
20.90334,384.15,502.23
20.92356,382.54,503.22
20.94265,382.87,499.85
20.96174,385.07,501.84
20.98284,384.06,501.51
21.00258,383.11,504.20
21.02356,382.98,500.39
21.04278,382.75,501.69
21.06227,383.70,497.83
21.08301,385.04,499.09
21.10168,383.66,499.35
21.12250,385.17,498.68
21.14296,382.75,499.66
21.16173,383.66,501.05
21.18234,381.31,500.69
21.20183,384.65,499.37
21.22159,384.01,500.79
21.24381,381.53,501.31
21.26295,381.09,497.37
21.28384,380.01,497.71
21.30274,379.55,497.96
21.32433,381.15,498.14
21.34304,380.24,499.21
21.36440,381.36,499.80
21.38286,379.59,500.90
21.40302,379.52,500.16
21.42367,376.86,499.63
21.44395,379.05,499.25
21.46400,380.85,500.56
21.48413,380.68,499.56
21.50289,380.81,497.54
21.52437,378.57,498.41
21.54412,380.89,498.51
21.56465,380.39,497.86
21.58340,381.48,500.18
21.60427,380.90,499.73
21.62358,376.63,500.34
21.64434,375.99,501.27
21.66321,378.57,500.57
21.68340,375.94,499.66
21.70437,374.94,501.27
21.72324,373.16,497.98
21.74362,375.53,499.05
21.76306,375.51,501.82
21.78391,378.38,500.88
21.80326,378.30,498.58
21.82271,376.24,498.97
21.84337,375.95,499.75
21.86434,377.71,499.90
21.88306,376.56,499.63
21.90298,377.47,499.36
21.92328,379.37,498.51
21.94271,381.27,500.93
21.96434,378.64,497.49
21.98321,378.59,500.63
22.00354,379.16,500.19
22.02349,378.84,499.16
22.04360,380.28,499.58
22.06425,377.39,497.58
22.08416,378.03,499.37
22.10274,375.75,496.65
22.12444,368.32,497.41
22.14412,351.52,491.35
22.16387,331.12,483.83
22.18467,308.63,479.97
22.20443,291.84,471.62
22.22388,273.62,462.98
22.24350,263.54,455.84
22.26460,255.91,450.87
22.28251,251.09,447.55
22.30463,248.60,446.07
22.32279,249.00,446.55
22.34367,253.92,446.41
22.36446,260.35,447.29
22.38348,267.31,453.67
22.40322,277.03,454.66
22.42340,286.75,457.72
22.44449,294.27,458.97
22.46298,303.00,462.04
22.48448,310.82,468.85
22.50356,318.81,471.24
22.52420,324.63,474.19
22.54438,332.99,476.92
22.56360,336.43,480.13
22.58307,345.60,482.95
22.60319,347.79,483.36
22.62263,351.26,486.62
22.64405,355.00,487.39
22.66277,356.04,488.81
22.68471,359.48,489.43
22.70411,364.15,490.78
22.72419,363.93,491.41
22.74360,364.87,493.02
22.76354,369.91,491.05
22.78307,370.41,492.02
22.80331,371.00,491.82
22.82293,373.40,494.11
22.84417,374.26,495.47
22.86335,374.54,495.85
22.88463,375.87,495.27
22.90434,379.17,496.54
22.92315,378.13,497.29
22.94396,377.29,496.07
22.96306,379.62,497.10
22.98396,381.31,496.78
23.00370,390.52,501.84
23.02318,405.58,510.98
23.04302,423.58,520.74
23.06361,442.15,528.95
23.08385,464.40,534.51
23.10355,484.25,536.43
23.12454,502.45,537.36
23.14377,519.32,540.17
23.16463,525.97,539.99
23.18402,527.53,534.64
23.20285,519.37,531.18
23.22419,510.60,528.84
23.24410,501.54,525.83
23.26310,492.89,523.23
23.28348,477.69,518.31
23.30427,467.60,514.94
23.32308,457.01,513.39
23.34362,449.62,511.58
23.36390,439.16,511.40
23.38299,433.47,512.90
23.40452,427.81,509.71
23.42315,419.37,510.92
23.44325,415.78,510.08
23.46301,411.03,507.47
23.48379,404.13,507.82
23.50389,400.21,506.30
23.52361,398.10,506.12
23.54310,393.34,502.17
23.56334,393.09,503.02
23.58401,389.14,504.46
23.60379,391.22,504.84
23.62261,388.92,504.03
23.64264,389.03,505.22
23.66341,386.50,504.19
23.68335,388.50,504.14
23.70375,387.20,505.39
23.72340,384.17,502.30
23.74450,387.45,504.87
23.76316,385.08,502.67
23.78354,383.14,503.33
23.80306,384.33,502.07
23.82411,385.41,500.51
23.84381,383.67,501.08
23.86447,383.14,501.20
23.88440,385.56,498.42
23.90400,384.68,497.43
23.92263,383.61,495.63
23.94439,385.32,495.42
23.96366,383.62,493.16
23.98284,382.14,494.54
24.00334,383.98,494.91
24.02363,382.92,496.32
24.04456,381.96,495.59
24.06459,383.90,495.18
24.08361,381.76,492.79
24.10387,384.28,494.18
24.12413,383.84,495.47
24.14421,382.58,491.00
24.16383,384.45,492.73
24.18357,383.25,493.58
24.20413,383.16,491.93
24.22265,382.98,490.13
24.24310,382.48,491.50
24.26287,381.48,491.91
24.28284,382.55,493.06
24.30289,380.76,493.17
24.32266,380.94,495.38
24.34330,381.36,496.07
24.36397,384.64,495.00
24.38309,381.83,495.53
24.40426,382.58,495.74
24.42437,383.39,495.45
24.44389,383.32,496.06
24.46338,386.81,498.03
24.48255,387.61,496.97
24.50386,385.73,494.08
24.52311,384.30,497.97
24.54303,386.60,493.63
24.56400,387.94,495.04
24.58363,385.36,493.97
24.60353,386.09,494.55
24.62350,387.82,496.15
24.64358,385.92,495.68
24.66373,385.32,493.69
24.68337,386.66,495.70
24.70411,386.05,498.05
24.72398,385.64,494.36
24.74344,385.35,497.89
24.76408,385.20,496.20
24.78351,385.89,494.20
24.80366,385.48,494.52
24.82352,385.73,496.32
24.84270,387.02,494.03
24.86370,387.54,494.77
24.88325,386.34,495.32
24.90280,387.03,496.37
24.92315,386.06,493.90
24.94374,385.30,495.75
24.96453,385.58,495.34
24.98303,384.95,496.96
25.00401,387.56,499.23
25.02411,387.34,497.78
25.04267,386.64,498.18
25.06390,385.67,496.85
25.08265,387.15,495.78
25.10305,386.24,494.45
25.12463,388.33,497.01
25.14333,388.61,497.46
25.16324,389.23,498.56
25.18329,386.49,497.11
25.20280,388.63,496.87
25.22277,389.13,496.84
25.24269,387.73,497.14
25.26257,388.87,495.33
25.28421,389.12,497.91
25.30406,389.13,497.02
25.32306,387.96,494.47
25.34411,390.63,496.06
25.36383,389.07,495.22
25.38276,389.32,495.71
25.40264,390.40,495.81
25.42340,392.57,495.19
25.44371,393.53,497.10
25.46390,391.95,498.54
25.48440,391.56,496.61
25.50316,392.84,496.76
25.52296,390.84,496.46
25.54411,392.77,495.76
25.56376,390.86,496.70
25.58353,390.08,495.86
25.60419,390.45,498.89
25.62347,389.90,495.17
25.64394,388.28,497.30
25.66264,389.93,494.84
25.68404,389.37,496.99
25.70376,387.61,497.60
25.72394,388.25,497.56
25.74382,388.71,497.67
25.76357,387.62,498.36
25.78305,391.48,497.06
25.80405,390.77,496.31
25.82438,390.31,497.10
25.84460,392.63,498.82
25.86441,393.60,498.27
25.88351,395.03,499.58
25.90371,391.75,498.98
25.92293,394.09,498.08
25.94442,392.18,496.39
25.96290,394.29,500.41
25.98359,394.32,498.30
26.00442,392.81,498.31
26.02415,393.15,499.72
26.04306,392.23,499.66
26.06407,391.72,499.67
26.08319,392.10,499.45
26.10368,393.88,497.28
26.12423,392.28,496.95
26.14291,393.07,496.61
26.16479,394.18,497.20
26.18488,382.55,498.49
26.20603,366.79,503.09
26.22667,349.63,504.52
26.24751,327.74,506.44
26.26660,309.98,502.30
26.28574,295.25,496.65
26.30564,287.85,489.00
26.32675,278.20,482.60
26.34667,275.85,476.40
26.36669,275.22,470.47
26.38607,273.83,464.12
26.40660,279.97,464.20
26.42737,284.74,461.18
26.44555,289.65,459.27
26.46637,298.68,460.12
26.48747,304.98,461.55
26.50605,310.91,460.14
26.52732,321.01,463.79
26.54689,326.02,467.95
26.56728,337.86,470.84
26.58621,342.70,472.56
26.60562,349.66,476.39
26.62664,354.93,477.43
26.64690,358.58,480.90
26.66594,366.06,484.76
26.68699,368.64,485.40
26.70591,370.41,487.48
26.72634,373.50,490.38
26.74723,375.49,491.01
26.76596,379.08,492.03
26.78655,380.13,492.89
26.80737,382.99,493.23
26.82746,386.49,495.60
26.84597,385.34,494.87
26.86758,386.52,495.05
26.88650,388.09,496.64
26.90564,390.65,495.49
26.92562,389.01,497.17
26.94599,392.14,497.94
26.96645,393.55,496.81
26.98597,392.10,499.22
27.00745,393.39,500.62
27.02724,395.80,500.55
27.04665,396.16,498.57
27.06751,395.65,501.87
27.08609,403.10,503.88
27.10675,422.06,512.15
27.12742,450.87,519.08
27.14650,477.43,524.34
27.16750,505.59,526.88
27.18659,529.22,530.16
27.20668,542.69,530.42
27.22584,549.35,527.80
27.24718,545.08,523.17
27.26741,538.67,520.69
27.28580,527.55,518.89
27.30596,516.45,516.27
27.32596,503.38,511.15
27.34624,492.21,510.35
27.36698,481.88,508.70
27.38607,469.11,507.23
27.40719,460.24,506.52
27.42647,451.21,506.36
27.44746,446.34,504.90
27.46729,436.61,501.46
27.48556,430.47,503.24
27.50682,424.19,502.49
27.52725,421.57,500.36
27.54643,418.16,500.88
27.56728,411.09,501.87
27.58680,410.52,502.69
27.60720,405.14,503.11
27.62731,405.44,503.24
27.64557,399.84,502.02
27.66552,397.77,501.90
27.68670,399.41,503.27
27.70731,396.94,503.24
27.72760,398.23,501.59
27.74706,397.52,500.75
27.76616,396.06,502.94
27.78639,395.22,500.49
27.80571,395.12,499.05
27.82636,394.80,498.82
27.84710,392.50,502.43
27.86600,393.33,498.76
27.88545,391.44,500.22
27.90621,390.04,500.72
27.92570,390.28,500.67
27.94603,390.62,501.20
27.96634,389.53,499.63
27.98672,390.29,499.93
28.00658,387.66,499.31
28.02744,389.56,499.69
28.04690,389.82,500.91
28.06682,392.65,499.81
28.08656,391.03,502.27
28.10712,390.59,501.63
28.12580,388.09,500.87
28.14620,390.87,502.63
28.16600,387.71,502.65
28.18561,387.11,500.17
28.20803,387.45,500.15
28.22719,390.22,500.33
28.24811,389.27,500.23
28.26680,388.43,498.74
28.28747,385.89,499.14
28.30687,387.83,500.30
28.32783,387.66,497.89
28.34796,387.05,501.49
28.36733,387.22,499.43
28.38747,387.88,499.50
28.40722,385.73,501.74
28.42720,385.36,501.79
28.44792,386.83,501.23
28.46785,386.50,500.10
28.48812,384.67,500.96
28.50777,383.45,499.65
28.52786,385.99,500.86
28.54652,383.29,501.74
28.56650,385.30,501.60
28.58842,386.45,500.36
28.60847,386.52,502.04
28.62781,384.52,499.07
28.64769,383.61,500.31
28.66778,383.03,500.14
28.68786,382.61,497.47
28.70709,385.54,501.70
28.72750,384.77,497.97
28.74741,383.50,501.54
28.76854,383.21,498.33
28.78819,383.69,498.39
28.80667,383.49,501.19
28.82807,382.85,499.80
28.84831,382.60,499.65
28.86672,382.50,496.96
28.88688,383.74,496.06
28.90802,381.74,498.91
28.92815,382.95,499.95
28.94744,384.23,499.18
28.96681,383.18,497.79
28.98732,381.40,498.84
29.00651,383.78,496.19
29.02705,383.16,496.14
29.04776,380.46,495.21
29.06715,383.08,498.64
29.08693,381.62,495.98
29.10845,383.06,497.19
29.12773,379.71,495.93
29.14830,380.70,496.51
29.16817,383.25,497.54
29.18756,383.34,497.04
29.20742,383.22,500.01
29.22730,381.28,497.69
29.24691,382.20,499.78
29.26810,381.14,498.19
29.28696,382.73,499.04
29.30795,379.42,500.17
29.32672,381.04,500.19
29.34761,381.19,501.26
29.36683,381.46,500.87
29.38843,380.69,501.24
29.40662,381.75,499.85
29.42769,381.01,500.67
29.44696,380.88,499.50
29.46713,383.03,500.91
29.48786,381.90,501.18
29.50772,383.10,498.77
29.52794,381.10,501.06
29.54683,381.34,501.52
29.56778,380.04,499.97
29.58757,381.26,496.46
29.60679,379.13,497.84
29.62841,377.92,497.13
29.64833,377.40,498.90
29.66806,378.46,499.24
29.68704,378.19,500.00
29.70834,378.92,501.39
29.72764,380.52,499.48
29.74713,380.84,500.23
29.76721,380.87,499.68
29.78756,377.92,500.66
29.80746,375.55,499.94
29.82663,377.94,500.67
29.84645,378.39,497.70
29.86783,378.91,497.75
29.88770,377.43,499.32
29.90695,378.94,499.66
29.92817,379.10,499.04
29.94659,376.70,499.28
29.96794,377.93,498.03
29.98699,379.25,501.11
30.00805,379.55,500.96
30.02835,378.91,499.79
30.04780,374.79,500.78
30.06718,375.86,498.46
30.08732,377.34,497.36
30.10768,378.14,499.59
30.12666,375.00,499.69
30.14740,378.77,496.90
30.16685,377.82,498.95
30.18664,377.16,500.52
30.20648,378.13,499.12
30.22666,377.12,498.56
30.24681,376.13,495.41
30.26742,375.72,495.76
30.28769,376.61,496.38
30.30649,374.23,491.74
30.32690,359.83,493.50
30.34776,343.77,488.56
30.36722,323.62,485.76
30.38789,301.08,484.68
30.40821,284.38,482.84
30.42737,269.83,479.64
30.44825,260.79,474.39
30.46709,255.05,469.51
30.48814,251.05,468.85
30.50837,253.27,468.77
30.52850,254.69,466.04
30.54937,261.17,467.43
30.56822,266.10,465.97
30.58895,272.63,468.58
30.60868,282.86,467.20
30.62762,289.43,469.81
30.64739,300.67,471.04
30.66845,306.61,473.58
30.68854,315.38,474.92
30.70804,323.87,479.23
30.72747,328.18,479.39
30.74872,336.13,480.81
30.76783,343.05,481.05
30.78851,344.98,487.24
30.80828,351.74,487.01
30.82847,354.20,488.95
30.84884,356.24,487.98
30.86847,362.30,488.77
30.88884,364.11,493.86
30.90762,364.63,494.79
30.92760,367.83,493.55
30.94949,371.49,497.05
30.96800,372.55,498.66
30.98867,370.76,499.59
31.00795,374.51,502.10
31.02941,375.85,501.62
31.04869,375.95,503.24
31.06828,373.57,505.08
31.08809,375.94,506.83
31.10912,377.92,503.69
31.12752,375.29,504.66
31.14810,377.51,505.31
31.16907,383.58,509.11
31.18758,403.22,518.07
31.20915,428.76,525.74
31.22940,456.01,529.00
31.24784,489.42,530.36
31.26900,517.65,531.38
31.28876,536.89,534.94
31.30890,548.39,537.77
31.32924,552.00,542.50
31.34895,548.38,545.07
31.36941,538.72,545.38
31.38829,529.19,539.90
31.40793,513.44,536.01
31.42807,501.14,535.15
31.44824,487.95,529.05
31.46793,474.18,528.64
31.48932,464.00,526.10
31.50852,450.16,520.50
31.52880,440.70,519.18
31.54828,432.59,514.01
31.56907,427.92,515.18
31.58906,417.77,511.03
31.60865,415.24,510.24
31.62871,410.73,507.26
31.64779,405.77,504.22
31.66894,401.09,504.53
31.68856,399.40,502.33
31.70844,397.79,502.05
31.72772,395.10,499.13
31.74785,391.33,499.68
31.76902,388.55,500.61
31.78912,386.76,497.68
31.80826,387.00,498.42
31.82749,387.89,495.19
31.84866,385.22,494.34
31.86902,385.12,493.17
31.88780,382.89,493.94
31.90885,383.78,491.90
31.92802,383.87,491.68
31.94782,385.03,492.57
31.96912,384.46,489.21
31.98899,386.44,489.12
32.00847,386.07,491.51
32.02786,384.77,489.69
32.04904,385.85,489.80
32.06944,385.02,490.40
32.08813,383.90,489.06
32.10763,381.85,488.01
32.12798,384.20,488.67
32.14771,386.44,487.76
32.16757,386.47,490.98
32.18830,386.45,489.22
32.20755,384.19,488.87
32.22830,384.73,492.94
32.24752,384.81,492.29
32.26761,383.78,490.84
32.28914,382.60,493.80
32.30942,385.97,495.43
32.32897,385.32,495.43
32.34836,384.26,494.08
32.36871,384.87,494.97
32.38864,384.34,494.26
32.40879,384.91,493.42
32.42771,384.66,492.87
32.44848,383.63,495.16
32.46783,384.51,494.80
32.48749,385.35,494.64
32.50898,387.34,490.70
32.52716,386.18,491.33
32.54929,384.60,493.32
32.56920,384.37,492.33
32.58917,384.97,494.07
32.60816,384.42,494.64
32.62905,387.31,493.10
32.64891,384.00,493.50
32.66837,385.63,492.87
32.68762,385.82,494.52
32.70898,387.20,494.77
32.72875,386.43,493.00
32.74777,387.50,494.37
32.76813,390.28,493.19
32.78865,388.50,494.35
32.80861,388.90,494.06
32.82833,390.73,493.00
32.84753,387.44,494.36
32.86878,387.42,491.56
32.88878,387.96,492.90
32.90924,389.47,492.14
32.92789,388.62,492.77
32.94836,387.61,490.78
32.96736,389.31,491.55
32.98797,386.40,492.61
33.00912,386.69,492.92
33.02768,387.62,491.56
33.04815,388.43,494.93
33.06925,389.43,493.59
33.08756,388.11,493.69
33.10904,386.91,495.59
33.12849,389.00,495.64
33.14871,390.01,492.91
33.16773,389.01,492.16
33.18775,388.74,492.60
33.20790,390.87,493.25
33.22899,388.24,493.57
33.24873,390.45,493.43
33.26939,387.28,495.67
33.28799,388.61,495.46
33.30914,389.35,496.41
33.32850,387.65,494.69
33.34913,390.64,493.08
33.36910,390.88,495.92
33.38910,390.47,497.28
33.40833,391.64,497.18
33.42815,391.27,497.08
33.44826,390.00,496.19
33.46876,392.08,493.90
33.48776,391.41,493.83
33.50891,392.61,492.76
33.52909,393.09,495.08
33.54913,392.77,496.37
33.56949,389.63,496.70
33.58916,392.10,496.34
33.60796,391.36,493.31
33.62886,391.39,496.67
33.64817,391.64,493.38
33.66931,390.72,494.02
33.68926,390.53,497.31
33.70875,390.16,496.70
33.72779,391.29,497.12
33.74850,391.58,496.91
33.76830,392.72,495.51
33.78819,391.88,493.95
33.80795,391.49,497.08
33.82874,393.36,496.34
33.84827,391.72,496.40
33.86929,394.85,497.82
33.88814,394.31,494.33
33.90832,394.76,495.75
33.92755,392.65,496.81
33.94858,392.51,497.17
33.96949,394.18,496.44
33.98869,393.68,496.65
34.00761,391.75,495.28
34.02898,392.29,496.86
34.04881,393.48,495.98
34.06924,391.45,495.08
34.08898,392.62,495.73
34.10857,394.40,496.36
34.12833,393.91,494.28
34.14801,392.86,497.72
34.16911,392.98,497.27
34.18910,391.80,496.73
34.20903,392.43,494.00
34.22849,393.23,493.65
34.24781,391.73,497.04
34.26805,392.94,495.53
34.28802,392.14,494.13
34.30918,391.29,494.19
34.32832,391.29,496.17
34.34925,393.00,497.52
34.36935,387.55,494.44
34.38792,374.41,495.69
34.40845,354.74,496.75
34.42921,336.99,498.44
34.44801,314.39,498.47
34.46854,297.98,494.91
34.48793,284.49,490.24
34.50752,275.30,482.39
34.52806,268.68,475.58
34.54759,265.99,472.37
34.56805,266.26,466.07
34.58841,267.62,463.23
34.60834,271.62,461.91
34.62777,279.90,461.69
34.64879,283.24,461.91
34.66854,294.09,461.24
34.68808,299.04,463.04
34.70744,307.00,462.78
34.72924,315.10,467.16
34.74789,322.31,469.10
34.76788,329.93,471.30
34.78907,338.66,472.32
34.80766,345.52,473.42
34.82937,350.34,476.97
34.84929,357.19,477.60
34.86753,361.85,479.50
34.88925,364.19,481.03
34.90833,367.99,482.40
34.92856,371.88,486.70
34.94776,373.96,488.90
34.96888,378.78,490.65
34.98896,381.09,489.86
35.00936,382.17,491.72
35.02887,383.15,494.31
35.04752,385.70,492.26
35.06868,386.46,496.79
35.08812,388.23,497.08
35.10864,390.46,497.95
35.12835,389.91,500.34
35.14783,391.55,497.85
35.16899,392.50,499.79
35.18844,391.44,499.08
35.20775,393.10,500.20
35.22801,393.45,501.05
35.24901,392.48,499.28
35.26878,390.29,499.02
35.28914,393.91,497.96
35.30728,395.56,500.89
35.32907,395.85,500.43
35.34880,393.26,502.30
35.36761,397.04,500.15
35.38926,397.03,498.97
35.40805,397.83,502.79
35.42893,406.00,508.73
35.44900,427.29,519.70
35.46893,455.09,529.79
35.48914,483.64,538.74
35.50812,507.77,544.98
35.52866,533.04,550.51
35.54885,551.99,553.46
35.56802,555.53,551.11
35.58894,553.62,544.36
35.60894,548.08,543.29
35.62858,535.75,537.99
35.64929,523.28,534.91
35.66817,511.48,528.08
35.68792,499.45,526.04
35.70856,486.07,523.85
35.72823,475.13,520.89
35.74767,462.97,518.51
35.76743,453.55,515.97
35.78781,448.09,514.09
35.80909,440.26,512.77
35.82920,435.08,508.45
35.84828,427.97,506.39
35.86826,424.26,503.40
35.88783,417.80,503.75
35.90735,415.90,504.28
35.92883,414.21,501.45
35.94820,408.75,499.12
35.96743,406.46,501.44
35.98836,402.28,501.75
36.00830,402.63,497.30
36.02914,401.30,499.47
36.04793,396.75,498.89
36.06804,396.01,498.47
36.08912,398.15,498.11
36.10798,395.68,498.33
36.12895,395.73,498.77
36.14768,396.29,500.91
36.16799,395.19,500.41
36.18853,394.77,500.86
36.20826,394.70,500.71
36.22754,396.00,499.69
36.24825,394.93,499.56
36.26923,394.85,498.75
36.28737,396.36,499.78
36.30789,396.55,498.93
36.32836,396.31,498.36
36.34907,397.47,497.03
36.36896,397.21,496.29
36.38798,395.91,495.89
36.40843,395.38,499.08
36.42876,395.30,496.98
36.44843,393.49,497.39
36.46919,392.98,497.52
36.48823,392.51,497.67
36.50904,393.26,500.47
36.52872,393.78,499.72
36.54761,393.75,503.00
36.56801,394.02,502.14
36.58732,391.03,501.22
36.60816,389.81,502.62
36.62838,391.24,499.89
36.64843,389.78,502.95
36.66873,392.57,503.03
36.68853,393.39,500.78
36.70810,392.92,500.51
36.72908,393.37,503.19
36.74924,389.28,500.35
36.76905,390.26,502.55
36.78801,392.17,501.10
36.80859,392.27,499.41
36.82818,392.58,499.85
36.84914,390.05,501.13
36.86877,394.10,499.33
36.88801,391.16,501.81
36.90734,390.71,502.09
36.92758,394.62,501.35
36.94829,391.39,498.90
36.96906,391.14,499.21
36.98812,392.91,500.73
37.00825,390.12,499.11
37.02938,392.41,498.63
37.04934,389.25,498.23
37.06840,392.97,497.16
37.08833,391.35,498.54
37.10874,393.09,501.26
37.12920,391.62,500.79
37.14772,394.12,501.22
37.16802,393.70,500.14
37.18785,394.02,498.65
37.20862,393.88,501.85
37.22877,393.66,500.27
37.24733,393.39,501.02
37.26734,392.94,499.89
37.28750,391.29,498.37
37.30885,390.30,500.26
37.32799,392.70,499.72
37.34892,392.74,501.70
37.36779,390.22,501.39
37.38748,389.69,502.46
37.40860,390.35,502.94
37.42784,391.15,502.29
37.44855,391.40,500.40
37.46913,393.30,498.94
37.48877,389.78,501.47
37.50755,391.02,500.66
37.52810,393.28,499.64
37.54877,391.92,502.18
37.56906,391.35,500.40
37.58867,389.71,499.72
37.60819,388.23,502.63
37.62803,391.02,500.49
37.64912,390.54,500.32
37.66848,389.25,500.02
37.68758,389.55,500.67
37.70774,388.78,499.83
37.72720,388.76,502.04
37.74919,386.24,500.29
37.76776,388.28,498.58
37.78739,386.60,500.94
37.80914,386.66,501.38
37.82745,388.15,500.50
37.84888,387.98,499.14
37.86836,387.54,500.67
37.88769,387.80,499.50
37.90764,390.96,502.77
37.92851,389.95,500.37
37.94724,388.18,499.29
37.96913,390.12,499.21
37.98905,390.30,502.38
38.00887,390.01,502.00
38.02789,389.77,501.22
38.04860,387.73,501.25
38.06779,390.15,501.43
38.08774,389.42,503.98
38.10912,386.62,501.83
38.12795,387.57,502.86
38.14779,388.63,502.63
38.16849,387.58,499.35
38.18812,389.33,499.21
38.20837,388.81,499.86
38.22898,388.93,498.15
38.24907,386.44,498.23
38.26761,386.62,498.49
38.28866,389.05,495.89
38.30774,386.13,498.78
38.32936,386.41,499.20
38.34883,388.25,499.11
38.36803,385.50,496.01
38.38835,386.03,496.83
38.40801,386.36,496.60
38.42846,387.67,498.05
38.44827,383.23,496.33
38.46732,376.31,498.43
38.48873,359.96,502.55
38.50839,338.61,506.36
38.52802,312.16,504.81
38.54836,290.79,500.48
38.56841,276.51,493.00
38.58904,263.65,483.41
38.60915,259.94,472.86
38.62842,254.04,466.66
38.64766,253.53,458.13
38.66774,258.29,456.16
38.68803,262.58,451.58
38.70897,270.58,451.69
38.72794,277.40,451.06
38.74867,284.54,452.78
38.76779,291.19,451.93
38.78811,300.71,456.17
38.80870,308.81,459.35
38.82848,317.67,462.29
38.84838,323.72,464.82
38.86848,333.03,467.71
38.88859,337.73,469.39
38.90802,341.97,473.73
38.92759,350.09,477.28
38.94878,351.73,477.00
38.96849,355.36,479.81
38.98928,359.78,482.44
39.00928,363.68,484.75
39.02884,366.84,487.91
39.04828,367.08,490.60
39.06801,367.18,491.77
39.08839,369.30,489.81
39.10813,371.98,490.42
39.12834,373.04,493.42
39.14885,374.88,493.91
39.16788,376.24,492.48
39.18776,377.12,497.15
39.20851,377.59,493.46
39.22916,376.92,494.01
39.24733,378.58,495.07
39.26823,377.08,495.21
39.28897,379.08,498.35
39.30737,391.30,506.74
39.32787,404.99,522.18
39.34743,428.94,541.14
39.36891,452.48,554.70
39.38731,476.28,566.28
39.40839,498.45,565.65
39.42909,519.69,562.48
39.44884,529.58,555.44
39.46783,532.93,547.65
39.48808,528.86,540.38
39.50859,518.55,534.15
39.52846,510.09,530.48
39.54876,496.82,523.58
39.56824,486.67,520.49
39.58920,474.85,514.73
39.60786,463.77,512.66
39.62733,451.81,509.35
39.64769,445.04,507.35
39.66758,435.66,505.53
39.68836,429.26,503.73
39.71019,422.68,505.07
39.72919,416.42,502.54
39.75099,411.37,503.99
39.76956,404.83,500.55
39.78981,400.59,502.21
39.80946,399.11,499.51
39.83067,395.06,499.90
39.84969,390.86,500.97
39.86952,389.58,497.56
39.89101,386.54,496.20
39.90932,389.21,496.60
39.92946,385.36,497.02
39.95104,383.17,497.86
39.96983,385.14,498.21
39.98920,380.91,494.69
40.01095,383.69,495.06
40.02978,381.39,498.65
40.05108,381.80,498.56
40.07100,379.92,496.75
40.09015,381.88,499.86
40.11063,380.18,497.85
40.12997,380.38,498.81
40.15110,380.22,497.30
40.17076,379.55,497.75
40.19049,379.60,500.77
40.21120,378.54,499.34
40.23086,381.03,497.69
40.24953,381.49,500.55
40.26987,381.06,498.58
40.29042,378.21,497.02
40.30941,380.40,497.04
40.32975,379.76,497.88
40.35097,379.61,497.30
40.36935,379.25,495.35
40.39010,378.93,494.00
40.41023,379.96,496.26
40.43072,378.85,494.86
40.45282,378.66,494.77
40.47270,378.55,496.61
40.49274,380.38,495.33
40.51247,380.71,496.76
40.53113,379.34,495.25
40.55132,380.96,496.55
40.57136,380.93,498.42
40.59255,383.23,499.06
40.61146,381.48,497.91
40.63290,381.95,498.99
40.65188,382.84,499.57
40.67127,383.21,500.34
40.69190,380.97,498.71
40.71127,382.11,498.33
40.73138,378.92,500.06
40.75172,380.49,502.16
40.77283,384.75,500.51
40.79414,384.74,499.88
40.81522,385.80,499.77
40.83536,386.23,503.65
40.85667,387.90,500.41
40.87574,389.61,502.73
40.89707,388.08,499.66
40.91570,387.55,499.90
40.93662,392.05,502.03
40.95685,391.13,499.47
40.97780,391.31,501.74
40.99707,392.56,501.20
41.01633,395.20,501.65
41.03677,394.00,501.03
41.05646,394.89,499.07
41.07761,395.44,500.26
41.09870,394.98,499.54
41.11806,392.07,500.59
41.13784,392.49,498.09
41.15810,392.60,500.93
41.17792,392.34,499.17
41.19696,394.09,501.26
41.21849,394.46,501.87
41.23790,391.85,500.76
41.25719,394.70,498.94
41.27984,392.40,499.91
41.29847,395.33,501.10
41.31829,394.08,500.59
41.33953,393.63,503.30
41.35844,393.86,502.03
41.37870,395.01,503.39
41.39900,392.71,504.52
41.41976,394.41,503.87
41.43855,392.29,501.98
41.45796,391.46,500.93
41.47848,394.53,504.09
41.49862,390.50,500.92
41.51863,393.13,503.22
41.53884,394.66,502.45
41.55972,391.22,503.99
41.58006,391.24,502.23
41.60065,389.94,504.84
41.62044,390.99,504.07
41.64076,391.21,503.25
41.65947,390.60,502.72
41.67923,393.10,501.38
41.70067,392.53,501.83
41.71971,389.64,501.33
41.73978,391.17,500.14
41.75928,390.27,501.40
41.78091,391.85,502.17
41.79897,390.26,499.86
41.82079,392.72,500.83
41.84000,392.40,499.78
41.85952,391.98,500.92
41.88081,393.21,499.54
41.90091,392.14,500.76
41.91989,393.60,500.57
41.93938,391.08,502.90
41.95990,389.21,501.30
41.98076,388.82,501.62
41.99949,390.72,502.05
42.02001,388.55,499.35
42.03913,388.67,498.68
42.06099,388.54,498.53
42.07961,386.87,498.82
42.10011,382.46,497.69
42.12045,367.44,493.25
42.14106,348.39,489.35
42.16093,325.78,487.98
42.18006,307.83,487.42
42.19954,291.57,483.68
42.22084,281.81,477.93
42.24194,275.33,470.96
42.26111,271.51,466.44
42.28063,270.73,462.11
42.30026,274.90,460.62
42.32104,276.81,460.17
42.34011,281.86,458.96
42.36209,287.61,461.42
42.38233,297.22,460.83
42.40130,301.61,462.96
42.42158,309.53,465.70
42.44156,316.72,466.54
42.46156,321.73,469.66
42.48293,328.90,473.00
42.50244,334.27,474.75
42.52186,339.03,477.36
42.54313,343.63,478.81
42.56134,347.06,484.26
42.58188,354.93,483.65
42.60201,356.01,485.43
42.62242,359.02,491.36
42.64252,360.78,491.73
42.66212,363.42,493.60
42.68427,367.14,493.68
42.70468,366.41,495.22
42.72321,369.71,496.72
42.74417,370.75,497.13
42.76542,371.32,496.17
42.78601,372.42,496.14
42.80495,371.73,498.37
42.82666,376.50,496.15
42.84626,374.24,498.83
42.86708,376.75,498.66
42.88710,378.71,499.71
42.90720,378.22,500.20
42.92661,380.79,498.36
42.94888,379.49,498.78
42.96982,384.53,502.24
42.98893,396.22,506.80
43.00920,409.31,519.19
43.02982,431.84,526.67
43.04909,451.37,540.49
43.06984,474.91,545.54
43.08998,497.88,545.71
43.11080,520.70,543.46
43.13084,535.92,540.13
43.15051,542.14,536.27
43.17132,540.64,530.52
43.19022,533.67,529.58
43.21061,525.02,522.05
43.23188,512.67,521.08
43.25156,503.58,518.08
43.27210,493.16,515.07
43.29110,482.17,513.78
43.31200,472.26,510.93
43.33286,462.71,510.75
43.35469,452.48,508.68
43.37579,447.28,509.03
43.39589,437.80,508.11
43.41607,431.06,507.94
43.43513,425.45,507.51
43.45530,422.43,505.96
43.47616,417.94,505.78
43.49562,415.23,505.77
43.51644,409.51,507.77
43.53581,408.90,504.74
43.55635,405.90,504.72
43.57698,403.49,507.15
43.59641,403.72,503.96
43.61697,400.95,506.42
43.63868,398.76,502.75
43.65739,397.79,502.65
43.67742,395.34,504.04
43.69702,393.44,503.81
43.71796,394.44,504.21
43.73902,389.55,500.52
43.75734,390.37,503.10
43.77793,391.61,503.45
43.79736,388.52,503.62
43.81716,388.62,502.14
43.83708,389.05,503.87
43.85721,387.52,503.14
43.87809,386.67,504.39
43.89864,387.38,501.83
43.91752,391.09,503.55
43.93815,388.40,501.80
43.95892,389.37,504.61
43.97895,389.24,503.96
43.99848,389.80,504.39
44.01835,386.63,501.60
44.03784,389.24,502.44
44.05719,387.13,501.66
44.07770,388.73,504.38
44.09801,387.21,503.15
44.11731,386.09,502.73
44.13745,388.30,505.00
44.15872,388.56,501.22
44.17772,387.55,502.91
44.19857,387.68,501.38
44.21859,386.56,500.68
44.23823,384.64,503.61
44.25786,387.06,503.42
44.27810,386.15,503.22
44.29845,386.19,500.93
44.31769,384.04,504.22
44.33825,386.75,501.01
44.35757,384.71,503.31
44.37805,386.94,503.90
44.39743,383.48,504.20
44.41769,386.81,504.04
44.43845,386.56,501.82
44.45907,387.08,505.14
44.47870,385.51,507.10
44.49907,386.04,504.19
44.51877,385.05,507.00
44.53763,385.74,506.69
44.55720,386.07,507.66
44.57736,386.13,510.07
44.59842,386.36,505.78
44.61784,385.58,504.72
44.63715,385.84,507.46
44.65783,383.60,504.38
44.67843,384.91,505.60
44.69852,382.58,505.15
44.71782,382.06,504.13
44.73815,382.32,503.00
44.75831,383.04,504.74
44.77744,381.47,505.49
44.79813,382.28,503.51
44.81854,382.95,501.73
44.83907,384.18,503.94
44.85832,380.35,502.08
44.87781,381.30,503.68
44.89743,381.49,503.40
44.91789,380.97,505.00
44.93709,380.74,503.22
44.95834,381.84,502.86
44.97762,382.88,505.00
44.99805,380.12,503.81
45.01867,379.88,502.06
45.03926,379.60,504.65
45.05979,377.28,503.01
45.08360,376.03,503.34
45.10170,378.39,500.86
45.12061,376.01,500.85
45.14144,376.15,501.63
45.16008,376.39,500.20
45.18090,376.86,498.66
45.20241,377.42,500.96
45.22101,378.24,500.03
45.24247,379.68,499.82
45.26225,378.61,501.88
45.28103,378.66,500.32
45.30165,380.72,498.03
45.32240,379.19,497.64
45.34309,379.59,500.91
45.36201,379.13,499.07
45.38467,381.02,498.28
45.40416,382.82,497.79
45.42511,382.57,499.99
45.44665,386.03,499.48
45.46715,388.40,501.05
45.48796,388.95,497.07
45.50781,393.15,497.23
45.52841,393.84,498.60
45.54978,393.89,496.49
45.56998,394.66,497.02
45.58923,393.51,497.64
45.61044,394.72,500.37
45.63183,396.88,496.73
45.65230,394.17,500.07
45.67335,394.38,499.85
45.69189,391.23,501.56
45.71201,391.11,499.62
45.73363,393.72,499.17
45.75191,393.41,497.73
45.77360,393.58,501.02
45.79251,391.24,498.25
45.81395,389.38,500.21
45.83351,388.63,500.79
45.85211,389.12,499.03
45.87269,391.21,500.34
45.89316,389.92,501.12
45.91347,391.47,499.78
45.93217,393.39,500.67
45.95275,391.88,500.97
45.97445,390.54,498.37
45.99323,389.82,499.94
46.01428,387.07,497.43
46.03440,386.99,498.09
46.05535,385.46,498.80
46.07567,383.83,498.58
46.09532,385.37,496.20
46.11654,384.45,495.80
46.13794,385.15,497.46
46.15786,382.80,494.84
46.17752,379.35,497.23
46.19739,380.68,496.49
46.21722,380.15,497.12
46.23705,379.25,497.33
46.25868,368.18,499.09
46.27684,350.10,497.72
46.29698,332.08,500.53
46.31782,308.65,502.35
46.33817,288.79,502.60
46.35866,275.32,495.69
46.37841,263.65,489.40
46.39874,256.31,477.46
46.41812,252.04,471.21
46.43811,252.54,460.00
46.45961,257.54,455.82
46.47998,261.18,454.88
46.50052,265.54,452.25
46.52043,272.56,449.29
46.54260,283.49,450.68
46.56175,293.19,449.66
46.58222,298.23,453.32
46.60287,311.23,456.14
46.62253,318.43,456.13
46.64218,323.88,459.37
46.66263,332.84,463.28
46.68261,339.42,466.98
46.70196,343.08,471.95
46.72230,348.55,473.27
46.74289,354.28,477.40
46.76184,358.34,477.75
46.78289,363.68,478.87
46.80096,367.12,479.86
46.82161,368.05,483.17
46.84165,369.76,485.12
46.86309,373.62,484.69
46.88120,375.38,486.12
46.90267,378.27,490.87
46.92129,378.31,490.99
46.94171,377.86,491.17
46.96114,379.10,491.20
46.98113,381.35,494.13
47.00202,383.46,493.13
47.02197,381.17,495.79
47.04137,379.91,495.73
47.06111,381.30,495.87
47.08173,382.58,496.71
47.10196,382.09,494.51
47.12117,384.35,493.99
47.14134,386.46,497.23
47.16175,399.67,503.26
47.18166,419.66,513.00
47.20132,444.44,523.27
47.22359,472.66,534.24
47.24191,502.80,542.84
47.26387,529.60,547.27
47.28347,541.35,547.98
47.30260,544.40,546.53
47.32400,536.59,544.66
47.34246,530.29,540.75
47.36297,516.86,534.10
47.38196,507.12,531.60
47.40311,496.39,525.97
47.42358,483.34,521.57
47.44367,474.17,518.83
47.46413,465.50,516.50
47.48383,456.35,512.23
47.50390,445.94,508.97
47.52497,441.61,509.00
47.54544,436.21,507.64
47.56581,429.73,505.71
47.58619,423.45,507.10
47.60561,420.68,503.87
47.62635,415.71,506.17
47.64608,414.33,504.13
47.66649,409.29,504.82
47.68752,408.01,503.24
47.70652,405.27,503.08
47.72770,403.79,499.98
47.74851,404.59,502.16
47.76796,400.94,500.85
47.78900,399.17,500.39
47.80790,401.75,499.76
47.82856,396.62,501.09
47.84927,397.17,501.49
47.86925,398.07,501.09
47.88982,397.54,502.64
47.90956,394.21,501.94
47.92809,397.51,499.69
47.94921,396.61,500.09
47.96969,396.59,501.17
47.98953,397.78,499.75
48.00876,394.39,501.13
48.03046,395.08,498.79
48.04929,391.86,501.62
48.07019,390.76,500.22
48.09050,392.60,500.41
48.10964,390.64,500.23
48.12930,392.47,499.23
48.14984,391.54,501.22
48.16948,391.45,497.76
48.18927,392.86,497.51
48.20939,390.32,500.11
48.23055,389.30,497.26
48.25086,390.14,499.50
48.26971,389.23,496.97
48.28921,388.52,496.59
48.30986,390.08,500.05
48.33060,385.92,496.78
48.35171,386.73,497.13
48.37096,387.97,498.66
48.39119,387.68,496.92
48.41138,383.40,498.13
48.43223,384.49,496.80
48.45290,383.75,500.34
48.47238,384.10,501.26
48.49380,382.14,498.27
48.51311,382.02,500.59
48.53247,381.59,500.52
48.55290,379.35,497.28
48.57343,380.32,500.42
48.59476,378.80,499.42
48.61399,379.12,498.26
48.63511,380.64,496.31
48.65545,381.09,496.13
48.67727,380.02,495.96
48.69667,378.23,498.33
48.71785,379.89,497.09
48.73765,381.90,494.62
48.75760,382.71,497.59
48.77743,379.38,495.47
48.79746,377.88,498.83
48.81698,378.57,498.84
48.83798,380.58,502.69
48.85774,381.67,507.01
48.87718,379.03,506.20
48.89829,380.03,504.19
48.91821,377.76,506.89
48.93722,379.75,503.95
48.95812,378.63,495.99
48.97701,377.76,475.63
48.99778,372.93,452.65
49.01790,372.59,438.99
49.03929,372.67,432.14
49.05792,371.87,430.51
49.07818,368.63,430.23
49.09798,372.23,435.95
49.11855,371.97,438.20
49.13868,375.14,444.89
49.15805,377.76,449.81
49.17821,376.74,457.53
49.19769,377.84,463.83
49.21784,380.10,468.08
49.23884,379.27,475.23
49.25732,379.29,477.69
49.27887,380.22,485.11
49.29833,379.63,485.73
49.31847,381.32,490.14
49.33859,382.92,493.22
49.35848,384.10,492.02
49.37717,384.49,495.80
49.39856,385.90,500.31
49.41819,383.74,499.38
49.43858,382.58,502.95
49.45713,380.44,505.61
49.47680,382.12,501.63
49.49726,386.46,501.67
49.51744,386.17,502.78
49.53841,388.46,501.29
49.55872,388.01,500.67
49.57804,387.93,502.03
49.59839,390.22,505.57
49.61706,390.84,503.90
49.63870,391.54,501.76
49.65806,389.46,501.64
49.67679,392.29,500.78
49.69863,389.20,501.28
49.71740,389.14,502.26
49.73852,386.38,496.64
49.75791,377.76,492.62
49.77761,374.75,488.90
49.79700,373.28,487.40
