Program Time [s],data 0,data 1
98.04736,404.38,442.29
98.06720,407.25,452.55
98.08880,406.62,455.64
98.10756,401.66,448.99
98.12815,405.26,449.22
98.14679,409.04,466.92
98.16697,414.77,472.66
98.18686,416.75,465.89
98.20757,425.14,479.42
98.22707,422.71,489.67
98.24717,419.06,486.61
98.26665,424.82,491.72
98.28694,423.12,512.48
98.30829,420.79,510.44
98.32708,420.92,510.68
98.34743,424.61,520.91
98.36769,421.46,529.74
98.38757,421.65,531.94
98.40849,425.07,547.62
98.42674,422.00,542.63
98.44713,421.45,544.79
98.46640,413.92,537.12
98.48866,414.86,539.90
98.50840,416.98,536.37
98.52709,415.37,535.83
98.54804,412.55,533.46
98.56726,414.87,527.22
98.58766,415.62,532.21
98.60864,413.71,533.10
98.62861,413.20,527.38
98.64811,414.83,533.84
98.66805,416.14,532.93
98.68885,419.94,532.36
98.71055,414.19,539.54
98.73091,412.85,541.66
98.75234,412.32,541.02
98.77172,411.30,538.86
98.79147,412.29,539.65
98.81235,411.31,542.14
98.83242,410.43,539.95
98.85209,416.54,535.41
98.87287,416.85,550.69
98.89203,413.87,554.48
98.91324,413.81,556.74
98.93252,414.44,558.26
98.95384,415.55,557.53
98.97513,415.65,555.03
98.99575,417.93,550.21
99.01608,423.06,550.22
99.03732,427.45,555.99
99.05808,432.82,559.39
99.07644,433.20,558.78
99.09739,434.55,559.15
99.11747,431.39,554.36
99.13672,433.67,556.72
99.15675,431.72,556.10
99.17659,434.47,554.34
99.19791,436.06,551.49
99.21778,437.74,547.43
99.23913,440.43,552.20
99.26010,437.16,554.48
99.28064,439.54,556.48
99.30185,440.21,555.86
99.32117,441.28,554.53
99.34093,444.68,553.88
99.36163,446.46,562.07
99.38204,447.06,561.40
99.40308,441.38,562.37
99.42216,441.22,559.93
99.44296,443.02,559.48
99.46280,443.30,560.42
99.48163,438.36,567.95
99.50138,438.17,562.64
99.52322,436.81,558.28
99.54205,442.21,568.12
99.56226,436.95,561.99
99.58175,436.89,563.52
99.60314,438.85,562.40
99.62143,434.55,567.25
99.64204,436.53,566.43
99.66163,437.23,562.97
99.68307,436.54,562.13
99.70170,434.80,560.56
99.72225,436.91,559.70
99.74227,438.46,556.16
99.76149,436.39,558.81
99.78151,436.49,559.84
99.80204,437.69,558.65
99.82170,436.18,559.67
99.84131,437.62,560.22
99.86181,439.39,560.90
99.88313,435.16,561.60
99.90231,435.61,565.10
99.92145,434.64,563.02
99.94291,434.73,562.70
99.96258,433.30,565.76
99.98160,436.84,565.63
100.00381,436.44,570.33
100.02210,436.20,568.55
100.04388,435.16,565.95
100.06148,436.09,562.68
100.08218,432.96,563.32
100.10121,430.31,561.63
100.12118,433.41,563.37
100.14259,433.37,564.49
100.16112,431.73,563.78
100.18216,430.22,563.14
100.20289,431.99,561.70
100.22103,434.61,564.34
100.24191,435.72,563.85
100.26255,435.01,566.30
100.28172,435.89,564.07
100.30201,438.06,564.01
100.32254,435.53,565.75
100.34278,433.29,564.18
100.36142,433.29,562.07
100.38260,433.07,564.36
100.40376,436.35,560.95
100.42275,436.01,562.48
100.44210,433.41,564.45
100.46203,432.66,565.05
100.48292,432.97,561.15
100.50387,432.74,560.26
100.52262,433.30,565.49
100.54223,434.31,562.72
100.56106,435.17,565.26
100.58124,434.09,561.70
100.60325,435.15,564.11
100.62484,437.73,562.53
100.64578,434.45,562.26
100.66573,429.56,560.97
100.68788,436.39,564.80
100.70813,453.01,574.00
100.72808,473.98,582.84
100.74613,499.10,589.96
100.76826,523.00,592.95
100.78724,538.87,593.52
100.80882,545.70,585.40
100.82910,548.47,577.90
100.84993,553.41,570.43
100.87077,553.49,564.13
100.89088,548.99,555.66
100.91180,539.62,559.46
100.93291,536.13,554.60
100.95213,523.88,550.52
100.97119,520.46,554.60
100.99140,512.59,558.63
101.01209,504.87,555.05
101.03130,495.32,553.16
101.05143,488.99,556.11
101.07297,484.80,557.67
101.09300,479.49,555.08
101.11332,475.55,557.39
101.13367,469.64,557.47
101.15450,462.46,558.33
101.17323,464.65,560.19
101.19510,460.57,559.57
101.21698,460.05,560.97
101.23600,455.64,562.08
101.25626,454.29,564.54
101.27666,453.35,564.40
101.29741,451.94,566.93
101.31842,449.95,562.75
101.33884,450.80,565.05
101.35789,448.56,565.65
101.37764,450.81,565.57
101.39897,448.53,561.92
101.41906,446.28,562.15
101.43839,444.59,568.07
101.45992,431.61,570.04
101.47904,419.18,578.00
101.49995,400.96,595.76
101.51968,382.39,610.51
101.53840,358.44,616.46
101.56018,334.75,608.97
101.57999,311.55,583.59
101.59904,292.47,556.86
101.61951,276.12,535.91
101.63820,271.66,512.23
101.65860,275.73,498.85
101.68074,286.35,493.01
101.69948,295.86,487.32
101.71954,308.59,491.29
101.74055,319.90,492.79
101.76043,336.95,499.87
101.78081,346.28,502.29
101.79969,357.90,507.79
101.82017,364.78,515.03
101.84005,373.67,522.05
101.86071,378.23,525.95
101.88145,387.95,534.65
101.90131,392.20,538.35
101.92160,396.18,538.19
101.94111,400.08,543.16
101.96023,404.48,545.69
101.98046,407.66,547.02
102.00005,410.38,548.65
102.02124,414.12,551.86
102.04039,416.77,552.74
102.06034,422.27,551.03
102.08004,421.06,551.87
102.10022,424.91,550.64
102.12104,424.33,551.63
102.14243,430.30,553.36
102.16205,429.52,558.27
102.18142,429.62,557.93
102.20159,429.37,565.49
102.22238,429.66,563.57
102.24181,429.25,565.74
102.26288,430.65,563.67
102.28381,423.46,565.81
102.30224,428.73,561.35
102.32161,427.94,560.21
102.34229,427.50,558.49
102.36143,426.67,562.04
102.38285,427.83,561.32
102.40178,427.82,562.29
102.42267,429.00,564.36
102.44156,429.28,568.85
102.46146,428.04,565.88
102.48239,426.61,566.77
102.50160,424.58,565.28
102.52191,427.26,561.26
102.54266,423.97,566.80
102.56141,426.82,562.25
102.58273,426.04,564.25
102.60261,429.25,563.07
102.62336,428.74,559.91
102.64227,427.30,561.66
102.66211,426.16,562.44
102.68197,424.64,569.39
102.70234,424.20,565.97
102.72221,424.67,563.04
102.74301,426.53,561.92
102.76205,423.72,561.00
102.78310,423.10,562.21
102.80274,420.70,556.78
102.82207,419.50,559.16
102.84460,424.06,556.50
102.86494,422.78,553.24
102.88427,425.31,556.31
102.90684,424.39,558.92
102.92515,424.80,560.09
102.94574,425.47,554.71
102.96780,425.31,557.06
102.98779,425.08,551.61
103.00652,424.11,555.65
103.02754,422.39,554.02
103.04624,422.55,555.30
103.06820,424.08,555.43
103.08768,426.01,556.22
103.10825,428.57,556.68
103.12737,428.59,557.24
103.14838,429.19,557.60
103.16811,433.59,560.41
103.18936,432.11,560.13
103.20862,436.21,561.25
103.22949,437.24,561.71
103.24885,433.38,564.52
103.26838,436.03,560.73
103.28891,433.65,560.75
103.30976,434.10,557.03
103.32817,433.62,556.32
103.35012,436.22,553.98
103.37024,438.15,553.63
103.39041,438.74,553.69
103.40967,437.52,553.95
103.43008,439.78,551.52
103.45083,438.37,556.32
103.46949,437.00,550.98
103.48953,435.99,552.47
103.51098,433.16,552.74
103.52987,435.05,553.48
103.55092,434.55,552.66
103.56955,434.39,551.98
103.58988,437.41,554.24
103.61051,436.25,555.76
103.62958,440.68,554.62
103.64947,437.52,551.77
103.67007,442.18,554.86
103.69072,442.91,554.90
103.71184,442.54,555.55
103.73119,444.49,555.53
103.75210,442.81,558.45
103.77196,440.34,555.89
103.79305,439.96,557.25
103.81440,440.72,556.55
103.83477,442.83,557.28
103.85499,445.82,560.08
103.87571,442.23,556.51
103.89517,443.58,558.05
103.91561,446.98,559.09
103.93701,442.89,559.55
103.95784,445.51,560.85
103.97768,442.61,560.11
103.99848,443.15,556.99
104.01833,436.89,558.05
104.03865,436.78,560.73
104.05944,432.80,560.43
104.07811,432.81,565.22
104.09896,432.15,561.10
104.11939,429.71,564.36
104.13974,427.09,560.95
104.15834,431.26,562.14
104.17973,430.05,565.52
104.19854,426.17,563.79
104.21865,425.60,562.57
104.23909,425.43,563.01
104.25907,426.57,560.67
104.27905,427.51,562.91
104.29988,426.68,555.15
104.31914,427.21,559.93
104.33816,436.18,558.31
104.35868,456.44,566.94
104.37828,479.43,570.43
104.39868,502.44,577.47
104.42012,523.51,582.18
104.43855,543.30,588.99
104.45839,560.70,592.10
104.47970,567.40,591.27
104.50050,569.58,591.99
104.52093,572.43,589.72
104.54081,569.62,586.17
104.55967,565.79,580.53
104.57954,557.97,576.43
104.59962,549.22,574.27
104.62110,538.02,570.37
104.64146,528.83,563.64
104.66079,517.01,559.18
104.68127,505.62,558.28
104.70098,493.97,556.33
104.72038,483.25,556.80
104.74123,473.61,554.91
104.76061,466.22,555.99
104.78106,457.15,555.73
104.80158,453.67,555.60
104.82200,447.71,557.58
104.84188,444.78,555.71
104.86136,443.81,554.07
104.88200,436.84,556.31
104.90121,434.96,555.39
104.92128,433.42,560.39
104.94051,430.38,555.10
104.96125,427.88,556.03
104.98062,428.12,556.19
105.00083,424.94,557.19
105.02178,426.42,559.41
105.04161,424.56,560.28
105.06111,424.99,557.89
105.08087,424.65,558.98
105.10025,422.28,556.38
105.12084,417.84,550.79
105.14165,414.60,546.13
105.16052,415.75,550.97
105.18132,415.07,551.42
105.20090,414.85,548.19
105.22023,413.96,548.42
105.24014,411.92,553.11
105.26023,418.30,550.12
105.28057,405.73,553.48
105.30080,386.64,545.95
105.32119,357.73,544.09
105.34039,328.82,536.29
105.36145,302.79,528.69
105.38108,279.70,523.62
105.40093,266.40,515.64
105.42111,257.26,508.64
105.44089,260.07,509.78
105.46107,263.70,512.21
105.48077,275.17,513.62
105.50102,287.86,517.68
105.52042,298.69,522.11
105.54181,311.00,527.11
105.56043,323.33,530.87
105.58091,336.70,533.68
105.60117,345.77,540.77
105.62009,354.07,543.40
105.64020,362.71,545.46
105.66063,371.86,548.54
105.68112,378.39,550.67
105.70036,384.87,551.17
105.72145,389.10,552.12
105.74174,393.38,553.13
105.76111,398.46,553.54
105.78063,399.77,556.26
105.80158,405.09,557.78
105.82297,404.98,554.62
105.84344,409.37,556.83
105.86269,411.18,553.80
105.88248,414.65,556.55
105.90264,412.13,557.09
105.92282,412.79,556.61
105.94367,419.40,554.87
105.96350,422.26,553.79
105.98438,425.02,556.40
106.00401,431.02,560.04
106.02366,433.57,558.07
106.04382,434.18,555.35
106.06342,436.09,553.38
106.08491,433.91,552.50
106.10496,437.57,556.73
106.12480,440.73,555.03
106.14578,439.48,555.51
106.16414,437.76,555.13
106.18581,437.18,554.07
106.20471,438.56,554.38
106.22456,436.52,555.48
106.24443,435.26,555.16
106.26474,438.41,556.77
106.28600,438.23,556.10
106.30481,437.44,556.68
106.32581,439.57,556.43
106.34403,439.77,557.69
106.36526,440.20,556.11
106.38416,440.73,558.93
106.40572,436.26,557.70
106.42463,438.88,555.78
106.44488,436.35,557.77
106.46522,436.75,556.58
106.48501,435.22,557.30
106.50423,439.75,559.90
106.52509,439.66,558.00
106.54532,438.60,558.21
106.56525,436.20,560.83
106.58545,437.53,559.54
106.60431,434.43,560.49
106.62568,435.31,561.85
106.64598,435.83,561.84
106.66430,435.71,559.69
106.68587,433.99,560.86
106.70407,432.39,558.66
106.72418,435.56,560.27
106.74418,433.63,561.40
106.76504,434.11,562.15
106.78559,434.03,563.64
106.80498,437.46,565.54
106.82480,437.32,562.63
106.84418,439.22,565.48
106.86584,437.71,563.63
106.88504,438.18,562.45
106.90495,438.99,561.39
106.92437,437.42,559.40
106.94433,437.28,560.78
106.96568,436.55,558.48
106.98452,441.11,559.27
107.00421,438.32,559.03
107.02466,440.01,559.26
107.04578,440.84,557.00
107.06549,439.17,558.55
107.08529,439.31,555.66
107.10582,441.30,557.37
107.12559,438.04,556.60
107.14508,435.17,556.58
107.16478,439.05,559.22
107.18438,437.44,559.06
107.20406,438.93,557.44
107.22411,441.28,559.96
107.24516,437.81,556.54
107.26561,438.87,559.73
107.28453,438.39,560.69
107.30420,438.43,557.60
107.32581,438.02,557.03
107.34551,440.20,556.06
107.36490,439.36,555.70
107.38439,439.89,555.52
107.40516,441.11,555.60
107.42552,438.29,556.20
107.44583,439.74,556.41
107.46472,437.20,557.30
107.48424,438.69,555.23
107.50581,440.03,556.25
107.52452,440.79,553.18
107.54477,438.35,554.35
107.56490,440.87,554.70
107.58481,441.70,556.54
107.60587,439.82,554.69
107.62428,440.70,557.86
107.64428,442.44,557.07
107.66522,442.98,558.52
107.68498,444.20,556.40
107.70458,442.70,555.95
107.72473,441.99,559.68
107.74529,441.46,558.16
107.76441,445.45,560.01
107.78558,441.34,557.59
107.80590,442.96,559.69
107.82537,441.57,559.03
107.84440,441.80,557.57
107.86519,440.46,558.54
107.88493,439.51,559.14
107.90543,442.32,559.78
107.92551,442.76,560.07
107.94446,443.67,560.01
107.96422,444.40,559.91
107.98535,442.58,558.81
108.00634,444.08,557.67
108.02661,442.16,558.93
108.04668,442.31,558.61
108.06563,445.19,558.30
108.08597,442.07,557.43
108.10550,439.62,559.03
108.12568,440.05,560.34
108.14581,442.14,558.02
108.16525,440.93,561.12
108.18668,439.88,560.88
108.20504,443.05,558.01
108.22611,440.52,561.75
108.24697,440.34,559.56
108.26573,442.43,558.76
108.28611,440.65,561.18
108.30542,442.39,561.53
108.32522,442.76,561.03
108.34544,442.98,562.90
108.36602,440.58,560.23
108.38549,442.64,558.50
108.40505,443.11,559.36
108.42555,444.67,557.59
108.44646,445.56,557.88
108.46651,442.68,559.39
108.48516,445.83,559.52
108.50640,442.77,558.71
108.52583,442.96,559.51
108.54648,439.23,558.32
108.56568,450.14,567.11
108.58602,466.91,578.52
108.60592,491.01,601.77
108.62517,518.80,614.70
108.64629,544.47,628.39
108.66547,568.43,633.57
108.68652,582.26,635.79
108.70697,591.92,624.91
108.72591,599.02,619.93
108.74604,597.92,609.18
108.76533,597.48,598.50
108.78586,589.63,587.81
108.80688,581.58,579.91
108.82584,571.77,568.60
108.84662,559.34,561.57
108.86574,548.46,560.16
108.88593,536.13,555.50
108.90613,521.78,555.08
108.92677,513.48,553.68
108.94522,504.50,556.38
108.96683,496.14,553.76
108.98618,487.86,556.25
109.00568,481.81,556.06
109.02678,475.59,558.48
109.04622,469.89,556.16
109.06695,467.03,557.95
109.08576,460.01,560.16
109.10564,458.20,559.07
109.12643,454.82,559.12
109.14674,453.85,560.91
109.16547,453.08,560.60
109.18645,453.04,560.11
109.20623,450.79,561.39
109.22543,449.91,562.42
109.24575,449.63,563.58
109.26630,448.38,562.72
109.28606,448.06,563.41
109.30623,446.31,563.58
109.32567,444.65,562.86
109.34599,443.61,561.74
109.36589,442.36,560.71
109.38519,443.78,561.49
109.40563,443.14,564.24
109.42659,439.60,562.92
109.44643,438.74,564.23
109.46638,436.56,561.61
109.48635,422.06,563.08
109.50532,401.10,560.53
109.52675,378.16,557.69
109.54617,348.99,553.71
109.56538,329.92,551.58
109.58670,306.31,545.68
109.60621,293.74,540.94
109.62607,286.11,531.31
109.64544,288.04,528.13
109.66615,293.61,526.88
109.68663,303.21,527.74
109.70645,315.56,527.08
109.72685,325.88,529.33
109.74672,338.63,531.63
109.76638,350.69,532.41
109.78604,359.54,535.06
109.80660,368.61,535.98
109.82569,375.48,540.39
109.84549,384.53,539.51
109.86599,389.73,541.15
109.88528,397.05,544.50
109.90503,402.03,544.24
109.92501,405.67,545.12
109.94507,409.58,548.66
109.96556,414.26,550.40
109.98534,420.41,548.43
110.00586,420.49,551.56
110.02660,421.49,551.04
110.04577,424.99,552.65
110.06592,425.02,554.73
110.08574,427.86,552.50
110.10584,429.35,553.59
110.12617,432.63,555.08
110.14642,431.09,554.45
110.16550,431.85,556.35
110.18581,433.90,556.95
110.20676,432.35,557.05
110.22585,434.23,555.05
110.24694,437.98,557.64
110.26669,438.37,557.82
110.28631,437.53,559.88
110.30629,434.10,560.22
110.32610,436.41,557.54
110.34639,438.75,557.14
110.36512,438.98,559.39
110.38617,436.08,556.94
110.40621,435.32,556.28
110.42691,439.82,558.82
110.44615,438.18,557.08
110.46645,439.11,560.14
110.48508,439.92,558.97
110.50617,437.64,556.55
110.52518,438.68,557.74
110.54638,440.07,557.57
110.56664,441.57,559.73
110.58591,441.78,560.29
110.60676,441.23,556.72
110.62564,441.31,559.17
110.64640,438.45,560.57
110.66642,438.17,562.43
110.68561,438.55,559.38
110.70569,439.51,561.81
110.72509,441.24,560.00
110.74619,443.91,558.57
110.76686,441.06,558.66
110.78594,440.13,557.66
110.80584,442.38,559.49
110.82564,443.17,559.04
110.84678,442.51,562.14
110.86663,439.94,558.62
110.88563,440.54,558.36
110.90625,440.04,561.66
110.92597,438.20,560.35
110.94542,438.71,560.26
110.96620,435.25,557.33
110.98671,434.64,559.62
111.00501,436.66,558.29
111.02539,435.85,558.91
111.04565,435.44,556.59
111.06511,435.37,559.48
111.08532,437.16,557.03
111.10680,433.49,556.50
111.12643,434.74,555.30
111.14594,434.42,557.46
111.16678,437.14,559.28
111.18589,436.94,556.51
111.20692,438.01,556.23
111.22552,437.25,556.57
111.24779,434.45,556.60
111.26686,435.66,557.47
111.28641,436.43,555.54
111.30706,434.87,558.44
111.32674,435.83,555.34
111.34677,431.86,556.34
111.36615,430.65,558.90
111.38656,433.32,558.47
111.40692,430.52,558.84
111.42610,432.99,559.23
111.44692,433.14,556.59
111.46668,434.66,556.03
111.48632,432.19,558.57
111.50766,433.71,555.43
111.52696,433.59,556.32
111.54619,431.18,555.28
111.56698,432.80,555.60
111.58701,432.08,558.44
111.60785,431.86,557.46
111.62683,433.06,557.61
111.64607,431.62,555.04
111.66621,432.97,554.59
111.68735,430.83,556.72
111.70756,433.38,555.97
111.72657,432.57,555.25
111.74688,432.88,555.15
111.76751,434.02,557.29
111.78640,429.92,554.64
111.80742,433.78,554.81
111.82788,430.24,557.06
111.84637,432.93,556.66
111.86679,428.77,556.94
111.88678,430.69,556.42
111.90702,429.77,555.31
111.92649,429.79,558.67
111.94756,427.78,559.05
111.96706,429.54,556.43
111.98750,429.90,556.88
112.00705,431.14,558.96
112.02639,430.43,556.09
112.04769,428.66,555.62
112.06665,427.20,557.07
112.08718,428.15,557.81
112.10884,425.99,557.08
112.12765,423.39,555.50
112.14793,425.46,557.40
112.16731,425.26,556.60
112.18875,426.95,556.85
112.20726,425.88,555.73
112.22807,425.61,553.07
112.24756,426.04,556.09
112.26799,425.01,553.69
112.28880,425.94,555.16
112.30809,436.83,560.92
112.32875,453.00,572.33
112.34809,476.00,586.49
112.36729,498.83,596.13
112.38811,523.35,606.39
112.40767,546.82,610.77
112.42789,558.79,612.08
112.44710,567.84,606.21
112.46853,571.54,598.68
112.48793,569.96,589.93
112.50849,564.10,580.51
112.52722,558.03,576.52
112.54770,550.21,568.77
112.56806,537.33,560.56
112.58882,527.74,554.77
112.60754,516.94,548.92
112.62763,507.92,543.43
112.64893,497.91,542.31
112.66900,491.15,539.60
112.68830,481.87,541.63
112.70893,475.55,544.12
112.72754,465.82,544.20
112.74882,458.99,544.02
112.76860,454.87,547.32
112.78761,453.45,549.23
112.80833,446.76,551.47
112.82850,441.64,552.29
112.84826,439.40,555.64
112.86872,437.17,555.35
112.88849,436.64,554.70
112.90865,431.78,555.64
112.92945,429.17,556.78
112.94902,427.88,556.07
112.96840,426.95,554.83
112.98991,426.50,555.49
113.00941,422.66,554.93
113.02809,423.77,554.36
113.04844,422.79,555.26
113.06805,422.33,553.50
113.08929,420.84,553.70
113.10904,421.54,556.90
113.12968,423.72,556.92
113.14933,415.70,556.63
113.16978,403.60,555.14
113.18948,388.05,553.75
113.20902,364.68,552.52
113.23090,345.22,545.97
113.25090,322.94,542.72
113.26940,302.83,534.73
113.29027,288.21,526.28
113.30969,275.65,522.62
113.32934,271.22,517.74
113.34968,277.93,516.89
113.36979,283.95,518.89
113.38904,292.68,520.13
113.41009,301.66,518.96
113.43053,312.47,522.04
113.45065,323.10,526.33
113.47021,335.96,529.39
113.48944,348.42,530.66
113.51039,357.98,537.09
113.52955,364.54,536.78
113.55037,370.04,542.05
113.57039,379.63,544.07
113.59045,384.16,546.35
113.61015,390.17,545.36
113.62992,394.34,548.38
113.65059,395.59,550.47
113.67078,399.22,553.11
113.68996,401.37,550.45
113.71024,405.34,551.88
113.72996,408.79,549.86
113.75074,410.97,550.06
113.76901,412.11,552.10
113.78956,410.78,552.59
113.81033,414.31,554.79
113.82900,415.41,553.64
113.85021,416.40,554.84
113.87073,417.20,552.75
113.89098,416.93,556.46
113.91179,416.48,555.89
113.93105,419.63,553.25
113.95136,418.94,551.78
113.97001,419.87,552.49
113.99133,419.93,552.46
114.01197,422.46,553.76
114.03149,421.84,556.65
114.05153,422.22,556.06
114.07275,424.33,554.77
114.09243,428.04,554.25
114.11175,425.63,554.32
114.13213,428.87,554.45
114.15251,430.72,554.94
114.17118,427.85,556.59
114.19169,429.58,557.93
114.21202,429.26,555.91
114.23258,430.23,555.33
114.25176,430.02,555.36
114.27251,430.22,556.24
114.29102,429.39,554.45
114.31273,427.81,554.77
114.33130,428.58,555.20
114.35148,428.08,555.71
114.37298,428.49,556.21
114.39180,430.70,554.26
114.41213,428.39,553.57
114.43285,430.51,554.91
114.45112,429.99,553.44
114.47167,429.44,555.05
114.49189,429.05,554.30
114.51278,430.67,553.53
114.53134,429.10,557.20
114.55110,428.01,553.78
114.57295,429.04,557.25
114.59149,433.39,554.71
114.61271,434.90,556.36
114.63273,434.57,555.78
114.65128,435.33,557.13
114.67221,433.22,554.28
114.69299,433.56,556.90
114.71117,432.99,554.50
114.73234,432.68,554.38
114.75114,434.80,556.43
114.77129,433.81,553.04
114.79107,434.94,555.87
114.81274,431.17,555.68
114.83111,431.95,557.89
114.85274,432.07,557.16
114.87182,434.63,558.85
114.89293,431.13,557.82
114.91183,433.99,558.55
114.93104,431.87,556.63
114.95153,435.17,553.90
114.97225,435.52,554.40
114.99173,435.94,553.48
115.01117,432.99,552.18
115.03257,435.69,552.01
115.05200,431.46,551.77
115.07200,434.32,551.33
115.09175,432.67,549.99
115.11279,430.93,548.93
115.13223,433.63,548.55
115.15121,433.27,550.81
115.17114,433.82,547.89
115.19155,433.41,548.67
115.21249,431.86,551.26
115.23135,434.51,549.00
115.25136,432.20,549.12
115.27111,432.88,551.92
115.29294,433.16,551.41
115.31244,434.62,554.03
115.33264,432.45,551.61
115.35138,434.25,554.84
115.37245,435.61,555.87
115.39113,433.54,553.64
115.41141,436.30,556.00
115.43100,436.60,555.52
115.45120,437.93,553.72
115.47227,437.11,555.30
115.49234,438.29,554.07
115.51199,437.55,552.55
115.53214,436.56,554.13
115.55226,436.15,554.69
115.57160,436.16,553.53
115.59202,437.96,551.68
115.61174,438.50,555.45
115.63282,437.29,552.10
115.65151,436.53,553.54
115.67206,436.57,553.27
115.69177,436.86,551.91
115.71280,438.54,550.24
115.73135,438.90,553.37
115.75202,437.68,551.52
115.77164,439.52,555.29
115.79188,438.05,553.98
115.81165,437.88,552.56
115.83290,437.49,551.58
115.85114,437.71,552.58
115.87247,438.77,552.74
115.89154,439.34,553.36
115.91241,437.18,556.48
115.93197,439.50,557.01
115.95126,438.85,553.63
115.97263,439.41,556.97
115.99220,437.61,554.77
116.01283,441.38,555.40
116.03153,438.63,556.39
116.05122,441.57,554.52
116.07258,442.69,554.18
116.09204,440.69,553.52
116.11266,439.60,554.97
116.13271,437.99,550.13
116.15362,439.10,552.00
116.17295,440.92,554.57
116.19247,441.39,553.72
116.21267,442.06,554.57
116.23343,442.91,557.56
116.25278,440.65,555.77
116.27336,443.00,552.87
116.29371,439.21,553.08
116.31260,442.18,550.21
116.33206,442.17,548.73
116.35352,441.75,548.61
116.37354,445.02,553.05
116.39363,458.16,558.76
116.41223,478.02,570.66
116.43250,499.44,583.41
116.45376,520.06,591.35
116.47335,540.60,601.47
116.49238,560.61,603.96
116.51241,573.06,601.40
116.53286,579.33,598.11
116.55230,580.50,590.02
116.57362,579.78,582.24
116.59384,573.38,573.45
116.61376,565.44,564.44
116.63327,557.43,557.96
116.65289,548.03,553.04
116.67357,536.80,550.47
116.69281,528.86,549.45
116.71269,518.67,548.01
116.73328,511.59,547.25
116.75383,499.59,548.20
116.77241,494.10,549.67
116.79331,486.08,551.98
116.81228,481.25,552.01
116.83282,473.20,553.31
116.85367,470.41,552.17
116.87400,466.87,554.05
116.89235,461.53,554.88
116.91254,460.15,556.57
116.93217,454.63,556.58
116.95306,452.55,557.40
116.97374,450.63,561.07
116.99268,449.79,562.42
117.01356,448.63,560.34
117.03383,445.21,561.83
117.05355,446.49,564.52
117.07367,448.06,564.07
117.09299,446.43,563.87
117.11225,444.25,564.27
117.13262,442.28,562.80
117.15350,441.12,563.77
117.17292,441.00,565.34
117.19309,444.06,564.68
117.21295,442.72,562.62
117.23355,444.60,562.45
117.25293,448.00,563.16
117.27258,444.74,564.33
117.29277,444.49,562.85
117.31331,439.25,560.49
117.33269,432.17,565.37
117.35287,414.34,562.68
117.37350,393.18,559.16
117.39311,367.22,556.09
117.41278,343.72,549.15
117.43380,323.38,540.82
117.45355,305.41,530.66
117.47400,293.11,524.57
117.49255,290.91,522.88
117.51397,296.16,520.17
117.53255,303.12,520.61
117.55245,310.96,520.76
117.57296,321.32,523.50
117.59323,331.48,527.46
117.61400,344.96,532.40
117.63308,352.41,538.54
117.65206,361.15,539.89
117.67260,372.82,543.66
117.69344,380.14,545.71
117.71208,387.86,548.16
117.73294,392.25,552.79
117.75291,398.48,555.07
117.77207,404.28,554.96
117.79399,408.37,559.86
117.81375,413.25,558.22
117.83277,414.41,558.23
117.85394,417.80,561.16
117.87305,422.50,559.68
117.89329,422.66,559.60
117.91337,425.48,558.60
117.93296,426.53,561.23
117.95397,427.54,558.83
117.97395,430.28,561.01
117.99318,430.49,561.82
118.01377,432.53,560.95
118.03341,433.40,559.89
118.05422,432.70,560.29
118.07376,431.29,559.25
118.09310,433.96,558.71
118.11450,435.63,559.88
118.13390,432.88,561.75
118.15466,432.77,560.11
118.17363,433.04,560.44
118.19325,432.32,560.53
118.21385,434.39,557.99
118.23303,433.66,559.34
118.25495,431.43,557.79
118.27481,434.53,557.56
118.29477,433.60,556.79
118.31490,435.16,558.63
118.33485,436.72,560.92
118.35389,434.89,559.68
118.37457,433.34,560.31
118.39495,435.12,560.32
118.41357,435.39,560.45
118.43328,432.59,560.24
118.45362,431.46,559.58
118.47417,431.29,560.58
118.49415,431.63,562.10
118.51460,431.08,562.72
118.53304,432.64,562.40
118.55382,432.80,561.28
118.57321,432.32,562.64
118.59314,432.76,559.33
118.61327,433.51,560.56
118.63456,435.37,558.03
118.65468,432.66,560.19
118.67467,435.05,559.69
118.69349,432.95,556.29
118.71392,433.30,556.21
118.73393,434.81,555.92
118.75352,434.47,557.22
118.77460,431.47,558.11
118.79394,432.30,557.17
118.81439,429.80,559.47
118.83454,433.71,556.92
118.85452,431.85,558.98
118.87387,430.74,557.36
118.89488,432.90,559.81
118.91434,431.88,560.83
118.93368,430.70,557.89
118.95307,433.04,560.38
118.97361,430.40,559.42
118.99361,430.81,557.88
119.01470,431.56,561.04
119.03407,433.43,557.91
119.05538,432.28,560.56
119.07508,432.47,556.98
119.09449,433.54,558.69
119.11583,431.03,559.16
119.13565,431.02,562.38
119.15574,430.60,559.80
119.17485,430.55,564.07
119.19583,431.17,562.89
119.21573,428.40,563.88
119.23490,430.23,561.52
119.25418,427.93,561.23
119.27516,427.84,558.66
119.29586,428.65,558.48
119.31494,424.08,560.27
119.33444,425.53,557.65
119.35556,425.25,560.30
119.37414,424.51,555.83
119.39461,422.89,558.36
119.41406,424.88,558.05
119.43464,425.55,555.79
119.45554,423.96,554.64
119.47488,424.50,556.89
119.49458,425.63,553.81
119.51518,425.92,557.13
119.53416,428.73,556.03
119.55451,426.63,551.76
119.57410,424.49,553.15
119.59573,426.20,551.56
119.61581,422.97,554.71
119.63530,423.63,554.83
119.65474,425.14,555.06
119.67546,425.61,553.55
119.69448,426.09,555.79
119.71583,426.15,555.81
119.73485,427.52,553.90
119.75536,424.73,555.45
119.77414,426.05,553.59
119.79549,422.96,554.20
119.81468,426.56,555.54
119.83518,425.29,551.34
119.85566,425.77,553.11
119.87593,423.20,554.75
119.89438,426.67,553.22
119.91548,423.38,553.57
119.93555,426.80,554.72
119.95570,424.13,555.74
119.97434,428.58,555.89
119.99568,445.29,562.83
120.01493,462.34,570.57
120.03592,490.40,583.64
120.05527,515.91,596.51
120.07463,539.46,607.02
120.09563,561.95,610.55
120.11564,575.73,611.04
120.13577,579.96,608.89
120.15481,579.91,601.29
120.17517,575.83,593.80
120.19458,570.13,585.32
120.21421,560.18,577.18
120.23552,549.48,569.12
120.25472,536.67,559.59
120.27431,525.17,553.39
120.29458,515.52,550.40
120.31587,502.51,545.34
120.33523,494.63,546.13
120.35506,484.38,544.64
120.37423,474.79,548.20
120.39484,467.85,545.29
120.41561,459.24,546.76
120.43455,455.74,548.56
120.45487,449.66,550.22
120.47420,444.97,550.03
120.49444,443.77,551.11
120.51582,437.03,554.96
120.53448,435.14,553.85
120.55424,431.56,553.99
120.57467,432.27,557.06
120.59598,428.77,554.80
120.61462,428.83,558.44
120.63478,426.49,558.92
120.65585,426.68,560.14
120.67531,424.99,560.65
120.69458,425.37,559.10
120.71550,423.52,562.33
120.73564,419.40,558.72
120.75453,420.29,562.04
120.77598,423.46,559.30
120.79464,422.03,560.24
120.81497,422.60,557.39
120.83411,421.12,558.16
120.85579,420.47,558.86
120.87556,416.43,561.71
120.89489,404.54,559.91
120.91418,384.24,562.23
120.93557,364.90,560.69
120.95580,340.84,556.62
120.97488,321.62,552.67
120.99423,301.20,541.31
121.01531,284.75,532.91
121.03493,274.87,523.79
121.05427,275.17,518.69
121.07594,278.84,519.85
121.09573,285.84,519.91
121.11400,295.73,518.25
121.13436,306.81,520.94
121.15556,315.89,523.92
121.17501,327.16,525.80
121.19518,338.97,530.05
121.21550,349.42,532.00
121.23492,356.83,534.39
121.25517,368.34,541.41
121.27565,374.26,543.28
121.29540,379.58,545.55
121.31426,385.34,545.28
121.33486,389.38,548.49
121.35517,392.63,549.32
121.37574,398.15,548.21
121.39580,401.32,548.70
121.41532,403.99,551.67
121.43547,405.67,552.08
121.45477,408.48,549.97
121.47555,408.80,550.99
121.49534,410.80,550.05
121.51580,413.42,552.42
121.53416,413.58,549.63
121.55492,413.59,552.30
121.57414,414.96,549.93
121.59410,413.88,552.11
121.61497,417.67,549.72
121.63452,416.28,553.54
121.65415,419.61,553.14
121.67552,417.89,552.63
121.69586,417.30,552.04
121.71589,416.67,551.42
121.73446,416.81,550.28
121.75457,417.98,549.59
121.77435,417.17,550.24
121.79487,415.18,547.65
121.81582,418.58,551.08
121.83533,418.29,547.05
121.85537,418.73,547.35
121.87551,417.96,545.56
121.89500,420.52,547.79
121.91668,419.56,546.87
121.93641,419.32,547.17
121.95653,420.46,549.02
121.97549,420.28,551.08
121.99638,420.38,550.49
122.01509,423.61,552.74
122.03614,422.68,553.16
122.05690,422.34,551.76
122.07644,424.91,550.66
122.09623,423.97,552.37
122.11618,423.16,552.80
122.13638,425.82,552.43
122.15602,423.04,550.58
122.17762,426.19,551.23
122.19739,426.11,552.10
122.21733,425.30,551.42
122.23731,420.71,550.86
122.25753,421.04,553.39
122.27754,421.13,551.07
122.29733,421.91,554.07
122.31706,422.01,555.84
122.33831,426.33,555.49
122.35737,424.87,553.55
122.37710,427.18,553.05
122.39620,427.73,553.75
122.41752,424.06,554.71
122.43715,424.89,551.86
122.45689,427.35,553.00
122.47733,426.56,553.63
122.49775,424.91,552.81
122.51685,425.49,553.14
122.53656,425.33,552.83
122.55797,425.51,552.73
122.57765,423.62,556.79
122.59782,427.74,554.70
122.61745,427.78,555.34
122.63746,426.69,554.81
122.65642,428.32,554.96
122.67703,427.96,556.79
122.69635,426.94,556.62
122.71683,426.56,557.14
122.73798,428.82,557.70
122.75779,428.25,554.44
122.77760,426.81,556.48
122.79753,428.82,557.74
122.81642,428.14,556.02
122.83766,428.29,556.85
122.85686,426.25,554.71
122.87756,429.84,555.45
122.89788,428.77,555.17
122.91722,428.48,555.25
122.93650,429.97,553.38
122.95784,430.90,555.32
122.97697,429.78,555.19
122.99611,426.71,557.19
123.01666,427.28,555.99
123.03636,429.83,558.02
123.05777,430.36,555.43
123.07637,432.33,558.51
123.09644,430.36,557.34
123.11793,430.19,554.55
123.13645,433.22,555.85
123.15818,434.09,557.72
123.17715,431.85,553.81
123.19752,435.63,553.49
123.21860,434.31,554.34
123.23888,435.43,552.34
123.25855,435.84,553.74
123.27830,437.06,551.20
123.29748,437.23,553.13
123.31763,433.75,554.41
123.33821,434.04,554.12
123.35799,436.34,553.62
123.37828,435.77,552.74
123.39780,437.16,554.65
123.41817,439.00,554.65
123.43748,438.31,556.10
123.45705,444.95,560.18
123.47771,465.44,566.79
123.49778,489.96,578.99
123.51846,521.38,592.70
123.53819,546.26,601.36
123.55817,563.66,604.67
123.57754,577.25,603.20
123.59718,584.77,595.62
123.61763,586.08,590.88
123.63800,582.61,580.81
123.65813,576.66,574.17
123.67836,566.74,567.29
123.69812,557.70,561.29
123.71762,549.29,554.04
123.73829,535.74,550.42
123.75884,527.57,548.78
123.77818,517.71,545.77
123.79700,507.64,544.02
123.81750,501.41,544.22
123.83895,491.26,542.68
123.85756,484.87,546.82
123.87858,479.68,547.00
123.89827,473.25,548.72
123.91823,468.43,549.13
123.93851,463.92,550.32
123.95736,460.52,551.41
123.97745,460.06,554.19
123.99770,456.66,553.65
124.01861,453.37,554.92
124.03769,447.91,554.07
124.05883,444.85,556.64
124.07889,446.08,556.03
124.09735,445.27,556.81
124.11777,444.00,558.35
124.13730,443.23,557.80
124.15767,442.90,554.87
124.17741,443.73,556.44
124.19720,443.32,558.41
124.21766,439.57,556.55
124.23894,443.06,556.52
124.25865,439.88,554.36
124.27741,440.04,559.02
124.29827,432.79,563.81
124.31883,420.75,575.45
124.33830,403.49,588.62
124.35722,387.50,592.60
124.37900,365.17,586.57
124.39754,341.94,577.12
124.41869,318.61,556.59
124.43867,305.70,542.54
124.45900,294.36,526.50
124.47860,293.83,518.13
124.49744,296.94,514.52
124.51724,304.68,507.69
124.53753,314.52,506.99
124.55823,328.18,507.57
124.57778,336.89,511.42
124.59817,348.87,513.02
124.61762,357.47,517.87
124.63921,366.63,521.76
124.65936,375.99,525.71
124.67849,385.02,529.72
124.69920,391.74,532.00
124.71853,401.67,538.38
124.73837,405.90,540.39
124.75940,413.65,543.57
124.77979,414.86,546.96
124.79894,420.58,549.27
124.81837,426.09,549.39
124.83972,424.88,549.67
124.85946,425.95,550.81
124.87874,430.90,554.71
124.89826,429.43,555.48
124.91809,433.99,553.79
124.93995,435.76,555.47
124.95943,434.32,557.62
124.97919,435.87,555.20
124.99870,435.25,556.23
125.01870,435.23,558.40
125.03987,435.69,557.36
125.05866,438.21,558.24
125.07981,439.61,557.01
125.09866,437.91,557.55
125.11861,442.20,557.36
125.13993,440.21,556.23
125.15853,440.45,557.64
125.17864,440.97,559.91
125.19853,441.26,559.80
125.21843,444.21,560.42
125.23838,444.22,561.18
125.25891,444.31,558.61
125.27934,443.52,558.33
125.29980,444.60,560.01
125.31854,445.03,561.51
125.33879,442.21,561.22
125.35890,444.76,557.33
125.37858,444.01,557.00
125.39992,443.81,557.93
125.41950,445.43,557.00
125.43840,442.27,557.53
125.45831,444.21,559.13
125.47939,444.70,555.75
125.49811,442.53,559.70
125.51987,441.35,557.99
125.53913,443.17,558.72
125.55857,446.93,558.70
125.57900,447.56,557.07
125.59931,447.18,557.06
125.61865,446.25,556.29
125.63840,444.59,557.20
125.65830,445.74,556.87
125.67871,441.79,558.38
125.69965,444.77,558.68
125.71877,440.17,556.05
125.73853,442.78,559.59
125.75842,441.60,557.00
125.77904,439.74,559.19
125.79856,442.44,559.80
125.81967,441.18,556.82
125.83955,442.06,558.48
125.85907,441.44,556.44
125.87932,442.58,555.55
125.89925,438.85,559.46
125.91812,441.07,555.67
125.93958,441.94,557.54
125.95993,439.98,556.23
125.97834,441.27,560.26
125.99891,440.06,560.59
126.01847,437.53,560.75
126.03917,438.36,559.95
126.05891,437.15,561.50
126.07866,439.81,560.07
126.09826,439.51,561.70
126.11847,438.58,561.01
126.13915,437.26,559.65
126.15872,438.89,557.86
126.17840,439.52,561.05
126.19874,437.86,558.13
126.21908,438.66,557.65
126.23842,439.51,559.68
126.25833,437.30,557.67
126.27862,436.90,555.36
126.29971,438.05,556.98
126.31969,437.09,558.01
126.33999,438.13,556.70
126.35895,438.63,557.19
126.37834,439.88,556.80
126.39804,440.50,558.26
126.41894,440.24,558.85
126.44008,440.12,557.68
126.46031,438.69,558.72
126.47906,443.30,556.14
126.49960,439.94,556.39
126.52106,442.87,559.07
126.54125,438.02,557.54
126.56053,437.71,556.65
126.58031,435.70,557.63
126.60107,437.61,559.06
126.62083,435.40,557.05
126.64166,435.69,555.79
126.66053,436.28,558.12
126.68092,432.44,558.93
126.70017,434.36,557.98
126.72198,436.83,556.60
126.74098,435.80,555.96
126.76145,435.97,557.62
126.78063,434.87,558.18
126.80169,434.41,555.23
126.82037,431.39,554.79
126.84003,433.15,557.69
126.86177,430.01,557.74
126.88214,430.71,555.44
126.90172,429.21,555.77
126.92177,429.08,555.02
126.94238,430.26,553.31
126.96200,428.18,552.71
126.98123,430.35,552.00
127.00296,430.85,554.88
127.02287,429.26,557.64
127.04270,430.33,557.41
127.06198,431.14,558.07
127.08208,442.34,565.02
127.10299,463.16,577.62
127.12253,486.24,592.62
127.14146,509.53,599.77
127.16271,535.92,604.82
127.18276,556.26,603.85
127.20229,568.96,603.32
127.22112,574.44,595.47
127.24293,573.98,587.18
127.26291,570.67,583.44
127.28229,563.61,575.40
127.30395,555.13,569.19
127.32307,545.85,560.85
127.34338,536.33,555.69
127.36352,524.39,553.04
127.38340,516.18,551.95
127.40386,505.34,549.22
127.42241,494.11,549.22
127.44323,486.46,550.31
127.46362,474.33,550.23
127.48357,470.69,551.69
127.50202,462.29,551.60
127.52288,455.05,554.22
127.54336,452.39,553.97
127.56210,448.87,555.76
127.58224,446.42,553.86
127.60275,438.21,556.44
127.62250,437.12,557.96
127.64215,433.52,556.71
127.66315,433.73,558.40
127.68253,429.74,558.05
127.70366,430.42,554.93
127.72359,427.84,557.66
127.74336,424.24,554.66
127.76245,426.12,555.23
127.78271,424.31,555.36
127.80264,423.44,557.98
127.82207,421.72,557.46
127.84305,423.11,557.13
127.86256,419.09,557.23
127.88248,411.12,561.19
127.90372,395.05,562.82
127.92362,375.11,564.23
127.94432,353.71,556.32
127.96416,331.28,549.15
127.98322,308.86,536.50
128.00342,288.76,525.95
128.02404,280.06,515.71
128.04468,278.48,512.49
128.06310,279.48,508.83
128.08309,284.67,508.68
128.10388,294.52,512.77
128.12308,306.70,514.24
128.14447,317.90,520.48
128.16470,328.52,522.83
128.18349,338.08,526.29
128.20494,348.03,530.95
128.22409,356.41,532.81
128.24570,363.66,537.96
128.26504,372.04,542.12
128.28546,375.12,544.92
128.30672,384.11,548.30
128.32579,388.88,546.66
128.34593,392.89,548.06
128.36552,396.18,550.79
128.38596,398.62,548.57
128.40628,402.59,550.96
128.42558,405.67,551.29
128.44676,407.26,551.60
128.46648,408.48,553.86
128.48616,410.05,553.96
128.50531,412.49,555.13
128.52607,412.11,553.10
128.54688,415.38,555.54
128.56679,412.65,553.44
128.58580,413.82,554.07
128.60565,414.78,552.96
128.62627,416.86,554.83
128.64544,418.57,555.16
128.66556,420.38,554.46
128.68628,420.30,555.04
128.70644,422.09,555.41
128.72581,419.49,557.33
128.74555,420.49,557.97
128.76657,420.89,554.28
128.78613,423.69,555.25
128.80609,423.67,553.94
128.82598,421.97,555.04
128.84632,420.49,553.72
128.86671,423.01,554.54
128.88623,420.99,557.02
128.90631,423.21,557.10
128.92684,421.54,557.90
128.94636,421.39,557.19
128.96599,423.72,557.11
128.98670,422.62,558.67
129.00507,423.31,557.63
129.02535,424.21,559.16
129.04563,424.88,559.41
129.06609,425.61,560.06
129.08577,425.33,556.17
129.10526,428.07,556.99
129.12642,427.14,559.09
129.14525,425.32,557.89
129.16501,425.92,557.28
129.18666,424.61,554.99
129.20510,426.68,556.09
129.22666,425.92,556.36
129.24556,422.86,557.20
129.26636,423.45,555.68
129.28644,423.87,559.82
129.30631,423.53,557.17
129.32640,423.85,557.90
129.34789,425.53,555.44
129.36595,426.89,555.69
129.38637,423.69,554.27
129.40751,429.14,556.89
129.42770,427.71,555.32
129.44845,430.79,554.18
129.46715,429.07,554.55
129.48896,432.46,553.97
129.50832,430.42,557.33
129.52736,430.88,554.98
129.54813,431.58,553.39
129.56658,432.56,554.05
129.58842,432.52,557.08
129.60854,433.30,554.47
129.62869,434.74,555.93
129.64756,432.10,556.69
129.66697,432.68,554.05
129.68725,435.26,556.35
129.70743,434.78,557.71
129.72732,434.76,556.99
129.74755,434.87,558.40
129.76804,437.29,560.11
129.78843,437.14,560.21
129.80837,435.05,559.59
129.82918,435.12,560.08
129.84834,437.70,558.58
129.86991,439.73,554.52
129.88974,441.57,555.19
129.90968,442.56,557.33
129.92962,440.78,556.98
129.94814,441.51,557.71
129.96841,440.74,555.36
129.98840,442.07,553.93
130.00814,438.36,554.55
130.02980,439.01,553.56
130.04835,435.05,553.34
130.06803,438.18,554.79
130.08961,437.57,554.06
130.11081,437.51,553.93
130.13034,440.13,556.24
130.14960,439.81,554.92
130.17019,439.84,551.37
130.18970,441.64,552.95
130.20923,441.67,553.87
130.23053,445.12,556.37
130.25057,443.99,555.08
130.27161,441.99,555.98
130.29168,444.94,556.40
130.31058,444.75,555.96
130.33132,442.70,554.40
130.35157,445.40,555.38
130.37138,443.57,556.30
130.39186,443.70,555.84
130.41080,442.08,555.86
130.43199,444.21,556.87
130.45147,442.73,558.99
130.47132,443.27,558.72
130.49144,441.85,557.89
130.51118,443.99,557.96
130.53146,443.19,560.31
130.55001,442.20,559.20
130.57070,442.33,556.48
130.59154,443.63,560.35
130.61087,443.97,558.68
130.63090,442.11,559.15
130.65030,446.02,560.32
130.67070,443.27,558.98
130.69090,446.02,559.11
130.71134,446.20,558.53
130.73012,445.59,556.82
130.75107,444.88,557.12
130.77005,444.05,557.34
130.79053,443.95,555.19
130.81084,445.35,557.30
130.83028,444.86,558.07
130.85046,442.09,557.14
130.87172,441.40,558.17
130.89083,443.94,555.75
130.91074,443.78,555.33
130.93005,444.38,557.69
130.95148,443.29,558.67
130.97158,448.52,560.99
130.99125,462.62,568.77
131.01049,484.74,577.85
131.03110,512.78,590.28
131.05193,539.12,600.44
131.07046,560.00,607.06
131.09084,576.12,604.93
131.11024,585.84,603.63
131.13130,587.98,600.43
131.15163,587.56,592.14
131.17059,579.24,586.79
131.19057,572.73,578.94
131.21060,562.99,572.98
131.23156,556.19,565.81
131.25121,544.65,562.88
131.27078,534.44,559.01
131.29196,526.37,556.94
131.31057,516.29,555.73
131.33166,508.17,554.06
131.35094,495.47,556.05
131.37027,488.71,554.06
131.39115,484.49,559.49
131.41069,479.98,558.76
131.43120,473.21,560.03
131.45108,468.91,556.98
131.47091,466.10,557.47
131.49083,462.88,559.57
131.51088,457.86,562.26
131.53057,457.86,561.54
131.55015,454.97,557.74
131.57088,452.95,559.80
131.59065,450.18,559.79
131.61060,448.22,561.90
131.63035,445.82,561.21
131.65053,448.33,561.22
131.67053,446.94,560.66
131.69051,445.33,558.77
131.71071,446.70,559.44
131.73282,443.57,556.25
131.75191,443.55,556.47
131.77293,442.99,555.44
131.79157,441.12,557.28
131.81194,442.79,558.09
131.83113,443.94,559.90
131.85043,443.33,556.43
131.87204,442.03,560.43
131.89102,441.98,559.70
131.91236,441.56,558.30
131.93149,438.67,559.84
131.95062,438.28,560.47
131.97271,441.27,558.47
131.99244,440.28,559.11
132.01146,440.77,562.44
132.03065,433.21,566.93
132.05142,422.91,573.47
132.07201,411.10,585.54
132.09103,392.46,591.52
132.11226,369.00,592.14
132.13138,346.10,586.58
132.15233,327.67,570.75
132.17201,308.91,553.75
132.19171,296.06,541.86
132.21179,294.48,531.35
132.23179,297.41,523.82
132.25118,303.96,519.82
132.27138,314.80,518.38
132.29154,325.23,519.24
132.31169,333.39,520.70
132.33152,344.93,521.36
132.35204,357.18,521.40
132.37345,365.09,524.90
132.39390,369.73,526.71
132.41358,377.17,529.95
132.43363,385.31,533.29
132.45455,389.66,535.26
132.47379,397.63,537.46
132.49468,401.89,539.35
132.51418,403.34,540.18
132.53306,408.19,542.87
132.55399,407.65,543.23
132.57427,411.65,545.19
132.59428,413.98,544.93
132.61582,412.93,546.36
132.63563,416.46,547.27
132.65498,416.47,545.76
132.67534,416.71,547.67
132.69597,419.32,545.43
132.71449,418.13,547.10
132.73414,420.40,547.55
132.75442,420.21,548.42
132.77406,420.79,550.73
132.79414,423.80,551.03
132.81517,423.57,550.32
132.83579,423.63,548.39
132.85442,424.01,549.74
132.87462,424.40,549.64
132.89475,421.26,551.52
132.91564,422.93,550.60
132.93412,423.70,550.60
132.95573,425.91,551.83
132.97544,424.71,550.48
132.99404,422.81,553.96
133.01403,424.98,553.86
133.03352,422.84,553.13
133.05494,422.06,554.64
133.07457,422.61,556.87
133.09436,421.16,556.69
133.11449,420.85,555.08
133.13415,421.64,553.82
133.15558,420.84,557.08
133.17485,422.61,556.31
133.19454,421.21,554.50
133.21591,421.34,554.73
133.23333,420.66,553.72
133.25461,419.97,554.57
133.27515,423.01,555.04
133.29556,423.69,555.97
133.31438,418.12,555.44
133.33540,416.81,559.50
133.35491,414.65,562.48
133.37575,415.01,561.53
133.39511,415.83,562.71
133.41429,414.20,561.31
133.43454,413.16,562.81
133.45500,413.70,558.08
133.47490,412.07,560.72
133.49553,413.63,558.83
133.51430,413.86,554.89
133.53518,414.93,555.11
133.55425,418.19,552.47
133.57404,417.53,551.68
133.59506,417.05,550.22
133.61589,417.02,549.38
133.63548,419.28,553.56
133.65474,417.63,550.29
133.67564,418.93,549.22
133.69513,420.39,548.93
133.71501,417.38,550.84
133.73442,417.66,548.51
133.75449,417.33,552.30
133.77482,418.98,550.52
133.79553,417.14,554.55
133.81567,418.38,555.59
133.83421,418.20,553.16
133.85598,418.72,554.99
133.87567,419.04,552.97
133.89544,422.09,556.57
133.91510,420.56,557.28
133.93561,421.08,558.10
133.95439,421.75,555.89
133.97373,420.71,559.00
133.99497,421.48,558.25
134.01530,418.43,545.21
134.03433,411.98,527.86
134.05598,409.82,503.56
134.07439,404.14,484.91
134.09446,404.55,472.92
134.11391,402.09,464.30
134.13529,396.94,459.61
134.15570,395.02,459.13
134.17483,395.76,463.88
134.19541,394.58,465.12
134.21438,395.68,471.69
134.23553,398.51,484.00
134.25482,401.09,496.73
134.27513,404.89,504.43
134.29544,408.15,516.02
134.31313,409.97,525.34
134.33336,413.25,525.22
134.35434,413.05,531.44
134.37523,410.93,551.83
134.39593,410.81,567.64
134.41481,412.49,580.76
134.43491,412.36,584.07
134.45485,412.03,585.52
134.47511,412.68,585.64
134.49453,414.37,576.51
134.51446,414.33,572.69
134.53516,417.31,578.76
134.55409,417.21,578.56
134.57429,417.00,569.42
134.59564,419.87,565.39
134.61573,417.50,572.68
134.63521,419.75,575.83
134.65376,422.57,571.59
134.67472,423.33,584.62
134.69467,419.99,582.46
134.71442,430.58,581.48
134.73434,431.54,594.31
134.75329,431.89,595.02
134.77595,430.36,579.91
134.79524,434.19,593.99
134.81428,428.58,578.84
134.83387,430.05,555.96
