Program Time [s],data 0,data 1
19.70646,394.59,517.30
19.72757,392.38,519.23
19.74742,394.83,517.43
19.76756,392.24,517.95
19.78635,394.66,519.19
19.80669,391.86,516.12
19.82666,390.85,516.16
19.84595,392.30,517.84
19.86790,393.04,521.46
19.88683,391.72,518.74
19.90606,393.35,519.81
19.92638,396.05,518.88
19.94664,396.58,519.44
19.96742,398.61,517.98
19.98681,396.95,520.68
20.00735,399.12,519.31
20.02718,397.42,521.15
20.04780,399.87,520.10
20.06672,397.30,522.04
20.08757,399.88,522.08
20.10664,397.68,521.48
20.12615,397.26,520.86
20.14729,398.51,521.02
20.16599,398.58,521.52
20.18733,400.18,522.30
20.20758,399.81,523.62
20.22613,399.47,523.03
20.24708,398.72,519.32
20.26703,397.40,522.35
20.28742,400.73,521.63
20.30703,400.17,522.95
20.32788,398.23,522.58
20.34793,398.30,524.27
20.36680,397.21,522.86
20.38727,398.08,523.55
20.40771,396.68,519.71
20.42649,397.48,523.05
20.44711,397.90,519.96
20.46601,396.54,520.32
20.48596,397.97,516.94
20.50760,397.22,518.40
20.52737,397.95,516.61
20.54741,396.44,519.94
20.56591,399.63,518.60
20.58780,399.38,515.57
20.60618,397.10,517.87
20.62740,395.67,517.05
20.64738,397.37,518.56
20.66766,395.92,519.33
20.68698,396.27,517.33
20.70636,393.46,516.66
20.72711,394.01,518.15
20.74764,392.53,516.81
20.76673,401.34,516.35
20.78656,414.73,521.71
20.80757,430.68,522.04
20.82582,453.25,523.21
20.84865,471.53,527.79
20.86881,491.78,529.36
20.88946,502.59,529.03
20.90947,515.23,532.06
20.93064,519.27,529.52
20.95048,521.01,526.09
20.97058,518.58,525.28
20.99178,513.87,524.34
21.01172,508.33,523.66
21.03190,501.35,520.60
21.05126,497.50,518.53
21.07331,488.99,519.84
21.09210,479.25,522.10
21.11351,472.45,521.96
21.13341,466.97,523.73
21.15307,458.33,522.55
21.17282,454.21,523.22
21.19419,448.37,525.05
21.21463,442.08,526.20
21.23287,436.40,524.40
21.25288,433.96,526.59
21.27362,426.71,527.05
21.29473,424.13,526.84
21.31502,423.26,527.21
21.33319,419.77,529.74
21.35297,419.08,528.18
21.37364,420.43,527.81
21.39403,417.48,527.86
21.41432,418.40,528.14
21.43370,416.69,526.41
21.45408,414.77,525.81
21.47413,415.47,529.19
21.49296,412.92,527.52
21.51412,413.01,524.94
21.53463,412.17,528.34
21.55353,413.82,528.77
21.57330,412.00,527.36
21.59416,412.44,524.68
21.61314,411.23,524.78
21.63311,411.82,526.33
21.65450,410.09,526.94
21.67541,410.43,524.43
21.69555,407.59,525.33
21.71567,408.04,526.60
21.73571,405.50,525.41
21.75518,407.34,525.37
21.77528,404.40,525.16
21.79576,394.39,527.28
21.81609,381.78,529.47
21.83616,359.53,528.09
21.85529,341.41,525.86
21.87506,318.54,520.91
21.89680,295.54,516.25
21.91670,275.94,504.36
21.93689,262.17,498.20
21.95713,256.66,493.00
21.97957,256.34,489.23
21.99962,263.11,489.23
22.01882,270.37,488.86
22.03958,279.10,489.75
22.05851,292.97,491.82
22.07833,301.04,494.77
22.09930,310.89,496.13
22.11937,321.85,501.44
22.13980,331.92,503.99
22.15882,341.56,504.13
22.17958,345.92,507.01
22.19789,353.29,511.97
22.21927,356.40,513.67
22.23924,364.19,513.46
22.26078,366.58,513.85
22.27886,373.90,516.66
22.29894,377.41,516.17
22.31975,379.18,518.03
22.34015,384.43,517.23
22.35922,387.38,517.53
22.38031,387.56,519.48
22.40012,389.32,521.05
22.41881,390.42,517.69
22.44042,392.14,520.25
22.45985,391.19,520.06
22.47997,390.97,521.44
22.50072,393.84,522.71
22.51985,393.88,524.86
22.53942,395.97,524.71
22.55964,396.57,521.26
22.58009,394.88,523.74
22.60032,394.27,524.68
22.62005,395.66,522.99
22.63950,396.65,519.06
22.66038,395.08,520.15
22.68047,396.99,523.43
22.70053,395.11,523.07
22.71994,395.88,522.78
22.73998,395.67,520.08
22.75948,396.16,519.78
22.78020,393.59,519.54
22.79986,394.10,518.92
22.82019,395.29,521.05
22.84001,395.31,523.90
22.86064,394.97,521.76
22.87936,393.67,521.40
22.89905,393.67,522.95
22.91967,392.98,521.77
22.94038,395.56,520.75
22.95943,395.11,521.95
22.98102,394.98,521.89
23.00116,392.84,521.47
23.02179,395.06,518.91
23.04143,392.75,519.59
23.06238,393.32,520.66
23.08335,394.17,519.43
23.10260,394.84,521.02
23.12218,395.32,518.09
23.14454,394.47,518.31
23.16346,394.08,518.85
23.18387,394.09,515.98
23.20296,394.51,517.04
23.22366,394.70,516.24
23.24407,395.32,518.47
23.26361,394.93,515.06
23.28342,397.86,517.35
23.30430,397.55,517.70
23.32423,397.43,516.54
23.34361,395.54,516.11
23.36365,394.85,514.08
23.38425,396.00,515.66
23.40311,395.83,515.28
23.42422,396.31,513.19
23.44354,393.23,515.72
23.46327,395.44,514.94
23.48291,391.48,512.97
23.50447,394.01,513.62
23.52478,394.16,514.87
23.54305,393.88,515.98
23.56347,395.47,517.01
23.58434,392.63,515.29
23.60276,393.97,515.23
23.62309,393.98,517.23
23.64326,395.14,519.18
23.66426,394.51,518.85
23.68345,397.31,519.81
23.70295,393.74,518.90
23.72342,397.73,521.08
23.74343,395.65,520.26
23.76448,396.34,517.20
23.78437,394.74,519.17
23.80287,395.38,519.25
23.82286,393.96,517.37
23.84480,397.84,516.59
23.86294,396.06,516.68
23.88388,394.97,515.38
23.90297,397.53,517.06
23.92360,397.56,515.33
23.94489,394.24,514.94
23.96470,396.03,518.05
23.98415,392.92,517.98
24.00359,396.07,514.81
24.02462,396.91,516.39
24.04441,397.38,517.83
24.06479,396.75,516.74
24.08451,397.90,515.71
24.10457,398.91,514.96
24.12648,397.44,514.33
24.14652,397.42,513.89
24.16547,399.38,516.36
24.18642,399.43,516.59
24.20622,398.37,516.51
24.22572,400.73,518.58
24.24542,401.19,517.25
24.26652,400.75,518.38
24.28551,398.18,518.76
24.30604,401.99,517.92
24.32640,399.53,520.11
24.34671,399.88,516.83
24.36617,399.70,518.73
24.38611,402.17,517.36
24.40636,399.57,520.30
24.42790,402.41,517.33
24.44755,404.87,517.81
24.46789,404.12,517.19
24.48797,406.45,520.57
24.50842,414.59,522.42
24.52737,429.24,529.97
24.54808,450.70,538.12
24.56734,473.58,549.88
24.58842,498.48,558.12
24.60780,518.86,562.87
24.62875,535.86,558.76
24.64715,546.02,557.85
24.66715,550.90,549.95
24.68755,546.48,541.29
24.70699,543.93,532.43
24.72867,532.35,526.60
24.74878,525.85,518.21
24.76694,516.03,512.50
24.78736,504.10,509.66
24.80856,494.59,504.61
24.82843,487.74,504.48
24.84835,478.24,502.53
24.86737,470.54,500.79
24.88829,460.96,504.33
24.90727,454.99,503.11
24.92802,450.30,506.39
24.94818,442.60,509.53
24.96691,437.52,508.95
24.98737,434.25,511.59
25.00745,429.12,513.52
25.02731,423.52,514.82
25.04729,420.58,514.97
25.06719,418.69,514.19
25.08876,419.26,517.41
25.10715,418.95,517.17
25.12748,416.68,518.24
25.14755,413.86,520.38
25.16746,411.52,519.79
25.18815,409.02,521.38
25.20806,412.59,522.08
25.22713,411.27,520.82
25.24839,408.46,523.80
25.26822,411.26,525.02
25.28735,410.52,521.64
25.30824,409.12,525.34
25.32741,407.43,525.05
25.34723,407.65,522.48
25.36836,409.49,523.97
25.38787,402.74,525.57
25.40858,387.72,521.37
25.42787,371.83,519.45
25.44787,349.78,514.04
25.46761,326.59,509.62
25.48861,308.24,508.33
25.50791,290.13,506.62
25.52756,277.93,505.26
25.54723,265.50,504.50
25.56872,264.89,508.63
25.58923,267.73,506.06
25.60847,273.51,504.48
25.62974,280.78,507.08
25.64986,294.28,504.88
25.66841,303.52,508.11
25.68799,314.49,505.93
25.70939,324.50,509.19
25.72786,334.71,507.91
25.74990,345.72,508.77
25.76787,350.30,510.69
25.78864,359.14,511.95
25.80853,364.29,514.27
25.82814,370.04,514.82
25.84886,375.56,516.16
25.86938,380.21,518.06
25.88846,385.46,518.60
25.90868,386.68,519.05
25.92959,391.66,520.77
25.94989,393.72,518.45
25.96911,394.76,521.96
25.98990,397.45,522.07
26.00806,401.21,520.09
26.02895,401.55,520.25
26.04865,403.14,520.98
26.06845,402.40,521.70
26.08796,402.02,522.71
26.10822,405.15,521.04
26.12946,403.64,522.03
26.14944,406.39,524.80
26.16891,406.77,525.70
26.18907,406.06,522.13
26.20917,406.36,525.58
26.22947,405.46,526.93
26.24879,405.61,525.89
26.26792,407.84,525.13
26.28987,406.25,526.90
26.30880,404.85,524.80
26.32831,404.30,524.76
26.34835,404.48,526.69
26.36874,405.35,523.81
26.38940,407.87,526.99
26.40943,410.69,525.87
26.42862,407.96,526.68
26.44908,410.20,525.23
26.46941,407.23,527.86
26.48876,410.29,527.38
26.50881,406.59,527.00
26.52794,406.45,524.90
26.54963,406.64,524.36
26.56954,406.33,527.38
26.58934,406.89,526.78
26.60835,407.09,525.58
26.62857,406.83,524.29
26.64898,408.42,526.37
26.66799,408.37,526.84
26.68898,405.82,524.12
26.70896,407.50,527.16
26.72849,409.03,523.65
26.74814,407.49,525.46
26.76879,409.00,525.07
26.78866,409.83,522.71
26.80958,406.82,522.27
26.82948,410.46,524.54
26.84858,407.17,523.24
26.86793,407.03,523.88
26.88850,405.44,525.92
26.90963,407.11,524.62
26.92900,406.37,524.57
26.94912,409.41,524.82
26.96781,408.10,524.01
26.98905,408.75,524.94
27.00874,409.31,523.81
27.02787,409.05,525.64
27.04895,407.76,522.53
27.06899,408.10,525.31
27.08975,408.53,521.86
27.10826,406.21,521.86
27.12874,405.55,521.03
27.14873,408.35,521.08
27.16821,407.08,522.48
27.18893,410.24,524.06
27.20987,408.31,521.38
27.22957,410.47,523.47
27.24891,410.19,525.57
27.26996,408.84,525.26
27.28902,407.21,522.74
27.30990,406.63,524.66
27.32912,406.06,525.58
27.34958,404.65,526.36
27.37038,406.58,524.67
27.38986,406.51,525.78
27.41058,404.25,525.20
27.42907,405.83,521.58
27.45053,404.13,525.37
27.47013,407.34,524.67
27.49003,406.94,525.42
27.50966,406.73,525.03
27.53042,406.02,522.87
27.54913,404.47,525.23
27.56993,405.78,525.30
27.58975,405.02,525.53
27.60942,406.45,523.70
27.62997,403.46,523.92
27.65019,404.03,525.44
27.67076,404.00,524.81
27.69033,406.73,525.90
27.71000,406.13,528.77
27.72902,403.71,527.34
27.75072,404.05,526.51
27.76968,403.84,527.14
27.78949,407.54,525.15
27.81053,406.73,526.38
27.82977,405.69,527.28
27.84884,408.10,523.98
27.86964,408.79,527.05
27.89051,408.06,525.97
27.90895,405.04,525.71
27.92921,405.71,525.74
27.94889,406.43,523.51
27.96962,405.71,523.97
27.99058,409.87,523.22
28.01169,406.99,525.60
28.03117,405.62,525.25
28.05065,402.55,524.06
28.07096,403.25,524.18
28.09081,400.72,523.31
28.11136,401.07,523.05
28.12988,401.56,520.48
28.15149,399.25,521.50
28.17077,398.96,520.70
28.19054,398.96,524.39
28.21004,401.74,522.30
28.23080,400.73,521.20
28.24986,399.91,520.01
28.27036,403.90,523.14
28.29005,403.26,519.41
28.31009,402.98,520.09
28.33064,401.96,518.36
28.35131,401.07,518.68
28.37169,401.92,517.98
28.38997,401.76,516.81
28.40981,403.33,520.54
28.43133,404.94,517.86
28.45127,404.69,520.60
28.47152,403.94,518.47
28.49163,410.97,525.80
28.51023,429.85,531.82
28.53063,453.05,545.10
28.55116,477.03,553.11
28.57111,501.54,561.71
28.58997,519.08,561.48
28.61104,533.32,556.32
28.62989,538.59,556.47
28.65076,545.54,549.45
28.67059,543.24,545.52
28.69041,540.76,537.42
28.71026,532.03,530.26
28.72971,523.47,527.64
28.74989,513.64,522.75
28.77143,504.96,522.92
28.79160,495.30,521.37
28.80975,485.40,519.74
28.83122,475.28,518.85
28.85036,465.37,520.30
28.87057,457.84,519.27
28.89044,450.89,520.44
28.91066,443.05,520.12
28.93046,438.63,522.39
28.95061,429.44,525.72
28.97165,427.03,524.45
28.98976,424.14,522.61
29.01099,419.58,526.76
29.03099,418.03,525.99
29.04996,413.95,526.17
29.07063,412.98,527.08
29.09048,412.11,523.00
29.11137,410.50,523.83
29.13158,405.67,525.93
29.15074,405.57,524.62
29.17182,403.94,527.56
29.19214,405.68,525.06
29.21213,402.02,527.21
29.23178,402.55,524.36
29.25172,403.73,525.67
29.27074,401.83,528.13
29.29088,402.62,526.48
29.31223,401.19,524.36
29.33260,395.93,525.44
29.35226,385.76,526.59
29.37058,369.79,524.28
29.39122,349.78,525.05
29.41212,331.57,520.38
29.43157,309.44,517.51
29.45139,291.12,511.86
29.47254,273.73,504.78
29.49250,260.67,496.71
29.51137,258.58,494.20
29.53167,263.61,493.26
29.55198,270.64,494.08
29.57170,280.04,494.09
29.59083,287.49,497.49
29.61256,298.39,499.11
29.63225,307.33,500.90
29.65104,318.81,503.10
29.67078,327.95,505.16
29.69247,336.19,508.05
29.71148,345.19,509.85
29.73201,353.34,512.05
29.75230,358.77,514.25
29.77264,361.85,514.93
29.79324,368.90,517.78
29.81318,371.78,516.00
29.83192,373.60,517.12
29.85352,374.83,516.14
29.87213,378.14,516.26
29.89231,378.62,517.45
29.91325,381.48,515.22
29.93294,386.00,519.76
29.95307,385.59,517.69
29.97291,388.94,519.87
29.99279,387.88,520.76
30.01348,388.50,521.83
30.03244,387.84,519.69
30.05193,388.35,521.07
30.07247,392.55,520.88
30.09222,392.11,522.63
30.11213,393.23,522.25
30.13250,396.20,520.48
30.15330,396.38,521.80
30.17344,394.60,523.94
30.19335,396.96,522.95
30.21259,396.15,520.72
30.23245,397.12,521.26
30.25369,396.41,521.03
30.27252,395.45,520.25
30.29245,394.95,521.72
30.31314,396.20,519.38
30.33269,396.37,522.64
30.35325,395.91,519.84
30.37275,396.76,520.78
30.39200,394.67,519.24
30.41306,396.00,522.10
30.43188,395.35,518.88
30.45337,393.95,520.77
30.47278,393.30,521.56
30.49242,395.58,521.58
30.51236,393.51,520.53
30.53349,394.52,521.03
30.55269,392.45,520.32
30.57312,391.37,521.95
30.59214,394.68,521.43
30.61193,395.79,522.89
30.63238,394.24,520.23
30.65237,392.78,521.02
30.67197,394.93,520.30
30.69377,392.48,521.23
30.71172,392.93,519.87
30.73281,393.11,522.24
30.75265,394.36,519.30
30.77181,392.24,521.01
30.79233,393.91,520.67
30.81245,392.10,522.29
30.83227,391.93,521.35
30.85199,394.82,521.89
30.87279,392.09,523.41
30.89319,393.67,522.63
30.91255,394.72,522.38
30.93308,392.41,522.58
30.95175,394.47,519.02
30.97301,394.62,521.93
30.99246,394.46,519.22
31.01216,394.73,518.40
31.03255,391.54,519.05
31.05357,394.27,519.71
31.07276,396.11,522.27
31.09313,395.05,518.81
31.11228,392.42,519.57
31.13335,394.79,522.92
31.15275,396.64,523.98
31.17335,394.29,523.50
31.19317,396.09,520.36
31.21354,395.24,522.20
31.23338,393.89,522.73
31.25266,396.89,519.99
31.27376,394.57,520.79
31.29299,392.90,521.06
31.31251,393.23,521.78
31.33358,392.18,520.39
31.35283,392.75,519.76
31.37217,396.48,519.31
31.39254,396.44,520.90
31.41263,394.39,520.73
31.43324,396.54,520.50
31.45299,396.34,522.42
31.47290,395.39,521.77
31.49290,393.86,521.59
31.51415,394.60,520.95
31.53269,394.55,519.14
31.55341,392.88,521.70
31.57445,394.34,521.78
31.59362,393.91,518.91
31.61295,391.50,517.70
31.63366,395.01,519.31
31.65423,392.39,518.71
31.67290,393.49,519.98
31.69347,394.89,520.17
31.71357,393.98,517.40
31.73313,395.08,517.83
31.75307,391.23,518.30
31.77452,393.34,518.04
31.79358,394.72,520.58
31.81453,392.61,521.23
31.83444,394.59,519.31
31.85384,394.03,520.86
31.87407,390.98,519.34
31.89368,393.83,517.71
31.91314,393.10,516.70
31.93325,394.61,517.59
31.95334,393.99,518.20
31.97354,392.75,520.12
31.99285,392.68,517.69
32.01420,391.83,518.16
32.03350,395.72,520.16
32.05318,393.29,521.12
32.07402,392.72,518.78
32.09410,392.24,518.08
32.11243,391.75,519.98
32.13331,394.83,517.39
32.15272,394.59,521.05
32.17444,394.03,520.49
32.19308,391.36,517.56
32.21318,393.68,520.55
32.23442,405.97,525.43
32.25363,426.90,529.88
32.27318,450.06,540.73
32.29445,473.14,548.07
32.31435,494.58,554.29
32.33421,511.87,554.38
32.35442,520.83,556.61
32.37311,527.89,551.30
32.39332,529.12,545.09
32.41358,525.33,540.94
32.43332,520.30,537.26
32.45392,511.45,527.84
32.47284,504.72,525.54
32.49431,496.14,517.02
32.51453,484.37,516.93
32.53345,476.96,511.43
32.55394,464.59,513.72
32.57289,456.48,510.88
32.59377,448.52,510.15
32.61389,441.09,513.45
32.63316,435.19,512.50
32.65312,429.85,512.48
32.67399,424.52,513.26
32.69368,419.81,517.80
32.71364,416.62,516.61
32.73330,415.94,515.97
32.75368,413.59,517.84
32.77450,408.06,519.08
32.79256,408.09,516.65
32.81333,404.24,519.93
32.83385,404.16,518.00
32.85381,404.24,517.53
32.87460,400.26,517.75
32.89363,400.52,518.73
32.91266,400.34,516.68
32.93412,400.25,518.78
32.95262,397.25,519.21
32.97409,396.55,518.90
32.99430,395.30,517.60
33.01376,388.36,521.68
33.03312,376.89,526.39
33.05324,360.38,527.09
33.07372,337.35,529.39
33.09350,315.29,524.98
33.11342,295.75,520.74
33.13278,277.13,518.24
33.15307,264.36,510.75
33.17447,262.51,504.82
33.19317,263.06,504.26
33.21350,271.74,502.10
33.23470,278.95,502.55
33.25564,290.56,503.66
33.27440,297.73,502.77
33.29503,308.04,505.91
33.31397,318.09,505.43
33.33548,323.67,506.82
33.35536,333.20,508.54
33.37528,339.79,507.68
33.39547,347.57,510.29
33.41359,355.60,512.76
33.43365,360.34,512.18
33.45412,367.56,513.42
33.47353,371.13,514.72
33.49563,374.62,516.37
33.51400,377.72,516.50
33.53351,377.62,517.23
33.55463,379.07,515.31
33.57497,383.60,516.86
33.59451,387.43,516.17
33.61394,387.37,515.61
33.63368,388.44,515.49
33.65436,389.44,517.41
33.67480,392.49,520.50
33.69393,391.13,517.66
33.71550,391.73,519.80
33.73536,391.75,519.93
33.75504,393.91,519.49
33.77422,396.21,520.50
33.79607,395.72,521.74
33.81508,397.11,520.84
33.83630,397.00,522.14
33.85602,396.86,520.46
33.87623,397.63,519.00
33.89605,398.84,518.51
33.91487,398.21,521.53
33.93548,397.97,522.53
33.95518,399.57,521.20
33.97640,398.57,520.20
33.99565,399.55,519.64
34.01522,400.49,521.82
34.03583,399.87,522.29
34.05573,398.64,523.11
34.07442,399.17,520.68
34.09473,400.66,521.74
34.11571,400.95,524.43
34.13541,401.17,522.33
34.15564,401.73,520.95
34.17614,402.24,522.20
34.19558,401.10,522.71
34.21505,403.04,523.47
34.23598,402.83,522.35
34.25624,403.40,520.65
34.27636,400.75,521.67
34.29581,403.47,522.43
34.31545,401.16,520.31
34.33516,403.09,518.69
34.35519,402.09,520.86
34.37475,401.45,518.96
34.39573,400.70,520.08
34.41497,402.05,519.52
34.43597,404.28,520.87
34.45638,401.02,523.05
34.47458,400.18,521.16
34.49538,399.77,522.19
34.51538,402.03,522.93
34.53545,401.73,523.44
34.55517,399.70,521.70
34.57460,400.62,523.92
34.59616,401.61,522.70
34.61584,401.77,520.37
34.63554,401.51,520.37
34.65638,400.35,522.84
34.67552,400.24,524.42
34.69457,400.11,523.33
34.71579,401.08,521.81
34.73621,401.63,524.28
34.75489,399.99,520.24
34.77628,400.87,522.13
34.79610,402.08,523.01
34.81507,402.62,518.66
34.83512,403.13,520.58
34.85514,405.11,519.51
34.87472,402.60,521.19
34.89457,404.59,520.70
34.91614,401.29,519.89
34.93477,403.42,521.91
34.95540,400.69,519.30
34.97632,401.87,522.29
34.99486,400.88,521.36
35.01471,402.43,520.73
35.03480,399.11,522.92
35.05643,399.89,520.38
35.07513,400.40,523.49
35.09641,403.05,522.13
35.11522,402.51,522.64
35.13606,405.51,522.47
35.15478,403.07,519.95
35.17614,401.20,523.09
35.19548,403.43,520.17
35.21526,402.01,522.88
35.23462,402.77,520.35
35.25508,401.37,523.32
35.27646,402.31,520.05
35.29649,402.93,522.46
35.31565,401.75,521.96
35.33572,400.27,521.69
35.35566,401.82,521.97
35.37592,400.72,523.16
35.39531,402.65,522.14
35.41490,403.70,523.35
35.43503,403.74,521.00
35.45483,402.33,519.39
35.47588,404.99,519.83
35.49499,406.46,519.72
35.51558,403.79,520.18
35.53637,405.62,518.49
35.55503,405.16,521.01
35.57544,405.28,521.10
35.59475,406.62,518.57
35.61554,403.43,521.91
35.63596,404.46,520.43
35.65473,403.26,522.29
35.67509,404.23,521.25
35.69608,405.70,520.57
35.71527,405.63,521.91
35.73590,405.35,520.11
35.75636,403.88,520.74
35.77512,404.91,521.83
35.79565,403.55,520.28
35.81632,403.16,519.99
35.83603,403.55,523.28
35.85453,405.59,521.98
35.87604,403.41,520.21
35.89645,402.90,520.24
35.91575,402.20,518.58
35.93521,405.20,521.07
35.95581,405.00,520.22
35.97538,405.22,520.74
35.99653,406.12,517.63
36.01638,405.56,519.19
36.03471,406.14,517.97
36.05655,404.42,518.85
36.07464,402.26,516.80
36.09616,404.50,518.75
36.11469,402.83,518.49
36.13604,403.03,515.57
36.15530,404.04,516.63
36.17498,404.26,517.87
36.19698,405.67,516.38
36.21720,409.39,518.34
36.23644,418.09,525.07
36.25724,439.81,537.47
36.27581,463.48,551.96
36.29660,489.18,563.70
36.31573,509.10,570.78
36.33678,524.66,571.97
36.35716,537.44,565.88
36.37607,540.25,557.57
36.39608,537.20,548.99
36.41652,535.06,540.52
36.43615,527.74,530.21
36.45734,516.39,523.49
36.47587,510.20,518.40
36.49661,498.45,515.31
36.51710,488.97,512.62
36.53665,479.29,508.24
36.55855,469.30,509.77
36.57754,460.97,507.24
36.59800,456.84,508.73
36.61753,449.08,509.30
36.63778,443.38,512.43
36.65763,439.17,513.49
36.67672,431.74,515.69
36.69739,430.98,513.97
36.71673,424.51,519.26
36.73796,424.63,518.62
36.75658,419.53,520.25
36.77669,418.06,520.83
36.79676,414.94,520.46
36.81725,416.15,521.77
36.83721,416.34,520.44
36.85814,413.66,518.74
36.87809,414.16,520.43
36.89657,410.16,520.69
36.91848,409.66,521.26
36.93749,413.28,520.52
36.95698,409.72,522.53
36.97731,411.55,522.36
36.99787,410.41,522.06
37.01843,410.15,522.66
37.03824,409.09,521.25
37.05693,409.14,521.48
37.07775,409.50,524.79
37.09755,405.96,525.27
37.11673,397.50,526.12
37.13838,379.18,526.27
37.15816,359.10,525.08
37.17779,338.72,522.30
37.19804,315.39,516.24
37.21725,296.05,506.19
37.23823,281.73,502.88
37.25813,275.68,495.70
37.27706,274.19,497.10
37.29711,278.48,496.39
37.31724,286.78,493.45
37.33813,298.20,494.39
37.35681,304.76,495.79
37.37808,314.02,497.25
37.39805,327.36,501.03
37.41654,336.37,505.57
37.43697,343.98,506.61
37.45807,351.41,509.91
37.47785,358.66,513.33
37.49663,364.58,515.84
37.51694,369.50,517.51
37.53858,374.48,517.56
37.55776,379.43,520.20
37.57706,384.34,519.12
37.59823,388.25,521.85
37.61843,391.96,520.28
37.63665,393.05,518.44
37.65733,397.82,521.56
37.67783,398.29,521.46
37.69713,401.18,519.95
37.71661,400.13,523.37
37.73833,403.03,522.46
37.75671,403.44,519.24
37.77845,402.38,520.59
37.79775,404.91,520.06
37.81825,404.89,518.07
37.83783,406.55,519.77
37.85802,407.07,518.24
37.87732,406.27,517.56
37.89769,406.37,517.71
37.91817,408.14,520.16
37.93790,408.70,518.31
37.95737,407.71,519.11
37.97790,408.64,520.07
37.99780,408.50,519.24
38.01679,405.64,519.32
38.03674,407.98,519.90
38.05723,405.83,517.79
38.07731,407.83,521.66
38.09802,404.44,521.77
38.11745,406.39,517.80
38.13731,406.22,520.67
38.15656,407.83,518.88
38.17690,408.83,520.46
38.19713,408.70,520.91
38.21834,408.18,522.11
38.23836,409.57,520.39
38.25836,407.67,519.88
38.27835,408.62,518.27
38.29813,404.94,521.38
38.31682,404.32,520.89
38.33794,404.44,520.77
38.35802,407.19,519.63
38.37729,406.72,520.83
38.39724,408.25,521.25
38.41790,408.52,524.62
38.43839,406.40,522.72
38.45658,406.84,521.06
38.47760,405.97,520.71
38.49761,405.68,520.92
38.51666,406.07,523.14
38.53750,406.53,522.02
38.55842,406.71,522.08
38.57713,407.50,520.42
38.59745,405.45,519.31
38.61635,406.30,520.11
38.63804,408.82,519.78
38.65717,408.93,521.36
38.67634,406.04,523.98
38.69807,406.64,521.82
38.71702,405.98,524.43
38.73643,407.36,522.74
38.75751,405.73,523.10
38.77747,404.68,526.39
38.79777,405.66,525.38
38.81779,404.93,524.76
38.83693,408.46,526.09
38.85751,408.09,524.11
38.87794,406.29,521.70
38.89675,406.45,521.91
38.91741,408.21,523.65
38.93658,406.87,523.26
38.95764,407.48,525.68
38.97743,405.76,521.55
38.99815,405.56,520.98
39.01680,407.86,521.35
39.03742,408.95,525.29
39.05770,406.00,525.55
39.07721,409.22,524.63
39.09722,408.69,525.41
39.11810,409.52,523.87
39.13689,407.26,525.57
39.15692,405.83,523.66
39.17824,405.31,524.86
39.19695,404.18,522.31
39.21824,406.02,522.24
39.23716,407.55,524.62
39.25786,405.81,523.10
39.27751,403.64,522.91
39.29653,403.87,523.87
39.31704,405.47,521.46
39.33658,405.32,522.73
39.35788,405.03,521.85
39.37776,406.00,524.53
39.39822,407.24,521.44
39.41704,406.30,525.07
39.43791,405.93,522.32
39.45678,406.17,520.83
39.47691,407.52,524.05
39.49700,406.37,521.91
39.51696,407.95,523.28
39.53699,408.77,520.71
39.55706,406.54,520.13
39.57766,404.85,521.38
39.59748,406.47,522.56
39.61842,406.55,522.52
39.63727,403.54,523.66
39.65783,404.98,524.77
39.67683,403.97,523.04
39.69758,402.90,524.16
39.71802,404.80,522.24
39.73698,403.52,523.59
39.75804,404.35,520.72
39.77751,404.80,522.66
39.79808,403.27,521.48
39.81653,405.79,524.43
39.83784,405.23,523.05
39.85681,407.02,523.71
39.87656,404.31,520.29
39.89683,407.18,521.88
39.91722,406.21,520.70
39.93673,404.41,522.78
39.95720,406.02,520.34
39.97828,407.30,519.54
39.99844,403.92,521.09
40.01806,408.30,520.86
40.03652,404.85,521.73
40.05690,404.89,521.16
40.07712,407.36,517.42
40.09684,406.23,519.78
40.11836,407.16,521.55
40.13737,404.80,520.22
40.15678,407.26,520.75
40.17692,407.08,522.34
40.19684,405.15,522.31
40.21770,404.18,521.03
40.23809,405.99,524.02
40.25690,405.65,522.65
40.27739,404.03,522.66
40.29815,404.79,525.51
40.31699,407.40,525.41
40.33814,407.95,525.87
40.35748,408.26,524.18
40.37807,407.93,522.80
40.39698,409.09,522.68
40.41678,410.50,522.28
40.43805,406.21,524.08
40.45711,405.51,521.45
40.47723,405.85,523.22
40.49733,407.73,521.95
40.51825,406.33,521.54
40.53818,404.37,520.20
40.55753,405.96,522.40
40.57739,406.57,520.80
40.59777,405.20,521.20
40.61689,406.54,518.14
40.63708,406.10,519.31
40.65743,405.44,519.07
40.67722,404.42,521.63
40.69838,401.89,520.37
40.71804,402.52,519.10
40.73817,402.19,519.80
40.75680,409.45,520.73
40.77690,426.89,528.53
40.79802,448.84,540.92
40.81715,477.46,551.41
40.83650,502.15,554.04
40.85688,516.57,555.87
40.87716,529.17,551.99
40.89681,534.95,547.55
40.91756,535.58,545.80
40.93755,531.82,538.17
40.95695,523.93,532.40
40.97778,516.69,530.40
40.99725,510.47,526.01
41.01753,498.75,522.24
41.03747,489.38,517.33
41.05739,482.45,516.48
41.07775,474.44,516.46
41.09677,467.70,517.03
41.11695,457.15,517.14
41.13657,451.76,518.94
41.15795,444.70,518.08
41.17833,437.95,519.43
41.19807,434.54,520.63
41.21738,428.00,519.19
41.23776,427.24,519.82
41.25794,425.06,523.50
41.27829,421.55,522.63
41.29649,419.34,522.87
41.31658,416.31,522.14
41.33676,414.94,523.27
41.35697,415.92,522.48
41.37700,412.25,522.86
41.39643,410.73,522.66
41.41816,411.40,524.68
41.43694,411.29,521.74
41.45775,410.84,522.14
41.47769,408.40,523.51
41.49713,408.13,524.92
41.51729,405.29,524.39
41.53730,407.48,523.92
41.55780,403.87,522.15
41.57726,406.20,522.82
41.59828,406.51,523.45
41.61778,405.50,521.67
41.63819,405.51,524.74
41.65724,407.20,525.18
41.67729,400.65,525.77
41.69832,387.64,525.01
41.71630,368.27,521.99
41.73817,346.60,518.68
41.75663,322.64,512.50
41.77824,303.22,505.40
41.79649,284.74,503.62
41.81839,267.50,499.70
41.83739,262.83,498.35
41.85730,266.79,494.53
41.87780,271.87,496.41
41.89834,279.77,497.36
41.91820,288.66,494.85
41.93811,299.52,497.94
41.95676,311.46,500.98
41.97687,318.71,501.81
41.99814,329.02,505.88
42.01677,340.99,505.40
42.03763,347.19,509.55
42.05674,355.18,511.72
42.07634,361.32,512.38
42.09751,365.62,514.29
42.11747,371.93,518.60
42.13762,373.92,519.28
42.15666,377.40,519.57
42.17671,380.96,521.81
42.19698,381.91,520.63
42.21685,387.73,520.11
42.23696,387.37,517.67
42.25750,388.35,517.08
42.27727,393.07,517.61
42.29762,394.08,518.04
42.31800,393.22,517.61
42.33726,393.94,520.18
42.35632,397.14,520.40
42.37663,397.22,516.99
42.39839,395.30,521.22
42.41645,398.61,521.28
42.43660,396.96,521.16
42.45777,396.92,518.87
42.47788,398.92,520.40
42.49650,398.52,524.30
42.51646,399.06,524.91
42.53660,400.00,523.24
42.55818,400.60,521.31
42.57654,401.53,520.86
42.59747,397.93,521.06
42.61666,400.71,524.22
42.63730,400.36,523.32
42.65740,398.36,521.72
42.67759,395.84,522.63
42.69647,399.33,522.09
42.71791,399.51,525.07
42.73824,398.64,525.03
42.75821,397.88,524.73
42.77767,398.62,525.03
42.79791,400.10,523.28
42.81621,402.86,523.33
42.83837,400.96,522.06
42.85688,401.40,523.62
42.87829,400.64,523.52
42.89703,399.82,524.88
42.91794,400.41,525.88
42.93635,399.36,523.42
42.95751,399.37,522.67
42.97722,400.00,524.53
42.99801,399.50,525.89
43.01802,400.46,525.24
43.03745,397.93,525.68
43.05798,400.37,522.93
43.07725,396.77,522.37
43.09631,398.92,522.87
43.11830,399.22,523.82
43.13682,401.55,525.44
43.15714,400.52,525.10
43.17734,398.89,526.37
43.19761,397.31,526.71
43.21698,399.28,525.17
43.23700,397.27,525.45
43.25630,398.55,523.22
43.27666,397.49,521.80
43.29777,396.40,523.52
43.31788,399.66,522.34
43.33748,400.03,522.45
43.35794,395.89,520.66
43.37742,396.32,519.96
43.39668,398.11,520.60
43.41716,397.01,522.33
43.43754,397.10,520.62
43.45796,393.27,520.01
43.47733,396.70,521.15
43.49743,394.60,520.17
43.51751,394.60,523.40
43.53683,395.07,520.29
43.55774,398.06,524.62
43.57682,394.67,524.19
43.59679,397.60,523.74
43.61640,395.07,523.28
43.63768,396.17,522.82
43.65664,396.32,520.65
43.67683,395.94,523.87
43.69739,395.47,522.29
43.71670,395.15,522.17
43.73722,398.38,522.97
43.75782,394.86,522.72
43.77806,395.58,521.48
43.79642,396.30,522.79
43.81719,394.88,520.90
43.83655,394.47,523.21
43.85787,395.97,523.22
43.87832,395.28,520.64
43.89780,392.74,521.52
43.91679,393.73,523.18
43.93672,393.42,522.81
43.95697,393.63,519.16
43.97688,393.09,520.33
43.99754,397.22,518.58
44.01824,395.25,520.75
44.03833,393.48,519.95
44.05707,392.64,520.88
44.07824,394.00,518.25
44.09760,396.31,518.46
44.11694,396.27,520.42
44.13783,393.52,519.83
44.15634,394.10,521.45
44.17711,394.44,519.11
44.19644,393.05,518.84
44.21788,394.68,519.87
44.23790,393.04,521.30
44.25631,395.33,521.99
44.27786,393.89,518.70
44.29753,395.23,519.99
44.31831,397.42,519.00
44.33705,396.46,518.20
44.35738,394.67,519.57
44.37682,397.12,520.48
44.39688,395.58,519.14
44.41823,392.47,522.86
44.43791,393.87,520.66
44.45759,395.21,519.28
44.47785,393.39,519.19
44.49778,394.48,521.37
44.51666,394.37,523.49
44.53806,397.13,521.48
44.55669,395.25,521.06
44.57627,396.83,523.53
44.59802,395.30,522.38
44.61812,396.37,522.70
44.63718,396.17,519.49
44.65773,394.85,519.87
44.67824,393.87,521.14
44.69773,391.66,520.59
44.71825,394.12,518.92
44.73680,394.40,519.38
44.75818,394.75,517.96
44.77792,394.67,517.69
44.79823,393.76,520.48
44.81765,393.38,518.06
44.83779,392.30,515.73
44.85720,392.13,519.44
44.87828,394.74,519.67
44.89828,391.32,517.74
44.91706,391.07,518.25
44.93696,392.35,519.44
44.95713,392.51,516.83
44.97763,396.03,519.74
44.99657,394.56,516.55
45.01809,392.36,519.90
45.03724,393.18,516.60
45.05779,394.64,516.94
45.07753,392.11,517.77
45.09737,392.11,518.45
45.11659,394.25,518.70
45.13738,390.70,520.89
45.15724,391.40,520.80
45.17751,392.44,520.14
45.19805,393.96,519.47
45.21807,394.47,519.06
45.23621,391.77,521.02
45.25776,394.02,521.70
45.27710,394.57,521.23
45.29703,394.57,521.06
45.31730,391.86,517.43
45.33663,392.45,516.81
45.35728,393.20,515.49
45.37776,391.02,518.54
45.39693,391.51,518.09
45.41701,391.29,519.45
45.43822,392.90,516.47
45.45782,393.24,518.59
45.47763,391.38,520.12
45.49788,390.98,517.00
45.51779,393.85,519.46
45.53780,392.88,519.78
45.55718,392.66,518.21
45.57762,395.93,516.66
45.59689,394.14,520.12
45.61732,391.00,520.93
45.63778,392.28,519.54
45.65824,392.84,519.82
45.67742,395.63,517.77
45.69806,393.24,520.54
45.71809,393.04,520.41
45.73762,393.87,518.98
45.75639,404.22,523.64
45.77631,423.24,528.63
45.79717,444.99,534.87
45.81683,470.32,542.45
45.83658,489.41,542.72
45.85663,502.50,543.92
45.87796,514.23,538.20
45.89772,518.27,537.79
45.91821,517.92,533.80
45.93709,515.85,527.52
45.95719,509.94,522.63
45.97788,505.12,521.82
45.99786,497.05,519.14
46.01730,486.25,514.17
46.03657,477.94,511.85
46.05702,468.73,513.48
46.07677,461.02,511.95
46.09732,454.69,513.75
46.11681,447.83,514.69
46.13632,438.36,515.80
46.15807,431.95,514.13
46.17657,428.28,515.56
46.19789,425.63,516.82
46.21698,420.18,516.03
46.23787,414.97,514.00
46.25720,414.95,516.49
46.27765,409.97,515.39
46.29758,409.20,517.17
46.31783,404.53,518.69
46.33731,403.14,518.61
46.35782,400.73,520.68
46.37709,401.41,519.93
46.39737,398.11,519.49
46.41774,396.92,518.74
46.43710,397.33,518.41
46.45718,395.46,517.45
46.47660,398.50,521.06
46.49756,394.95,519.10
46.51757,396.24,521.07
46.53721,395.37,521.89
46.55632,398.38,521.77
46.57768,394.48,521.17
46.59760,383.81,520.54
46.61904,365.20,520.86
46.63872,343.82,516.06
46.65905,317.37,509.13
46.67781,292.35,502.52
46.69888,274.34,493.95
46.71837,261.09,490.81
46.73917,255.69,483.85
46.75790,255.65,486.90
46.77784,260.99,487.61
46.79814,270.96,487.08
46.81809,280.54,491.25
46.84004,290.19,491.51
46.85850,301.72,497.44
46.87997,313.21,498.00
46.89879,321.67,502.79
46.91832,328.62,505.40
46.93970,337.35,508.45
46.95869,344.76,507.38
46.97887,351.58,509.57
46.99896,355.78,511.21
47.01985,362.43,514.37
47.03882,367.92,513.53
47.05912,369.35,514.88
47.07986,372.15,516.14
47.10010,374.16,516.62
47.12016,378.47,517.65
47.14022,381.10,517.78
47.15832,383.77,516.06
47.18006,381.95,519.93
47.19969,385.46,518.54
47.21921,387.64,518.93
47.24029,391.21,517.98
47.25984,390.89,517.41
47.27959,390.97,517.76
47.29985,392.90,520.37
47.31872,393.12,520.26
47.34003,393.88,518.73
47.35915,392.58,517.87
47.38012,394.90,519.02
47.39968,397.46,520.59
47.41965,399.75,521.58
47.43995,396.89,518.90
47.45897,397.39,520.44
47.47929,398.13,521.72
47.49972,397.19,520.99
47.52015,396.30,521.62
47.53929,399.66,522.08
47.55903,398.99,522.72
47.58010,397.22,519.65
47.59965,399.62,521.12
47.61854,399.00,520.55
47.63959,396.40,520.46
47.65930,397.11,522.55
47.67824,395.12,519.59
47.69910,396.25,518.65
47.71957,393.88,520.11
47.73979,397.10,519.37
47.75919,396.59,518.75
47.77886,395.05,520.39
47.80023,394.41,519.73
47.81871,396.72,520.48
47.83947,394.24,522.92
47.85962,394.13,520.31
47.87896,395.94,522.37
47.89814,396.19,523.90
47.91819,395.97,525.25
47.93957,396.63,533.00
47.95914,398.29,542.01
47.98091,400.99,562.35
48.00012,403.10,597.10
48.02087,409.74,622.88
48.04006,410.73,633.53
48.06086,409.40,627.86
48.07955,410.38,606.25
48.09954,405.39,583.91
48.11979,403.51,556.24
48.13974,402.08,533.76
48.16015,397.48,509.87
48.18053,396.41,492.71
48.20020,395.99,482.22
48.22140,393.90,474.41
48.24051,396.23,465.97
48.26096,395.94,463.85
48.28085,396.67,465.57
48.29975,395.25,466.58
48.31987,397.36,470.41
48.34027,398.29,474.66
48.36011,397.60,475.53
48.38081,399.25,480.69
48.40058,396.03,482.92
48.41939,397.62,487.17
48.44001,398.96,494.59
48.45994,398.18,498.09
48.47980,399.02,500.76
48.49920,396.82,503.14
48.52013,398.95,505.36
48.54088,396.99,507.37
48.56013,399.86,510.33
48.58066,399.62,513.41
48.60068,397.87,512.45
48.61921,401.32,515.45
48.63994,399.34,517.75
48.66025,400.26,514.75
48.68106,397.43,517.44
48.69922,399.64,516.59
48.72012,400.49,519.82
48.74094,400.89,518.98
48.75961,400.69,519.98
48.78093,401.12,521.28
48.80079,399.11,519.18
48.82040,401.25,522.31
48.84105,400.16,521.17
48.86042,399.96,519.87
48.88079,401.45,520.40
48.90107,400.17,521.13
48.91985,400.99,520.86
48.93984,398.94,520.86
48.95995,400.95,517.93
48.97971,403.32,520.75
49.00039,404.53,517.60
49.02068,402.66,519.10
49.03964,401.61,520.01
49.05951,403.51,520.32
49.08008,404.38,518.85
49.10012,405.52,520.95
49.11967,403.34,521.66
49.14119,405.06,518.46
49.15937,404.46,518.12
49.18097,403.46,517.42
49.19943,404.27,518.36
49.22004,402.90,519.20
49.24065,402.03,518.34
49.25995,401.49,519.65
49.27974,404.62,519.18
49.30001,403.61,519.36
49.32053,403.50,518.58
49.34007,402.66,519.23
49.36036,402.64,520.97
49.37961,404.54,520.77
49.40029,403.35,520.04
49.42044,402.01,520.64
49.43990,404.69,518.76
49.46021,405.21,519.66
49.48019,404.68,521.10
49.49925,402.65,519.62
49.51937,403.45,519.12
49.53962,405.56,519.67
49.56076,402.73,519.30
49.58092,402.81,520.25
49.59958,405.04,522.44
49.62066,405.07,519.91
49.63966,403.41,520.98
49.65982,402.80,519.68
49.68069,404.30,522.26
49.70163,400.98,523.42
49.72218,403.10,520.17
49.74104,402.21,519.97
49.76136,405.95,521.58
49.78051,406.26,521.06
49.80029,406.30,521.49
49.82049,408.35,519.36
49.84146,408.40,519.87
49.86046,408.67,518.62
49.88126,407.53,519.27
49.90072,407.61,521.01
49.92205,405.20,519.85
49.94213,406.31,519.09
49.96134,408.20,520.05
49.98149,406.26,519.98
50.00085,407.54,519.48
50.02177,405.27,519.74
50.04025,407.60,519.75
50.06185,408.83,519.60
50.08225,407.55,520.47
50.10181,410.23,521.93
50.12014,410.39,521.00
50.14136,408.82,520.84
50.16198,410.79,521.40
50.18080,409.26,522.55
50.20141,408.62,519.76
50.22035,407.02,522.70
50.24170,408.85,520.18
50.26086,409.89,521.19
50.28160,407.74,522.55
50.30008,409.81,522.24
50.32156,407.48,518.91
50.34176,407.97,521.31
50.36196,407.21,518.40
50.38151,409.13,519.10
50.40137,408.27,516.90
50.42136,412.84,519.82
50.44140,424.79,524.04
50.46226,442.93,530.10
50.48166,465.96,537.47
50.50104,486.92,546.16
50.52126,505.12,552.87
50.54044,518.56,552.22
50.56170,528.84,553.17
50.58068,532.51,551.34
50.60055,537.26,545.51
50.62217,535.14,544.13
50.64192,531.92,541.82
50.66123,521.88,536.11
50.68187,516.33,533.13
50.70058,508.12,529.99
50.72114,499.09,528.22
50.74022,489.93,526.20
50.76099,483.60,523.76
50.78068,473.01,526.06
50.80057,463.56,522.95
50.82120,459.08,525.38
50.84122,451.07,524.23
50.86112,446.39,524.41
50.88037,440.91,523.78
50.90114,436.71,522.89
50.92127,433.36,521.76
50.94127,429.44,522.39
50.96014,424.84,525.15
50.98141,423.43,522.58
51.00176,421.98,523.44
51.02132,421.50,522.96
51.04065,416.32,523.15
51.06136,417.03,525.73
51.08065,412.86,525.04
51.10172,413.71,527.37
51.12040,411.75,523.49
51.14122,411.09,524.55
51.16154,412.87,522.62
51.18131,411.71,525.83
51.20123,412.75,523.92
51.22155,411.40,524.04
51.24099,411.14,526.48
51.26124,410.17,525.24
51.28101,406.98,522.55
51.30008,405.71,525.41
51.32135,407.65,522.91
51.34146,407.57,523.59
51.36106,405.10,525.77
51.38180,406.68,522.14
51.40070,407.03,522.52
51.42134,409.18,524.41
51.44088,401.36,525.00
51.46070,394.03,528.97
51.48150,377.47,530.84
51.50096,358.13,531.91
51.52152,338.34,529.00
51.54136,317.10,527.00
51.56196,299.70,518.19
51.58067,286.43,513.60
51.60188,280.25,506.10
51.62112,279.59,504.36
51.64174,286.79,499.08
51.66115,294.02,499.90
51.68062,302.85,499.72
51.70178,313.91,499.81
51.72021,323.61,501.47
51.74111,330.11,500.40
51.76117,339.97,504.48
51.78166,349.40,506.32
51.80081,356.64,507.24
51.82141,362.43,507.93
51.84106,369.68,511.21
51.86029,376.17,512.62
51.88113,379.11,513.50
51.90184,384.63,511.43
51.92192,387.34,513.13
51.94018,388.81,514.00
51.96074,394.52,516.87
51.98046,394.95,515.02
52.00083,394.20,516.25
52.02142,398.93,514.66
52.04047,397.81,517.76
52.06161,400.16,519.45
52.08054,402.71,518.18
52.10035,400.59,518.90
52.12053,405.91,519.62
52.14104,403.83,521.03
52.16138,408.62,520.06
52.18160,407.76,520.82
52.20145,407.98,522.00
52.22190,409.95,522.59
52.24152,410.65,519.22
52.26061,407.77,520.62
52.28191,411.53,518.80
52.30201,410.61,519.68
52.32095,408.66,523.33
52.34168,409.65,523.79
52.36205,411.55,521.99
52.38215,411.06,519.31
52.40067,409.32,519.81
52.42130,410.87,521.62
52.44091,410.54,519.41
52.46130,409.09,521.33
52.48093,409.08,523.40
52.50079,409.59,524.23
52.52088,407.32,522.10
52.54160,405.91,524.38
52.56047,408.81,521.51
52.58107,408.51,524.04
52.60181,407.80,525.71
52.62145,407.56,521.29
52.64221,408.80,522.01
52.66278,404.98,518.94
52.68163,408.70,517.61
52.70142,406.53,516.31
52.72168,406.04,517.93
52.74181,409.13,521.34
52.76252,406.20,519.31
52.78135,408.64,520.38
52.80141,406.05,518.12
52.82176,404.34,520.07
52.84272,407.71,517.97
52.86188,404.56,519.51
52.88229,403.67,516.80
52.90224,404.70,516.89
52.92283,406.41,520.15
52.94281,405.35,526.80
52.96145,404.48,528.61
52.98168,403.11,533.78
53.00256,402.45,532.05
53.02152,402.87,530.07
53.04239,403.66,530.61
53.06214,405.50,530.18
53.08269,404.35,528.65
53.10169,406.23,523.96
53.12230,406.37,522.51
53.14155,406.61,519.95
53.16143,405.07,516.63
53.18227,405.83,518.32
53.20209,406.92,517.31
53.22234,406.35,517.68
53.24150,403.67,516.94
53.26175,403.47,518.84
53.28258,406.68,516.15
53.30176,405.01,516.90
53.32238,405.33,517.17
53.34241,404.94,516.46
53.36139,404.13,516.09
53.38178,406.42,519.58
53.40149,404.80,523.17
53.42221,402.30,531.83
53.44119,407.01,548.67
53.46231,410.28,574.29
53.48133,413.36,602.05
53.50182,415.34,621.41
53.52163,414.04,625.10
53.54215,413.15,610.76
53.56142,412.06,587.20
53.58222,407.84,564.59
53.60205,403.79,542.99
53.62109,403.27,524.28
53.64271,402.44,510.04
53.66241,401.73,496.48
53.68135,397.78,488.65
53.70340,397.31,480.55
53.72298,400.30,475.50
53.74370,396.36,476.70
53.76381,396.82,475.78
53.78361,398.84,479.07
53.80263,397.55,481.50
53.82251,396.66,483.17
53.84244,395.69,485.62
53.86249,396.79,489.37
53.88370,399.91,489.08
53.90253,399.00,495.27
53.92356,401.04,498.62
53.94379,401.28,500.64
53.96367,402.56,504.05
53.98261,402.54,507.98
54.00246,401.39,509.31
54.02297,400.34,511.98
54.04239,400.76,511.46
54.06278,400.54,513.25
54.08249,400.04,513.07
54.10250,402.30,516.94
54.12341,402.30,515.55
54.14318,399.51,517.84
54.16360,399.49,518.80
54.18381,401.43,517.65
54.20310,399.17,519.52
54.22339,398.76,521.25
54.24247,398.54,519.73
54.26285,398.60,519.10
54.28348,398.54,518.55
54.30218,399.57,516.82
54.32270,399.16,519.19
54.34205,398.60,517.24
54.36266,398.55,518.30
54.38335,398.27,521.62
54.40317,399.49,521.67
54.42228,399.28,519.03
54.44310,397.23,521.44
54.46283,397.04,522.49
54.48323,400.43,522.93
54.50328,399.93,522.68
54.52411,399.75,524.27
54.54264,399.72,523.34
54.56334,398.15,522.44
54.58322,398.89,523.43
54.60260,398.72,522.84
54.62282,398.85,525.44
54.64273,398.59,523.89
54.66252,397.87,524.13
54.68382,396.97,521.41
54.70324,394.87,522.19
54.72396,395.15,523.27
54.74268,398.75,521.56
54.76219,398.17,523.51
54.78381,395.73,523.47
54.80286,397.07,521.37
54.82393,393.14,521.59
54.84466,392.38,520.13
54.86337,395.45,518.95
54.88461,393.32,519.82
54.90415,394.50,519.68
54.92469,393.72,520.76
54.94570,394.69,522.07
54.96542,393.08,520.75
54.98573,397.35,522.37
55.00499,410.71,525.50
55.02461,427.47,535.37
55.04458,449.71,543.47
55.06549,470.76,550.71
55.08412,490.55,558.49
55.10500,501.80,559.00
55.12466,510.76,559.91
55.14412,517.38,559.08
55.16418,517.40,554.91
55.18573,513.16,552.26
55.20588,509.49,549.08
55.22440,505.33,542.75
55.24483,498.38,538.94
55.26418,490.96,536.40
55.28459,481.64,532.39
55.30423,472.85,529.91
55.32520,467.41,528.40
55.34588,460.47,527.22
55.36536,451.39,525.60
55.38459,444.47,524.38
55.40522,437.37,525.61
55.42555,429.41,525.17
55.44454,427.62,521.24
55.46575,420.16,521.45
55.48458,415.43,523.38
55.50611,412.99,525.17
55.52592,411.31,523.68
55.54468,405.85,521.35
55.56442,403.29,521.69
55.58467,401.69,522.34
55.60456,401.78,521.42
55.62497,402.30,522.74
55.64551,400.40,522.79
55.66464,401.58,520.42
55.68452,398.88,520.32
55.70401,397.44,520.70
55.72519,397.66,519.18
55.74542,393.48,521.34
55.76566,395.61,520.41
55.78522,393.82,521.18
55.80560,396.84,518.87
55.82552,396.32,521.01
55.84607,396.59,521.13
55.86518,392.69,521.75
55.88590,393.96,520.85
55.90443,392.57,521.25
55.92403,392.91,523.74
55.94530,391.50,523.23
55.96523,389.38,525.64
55.98548,382.45,527.25
56.00412,374.74,532.72
56.02554,358.39,533.14
56.04589,343.31,531.83
56.06456,323.20,529.12
56.08461,304.82,518.30
56.10517,288.18,510.08
56.12451,271.69,505.26
56.14498,267.90,498.70
56.16426,270.88,493.74
56.18458,275.35,492.17
56.20599,279.36,488.65
56.22516,291.59,487.34
56.24528,299.16,491.52
56.26574,309.73,492.41
56.28561,317.48,493.53
56.30421,325.98,494.63
56.32481,334.55,498.85
56.34430,338.46,499.36
56.36579,346.84,502.57
56.38430,351.97,504.66
56.40433,356.48,504.79
56.42496,361.55,506.53
56.44401,366.79,510.68
56.46563,365.84,513.09
56.48614,372.88,512.21
56.50613,374.28,511.04
56.52468,380.08,511.91
56.54440,380.09,513.81
56.56411,383.38,515.14
56.58520,384.78,513.51
56.60554,385.34,517.57
56.62395,385.79,517.37
56.64577,385.32,516.13
56.66549,384.96,516.31
56.68545,390.18,517.06
56.70569,389.27,516.27
56.72716,390.90,518.34
56.74731,392.28,516.75
56.76663,391.03,517.73
56.78664,391.68,516.74
56.80725,391.81,519.46
56.82841,393.95,517.09
56.84908,397.82,519.19
56.86716,394.91,517.83
56.88776,398.53,516.86
56.90861,396.82,519.56
56.92749,399.60,517.85
56.94970,397.61,520.21
56.96956,399.16,519.74
56.98828,397.00,519.26
57.00929,394.80,521.22
57.02995,398.21,523.26
57.04893,395.85,520.95
57.06991,397.91,522.25
57.08989,399.00,520.95
57.10959,402.39,519.56
57.13021,402.32,519.93
57.15095,402.24,519.44
57.16959,405.45,521.59
57.18963,403.06,519.71
57.20946,403.11,519.55
57.22924,403.09,521.93
57.24950,403.75,519.28
57.26992,407.07,522.18
57.29045,402.90,520.65
57.30972,405.17,521.73
57.33165,404.21,521.67
57.35148,403.59,522.17
57.37171,402.07,522.95
57.39116,405.82,523.29
57.41140,404.04,520.74
57.43119,403.78,522.87
57.45001,402.86,523.74
57.47179,404.03,522.05
57.49140,405.82,521.83
57.51053,405.88,519.70
57.53092,406.64,521.51
57.55001,405.26,519.42
57.57163,404.83,518.44
57.58982,408.01,519.34
57.61051,404.43,518.72
57.63042,404.85,520.42
57.65085,406.23,522.10
57.67045,407.07,520.18
57.69046,407.11,521.53
57.71020,408.75,520.28
57.73268,409.26,522.52
57.75122,407.01,522.70
57.77282,407.25,521.58
57.79289,407.44,524.72
57.81289,407.22,521.06
57.83285,406.68,521.59
57.85391,408.68,521.91
57.87362,408.18,521.11
57.89317,409.18,522.05
57.91401,408.60,523.69
57.93486,408.18,521.94
57.95431,408.71,522.91
57.97448,407.70,521.93
57.99415,406.25,522.49
58.01460,406.51,522.79
58.03526,406.20,524.56
58.05397,404.71,525.36
58.07495,409.14,529.89
58.09567,416.17,532.94
58.11518,420.22,536.92
58.13396,424.09,535.94
58.15520,425.16,533.13
58.17698,423.32,535.06
58.19508,421.06,532.20
58.21601,419.23,529.69
58.23644,419.24,532.09
58.25672,417.40,529.64
58.27613,414.19,530.59
58.29648,412.71,529.87
58.31691,410.10,525.60
58.33676,408.07,525.80
58.35577,407.06,520.75
58.37669,408.21,519.58
58.39589,406.04,519.30
58.41672,404.46,520.50
58.43547,405.22,519.79
58.45502,406.73,520.17
58.47591,406.77,518.32
58.49687,407.04,521.94
58.51512,406.61,521.36
58.53617,405.95,521.27
58.55598,406.49,521.17
58.57524,404.17,521.10
58.59531,405.16,522.54
58.61604,402.88,518.89
58.63577,404.48,519.57
58.65670,401.33,518.71
58.67547,402.41,519.58
58.69534,400.86,520.94
58.71552,404.08,519.15
58.73605,402.17,521.22
58.75509,405.64,520.65
58.77509,403.46,519.29
58.79673,403.83,521.04
58.81525,402.34,521.49
58.83664,405.16,517.71
58.85625,403.74,522.27
58.87574,405.76,519.29
58.89638,402.98,519.67
58.91668,405.73,519.06
58.93512,405.70,519.98
58.95534,404.08,520.87
58.97608,403.45,521.26
58.99491,406.05,519.65
59.01685,404.31,522.12
59.03638,404.47,518.41
59.05490,402.28,518.16
59.07627,403.73,520.13
59.09552,402.21,521.57
59.11610,404.50,518.53
59.13592,405.39,521.88
59.15549,404.24,522.29
59.17518,403.14,528.29
59.19604,403.96,537.55
59.21621,410.82,553.75
59.23636,414.94,575.99
59.25616,421.32,596.43
59.27594,426.18,617.14
59.29685,428.51,633.30
59.31490,432.86,645.26
59.33620,432.75,647.10
59.35512,431.98,652.00
59.37598,433.10,651.14
59.39534,431.71,650.38
59.41694,430.00,647.62
59.43567,426.03,645.16
59.45643,422.20,638.95
59.47594,420.75,633.01
59.49628,417.36,631.13
59.51506,415.02,624.69
59.53593,413.82,621.95
59.55505,411.70,618.52
59.57606,408.22,612.48
59.59493,408.31,608.12
59.61554,408.52,603.76
59.63594,407.81,603.39
59.65602,405.26,601.84
59.67553,404.63,594.60
59.69581,403.57,591.21
59.71580,401.98,589.05
59.73557,401.37,586.06
59.75604,397.90,584.40
59.77595,395.68,581.30
59.79585,394.93,575.63
59.81606,390.57,574.32
59.83557,388.07,574.79
59.85679,386.85,567.92
59.87572,388.87,567.38
59.89686,387.19,563.98
59.91666,389.53,561.40
59.93545,386.72,560.73
59.95644,391.10,556.30
59.97530,393.09,551.58
59.99544,396.92,553.78
60.01524,400.19,550.63
60.03548,400.45,550.78
60.05674,400.85,547.41
60.07658,404.48,553.14
60.09500,401.70,551.29
60.11647,396.80,553.70
60.13563,394.46,549.75
60.15579,390.18,548.94
60.17549,389.93,546.08
60.19632,390.66,536.29
60.21535,397.27,535.16
60.23503,395.92,532.65
60.25597,392.97,530.30
60.27687,395.22,532.74
60.29579,400.96,520.48
60.31514,403.14,531.26
60.33552,405.51,542.32
60.35686,407.61,559.88
