Program Time [s],data 0,data 1
4.03854,415.69,484.71
4.05778,416.35,484.66
4.07813,413.85,481.56
4.09886,416.60,482.81
4.11789,414.34,484.55
4.13797,415.91,483.16
4.15942,416.49,481.70
4.17858,416.53,484.32
4.19760,415.90,482.74
4.21845,415.46,481.12
4.23908,419.92,485.21
4.25918,417.87,483.31
4.27823,419.01,484.55
4.29809,415.57,480.89
4.31776,416.86,483.35
4.33866,416.47,481.05
4.35767,413.59,480.88
4.37962,413.19,481.67
4.39785,413.74,482.98
4.41907,413.39,483.51
4.43832,415.44,480.20
4.45928,413.59,480.49
4.47862,416.93,482.98
4.49842,413.88,479.54
4.51859,414.35,478.61
4.54004,416.05,480.76
4.56155,413.60,480.33
4.58120,412.48,483.45
4.60096,414.30,482.96
4.62160,413.35,479.66
4.64277,414.84,478.76
4.66309,415.38,478.98
4.68309,412.91,479.80
4.70212,411.72,478.77
4.72208,411.64,478.01
4.74253,410.57,480.58
4.76261,415.00,480.88
4.78313,412.39,478.25
4.80174,410.18,481.76
4.82245,412.88,480.67
4.84374,408.52,479.88
4.86346,411.75,481.51
4.88345,409.16,479.81
4.90288,414.71,486.58
4.92180,417.57,502.59
4.94213,419.54,519.86
4.96261,424.06,529.75
4.98444,423.66,526.87
5.00374,421.94,525.38
5.02373,422.85,519.52
5.04296,421.71,516.64
5.06369,418.19,513.22
5.08415,419.22,507.62
5.10409,415.97,503.95
5.12296,415.65,499.72
5.14444,414.56,498.73
5.16273,413.62,493.70
5.18341,413.38,493.24
5.20339,412.63,489.98
5.22460,410.84,488.29
5.24368,410.83,487.85
5.26433,409.60,487.22
5.28455,410.71,487.12
5.30441,409.70,487.86
5.32444,409.95,487.17
5.34304,410.82,488.15
5.36346,422.42,487.53
5.38415,439.08,491.76
5.40356,463.99,494.15
5.42384,488.20,502.16
5.44321,508.84,505.18
5.46284,529.55,509.64
5.48261,540.95,510.36
5.50391,549.77,508.66
5.52342,551.56,503.99
5.54452,549.40,499.08
5.56347,544.30,495.51
5.58435,537.63,489.25
5.60335,529.11,486.51
5.62282,516.66,486.62
5.64446,506.20,481.61
5.66408,494.75,481.05
5.68521,485.44,482.59
5.70616,480.02,480.51
5.72590,468.32,481.62
5.74600,461.78,479.47
5.76742,456.33,480.83
5.78667,450.91,481.94
5.80660,442.41,479.95
5.82617,438.90,483.92
5.84636,436.05,481.74
5.86666,430.95,483.27
5.88719,425.99,481.34
5.90734,422.97,483.86
5.92663,423.03,483.92
5.94677,423.38,482.94
5.96869,421.35,485.54
5.98736,419.32,483.48
6.00704,418.03,484.26
6.02710,415.69,485.31
6.04745,415.04,487.75
6.06798,415.06,485.16
6.08846,414.33,485.27
6.10737,413.65,487.01
6.12678,412.67,486.33
6.14782,410.06,488.61
6.16691,412.36,489.54
6.18846,411.57,486.96
6.20789,410.75,486.62
6.22811,410.75,489.46
6.24831,414.54,486.12
6.26669,412.78,486.57
6.28655,413.69,485.77
6.30852,414.05,485.20
6.32774,412.53,484.59
6.34817,413.22,486.92
6.36675,410.05,487.55
6.38672,409.70,486.91
6.40689,413.49,486.29
6.42691,414.38,487.48
6.44807,414.61,484.67
6.46851,412.35,485.36
6.48705,414.45,484.05
6.50679,405.34,483.89
6.52728,391.72,486.15
6.54795,364.29,484.46
6.56678,338.08,482.06
6.58739,309.25,477.46
6.60689,280.63,469.38
6.62747,265.43,461.06
6.64722,259.08,459.40
6.66848,261.86,457.74
6.68680,265.89,459.09
6.70747,276.86,458.35
6.72798,285.04,458.89
6.74675,297.91,463.90
6.76719,306.36,465.04
6.78810,317.40,466.69
6.80759,330.49,468.48
6.82716,337.29,468.68
6.84833,346.36,471.05
6.86665,354.80,472.43
6.88806,362.08,477.20
6.90803,369.98,475.78
6.92938,374.68,476.26
6.94920,378.90,477.28
6.96891,386.21,477.37
6.98862,388.99,477.49
7.00805,395.10,478.72
7.02869,397.30,480.27
7.04940,397.24,478.16
7.07040,401.04,478.39
7.08997,402.78,480.47
7.10962,404.91,479.35
7.13032,408.18,480.96
7.15115,406.06,478.68
7.17181,406.50,478.36
7.19099,408.22,480.55
7.21243,412.12,480.38
7.23237,411.80,481.06
7.25193,411.29,479.44
7.27113,413.14,477.72
7.29213,412.94,478.99
7.31215,414.87,476.72
7.33258,416.54,478.02
7.35239,414.92,476.61
7.37173,416.07,476.65
7.39239,415.52,475.98
7.41284,413.68,477.20
7.43201,416.54,476.78
7.45288,416.03,475.75
7.47269,413.02,478.00
7.49433,415.31,475.91
7.51349,413.76,475.19
7.53400,416.59,475.80
7.55323,413.45,478.15
7.57276,416.20,478.43
7.59427,413.75,480.35
7.61260,415.53,480.17
7.63282,417.44,478.26
7.65286,417.34,477.95
7.67342,416.06,481.59
7.69329,417.61,479.05
7.71295,418.00,479.64
7.73272,416.99,478.94
7.75301,417.36,480.11
7.77291,417.74,480.37
7.79356,417.01,480.71
7.81357,418.58,480.24
7.83303,418.16,480.87
7.85404,416.11,480.07
7.87439,416.99,480.29
7.89275,414.06,480.46
7.91471,413.62,479.58
7.93373,417.50,480.14
7.95401,417.28,480.15
7.97501,415.01,477.22
7.99477,417.41,479.83
8.01549,418.32,479.08
8.03372,417.64,478.11
8.05395,418.37,479.91
8.07414,415.72,477.09
8.09403,415.64,479.77
8.11472,412.86,476.21
8.13395,414.67,479.64
8.15405,413.09,478.32
8.17403,416.63,478.49
8.19497,415.82,476.19
8.21414,418.31,479.07
8.23438,416.10,478.10
8.25412,417.89,478.47
8.27505,417.97,480.74
8.29438,415.58,477.49
8.31412,417.06,478.07
8.33421,416.89,480.96
8.35467,418.60,481.82
8.37490,417.18,480.13
8.39399,415.73,482.83
8.41424,415.44,484.19
8.43390,416.01,482.69
8.45374,416.67,483.23
8.47374,414.15,483.83
8.49397,414.40,483.75
8.51375,414.55,481.72
8.53490,417.12,480.88
8.55433,416.19,482.15
8.57477,418.04,480.47
8.59518,417.55,481.01
8.61549,418.25,480.02
8.63502,417.16,480.70
8.65446,418.24,481.12
8.67433,414.86,479.80
8.69383,417.28,483.07
8.71378,419.40,480.10
8.73370,418.15,482.05
8.75426,415.64,481.39
8.77423,416.91,480.46
8.79443,414.02,482.62
8.81374,416.10,479.93
8.83507,417.11,481.65
8.85416,414.41,481.84
8.87450,415.06,482.60
8.89536,415.80,482.34
8.91486,414.96,481.69
8.93420,416.61,479.95
8.95516,413.45,482.40
8.97408,415.24,482.87
8.99358,414.01,481.76
9.01370,416.59,481.29
9.03541,415.59,481.00
9.05521,414.23,483.02
9.07438,414.11,479.86
9.09439,414.14,480.10
9.11520,414.58,479.96
9.13383,413.67,482.56
9.15412,415.74,482.87
9.17419,414.52,481.84
9.19524,414.35,482.84
9.21463,414.16,480.83
9.23354,415.76,479.12
9.25487,417.74,481.46
9.27476,419.36,478.61
9.29401,432.00,481.17
9.31551,455.36,488.33
9.33525,478.64,493.84
9.35357,504.50,496.89
9.37411,524.02,498.87
9.39462,538.70,499.31
9.41409,544.47,501.62
9.43378,549.07,501.13
9.45429,550.42,500.28
9.47530,548.05,496.21
9.49513,541.95,496.13
9.51531,535.04,495.36
9.53515,527.59,495.19
9.55549,520.34,491.07
9.57492,508.58,494.22
9.59523,499.78,492.16
9.61524,490.71,492.70
9.63655,480.55,493.10
9.65508,474.92,493.11
9.67473,467.79,493.62
9.69557,461.75,491.75
9.71494,454.99,489.67
9.73614,449.98,488.59
9.75490,445.67,486.92
9.77486,440.16,487.23
9.79519,436.41,485.60
9.81527,433.47,486.64
9.83545,433.42,487.57
9.85551,429.85,486.17
9.87472,429.16,490.15
9.89595,425.31,490.30
9.91491,423.98,489.33
9.93620,423.35,486.56
9.95625,419.58,487.50
9.97503,417.46,486.52
9.99464,418.60,485.91
10.01566,416.34,485.46
10.03563,417.60,488.05
10.05591,415.98,487.31
10.07556,415.26,487.91
10.09555,418.51,488.83
10.11472,417.52,489.08
10.13571,416.57,489.95
10.15590,416.48,488.39
10.17702,417.97,488.02
10.19658,411.89,486.41
10.21710,402.10,486.46
10.23660,390.40,483.60
10.25626,370.39,481.19
10.27749,346.52,474.89
10.29655,319.97,462.53
10.31742,295.72,453.18
10.33641,271.86,443.73
10.35835,260.68,438.36
10.37669,255.94,436.94
10.39784,260.19,435.00
10.41722,264.41,438.65
10.43716,272.68,439.08
10.45738,286.02,446.17
10.47690,298.61,451.11
10.49843,310.58,453.97
10.51778,319.97,457.67
10.53650,333.66,461.10
10.55761,341.43,465.74
10.57806,354.55,469.54
10.59679,361.03,474.37
10.61721,368.19,475.33
10.63740,372.60,474.98
10.65839,375.41,478.84
10.67764,381.13,480.69
10.69754,386.95,481.44
10.71663,389.74,480.56
10.73788,391.43,480.27
10.75824,397.51,484.17
10.77688,398.47,484.08
10.79754,400.04,484.95
10.81686,402.00,486.74
10.83642,404.61,485.10
10.85851,403.59,487.48
10.87818,404.64,487.14
10.89707,408.41,487.58
10.91748,408.45,485.19
10.93813,410.05,487.19
10.95708,410.68,487.82
10.97647,411.83,486.18
10.99779,411.42,486.65
11.01790,411.66,490.96
11.03839,411.39,491.57
11.05768,408.74,489.02
11.07765,408.07,492.16
11.09746,409.31,488.74
11.11833,409.49,492.03
11.13785,411.18,491.77
11.15885,412.22,490.88
11.17785,410.99,490.32
11.19894,412.88,494.14
11.21750,413.26,493.98
11.23832,412.79,493.60
11.25847,413.02,491.42
11.27956,413.90,493.64
11.29919,411.56,492.39
11.31922,412.52,491.83
11.33835,415.24,490.75
11.35788,412.82,491.20
11.37880,415.38,489.26
11.39940,414.99,491.00
11.41767,413.52,490.70
11.43828,414.60,489.54
11.45834,412.82,490.64
11.47877,412.00,489.72
11.49856,412.44,492.81
11.51789,414.45,491.59
11.53856,414.85,490.85
11.55923,412.69,490.80
11.57816,414.15,490.90
11.59919,415.82,489.68
11.61852,413.23,489.68
11.63799,412.88,490.30
11.65793,413.61,492.63
11.67913,411.85,491.42
11.69875,412.36,491.13
11.71802,414.10,494.05
11.73812,414.21,493.45
11.75902,413.05,494.04
11.77805,413.82,494.57
11.79894,413.61,495.54
11.81807,412.11,495.78
11.83868,411.79,495.57
11.85887,412.89,495.77
11.87944,412.60,493.00
11.89889,413.68,492.07
11.91833,417.44,493.20
11.94036,415.08,494.25
11.96033,414.40,492.36
11.97948,417.30,490.90
11.99895,416.33,490.38
12.01995,419.08,491.23
12.04146,416.35,492.51
12.06074,418.68,491.55
12.08092,417.67,490.45
12.09980,416.30,491.74
12.12017,417.63,491.77
12.14013,417.17,490.42
12.16157,416.41,491.15
12.18004,418.56,491.59
12.19966,417.70,492.65
12.21966,418.08,492.40
12.24122,416.32,489.98
12.26225,417.89,490.72
12.28184,418.14,491.15
12.30239,415.72,491.55
12.32113,416.78,489.67
12.34079,415.89,492.72
12.36232,417.09,491.24
12.38227,416.50,489.96
12.40131,415.07,488.47
12.42109,414.15,490.75
12.44159,416.38,488.72
12.46163,415.48,489.34
12.48106,416.77,491.90
12.50057,416.04,488.34
12.52098,416.97,490.02
12.54085,414.76,490.42
12.56133,414.44,489.47
12.58197,415.20,488.33
12.60193,413.87,490.29
12.62081,413.80,490.04
12.64192,418.44,488.43
12.66076,416.36,490.83
12.68084,417.96,492.58
12.70187,415.86,491.10
12.72178,417.31,491.08
12.74152,418.03,490.48
12.76088,415.39,491.27
12.78073,415.82,491.03
12.80162,412.45,489.22
12.82208,414.82,489.77
12.84261,412.98,491.15
12.86241,413.02,487.94
12.88279,413.57,485.87
12.90214,417.74,485.23
12.92280,414.64,484.36
12.94348,414.90,487.61
12.96223,416.14,485.60
12.98240,414.88,483.90
13.00163,418.46,485.82
13.02347,416.12,485.61
13.04327,415.16,483.36
13.06257,418.37,487.74
13.08236,416.70,484.53
13.10166,416.89,485.84
13.12331,415.10,485.52
13.14268,416.21,485.08
13.16253,416.91,484.66
13.18209,417.28,485.86
13.20194,417.07,485.53
13.22247,415.28,485.22
13.24262,416.62,483.30
13.26301,415.91,483.04
13.28285,416.01,481.76
13.30261,414.91,482.32
13.32346,416.82,480.88
13.34355,416.09,482.63
13.36295,415.51,480.96
13.38370,414.66,481.76
13.40328,415.78,481.14
13.42241,415.56,478.49
13.44424,416.65,480.94
13.46344,416.73,480.05
13.48427,414.58,478.87
13.50395,416.27,479.37
13.52377,416.47,481.96
13.54499,416.89,479.17
13.56353,415.21,478.97
13.58435,414.10,480.27
13.60438,416.97,478.73
13.62463,417.84,477.98
13.64470,417.41,476.81
13.66385,417.27,475.09
13.68524,418.41,476.35
13.70352,416.53,473.74
13.72527,419.83,474.21
13.74384,416.63,472.58
13.76409,417.91,472.81
13.78486,416.94,473.44
13.80445,416.57,473.11
13.82470,417.11,471.20
13.84384,417.41,472.00
13.86460,415.38,469.89
13.88347,416.74,469.39
13.90424,416.02,470.94
13.92556,417.95,467.23
13.94455,422.98,470.64
13.96504,436.71,479.54
13.98370,463.31,490.94
14.00382,491.50,502.29
14.02461,515.59,509.79
14.04402,534.55,515.91
14.06419,547.78,514.70
14.08520,556.25,513.48
14.10486,558.57,510.15
14.12448,556.83,507.47
14.14476,552.95,504.11
14.16400,548.96,501.55
14.18503,539.69,496.10
14.20410,528.88,494.89
14.22370,516.80,493.54
14.24397,506.42,490.78
14.26491,497.17,488.69
14.28364,484.46,485.64
14.30462,475.37,485.73
14.32352,468.59,483.87
14.34496,462.27,485.57
14.36446,456.71,485.35
14.38415,452.74,484.71
14.40507,445.69,483.37
14.42528,440.88,480.15
14.44365,438.37,482.85
14.46491,436.21,483.29
14.48527,434.78,482.82
14.50361,430.09,480.02
14.52382,431.87,479.20
14.54511,430.55,480.44
14.56345,426.17,478.11
14.58490,427.96,479.67
14.60345,427.72,477.91
14.62388,423.72,479.28
14.64362,423.15,482.49
14.66482,422.38,481.03
14.68408,420.64,479.87
14.70373,420.23,481.22
14.72461,418.74,479.73
14.74445,420.01,479.07
14.76433,416.81,480.54
14.78460,418.25,480.55
14.80403,415.11,480.36
14.82541,415.89,480.78
14.84393,417.41,480.40
14.86509,416.08,478.75
14.88371,416.45,478.19
14.90513,416.66,481.33
14.92495,416.26,478.24
14.94371,418.70,479.48
14.96399,416.22,478.72
14.98387,419.34,476.91
15.00502,416.15,478.70
15.02541,418.59,480.62
15.04503,419.11,478.35
15.06506,420.77,477.91
15.08491,413.33,484.06
15.10535,394.51,485.26
15.12363,371.75,481.54
15.14368,340.65,475.45
15.16498,313.03,465.93
15.18449,286.84,455.85
15.20538,271.04,447.94
15.22372,266.83,444.31
15.24425,267.04,442.11
15.26407,271.87,439.90
15.28504,283.18,442.16
15.30445,290.97,443.53
15.32418,304.76,444.24
15.34472,316.96,447.89
15.36387,327.36,452.08
15.38421,340.34,454.35
15.40553,347.46,457.29
15.42379,355.58,458.47
15.44448,362.55,464.16
15.46355,369.65,465.66
15.48423,376.55,468.50
15.50405,381.41,471.14
15.52523,386.05,471.27
15.54520,390.10,472.38
15.56437,394.39,475.74
15.58535,398.74,474.62
15.60504,401.73,474.80
15.62445,402.94,477.30
15.64468,406.25,478.84
15.66496,405.45,476.73
15.68459,406.88,479.25
15.70427,410.93,480.67
15.72505,411.76,480.73
15.74408,410.82,481.17
15.76406,411.81,480.85
15.78495,414.21,478.19
15.80377,412.48,480.25
15.82426,413.93,478.99
15.84382,415.87,480.66
15.86526,415.41,480.84
15.88510,411.90,483.53
15.90500,412.32,481.98
15.92498,412.44,479.54
15.94449,414.31,481.98
15.96513,414.22,479.34
15.98423,414.41,478.69
16.00337,415.69,478.79
16.02376,417.53,479.83
16.04526,417.74,481.61
16.06452,416.70,481.34
16.08389,414.43,481.14
16.10411,416.88,479.50
16.12366,415.49,480.58
16.14398,415.77,481.36
16.16481,416.01,478.50
16.18410,416.95,478.64
16.20429,414.59,479.21
16.22368,417.34,478.78
16.24369,415.53,480.70
16.26506,418.06,481.48
16.28501,415.35,478.40
16.30349,417.31,477.45
16.32434,416.20,480.83
16.34503,414.76,480.51
16.36533,413.72,478.11
16.38462,413.34,481.01
16.40426,414.57,478.74
16.42415,415.56,479.70
16.44407,415.98,479.58
16.46346,415.56,482.00
16.48406,413.16,480.86
16.50496,416.90,480.60
16.52419,413.59,480.96
16.54385,414.97,480.43
16.56373,414.26,482.46
16.58495,417.29,481.81
16.60410,418.38,480.68
16.62505,418.34,481.17
16.64502,418.54,482.54
16.66534,418.47,481.02
16.68508,416.08,482.62
16.70347,415.76,483.83
16.72421,414.47,482.56
16.74428,416.28,481.40
16.76433,419.04,483.86
16.78511,416.09,481.85
16.80349,417.16,483.16
16.82404,416.70,482.13
16.84337,416.84,482.14
16.86534,418.00,481.20
16.88484,416.08,481.05
16.90518,417.06,480.70
16.92458,416.28,479.95
16.94513,417.43,482.79
16.96536,416.19,484.36
16.98429,416.54,482.76
17.00514,416.88,480.34
17.02331,417.70,481.97
17.04556,417.69,481.55
17.06479,415.10,479.58
17.08467,418.08,481.42
17.10472,415.97,481.66
17.12398,415.15,481.95
17.14502,415.30,482.35
17.16545,415.94,480.46
17.18449,418.04,481.34
17.20459,416.64,478.83
17.22356,415.62,477.89
17.24350,419.28,479.80
17.26430,417.47,478.13
17.28497,417.26,480.67
17.30410,416.08,479.30
17.32343,417.06,481.42
17.34402,415.42,479.67
17.36489,415.06,480.21
17.38398,418.42,480.86
17.40381,416.07,483.02
17.42390,416.34,482.18
17.44500,415.19,478.89
17.46433,415.88,482.17
17.48473,415.87,480.58
17.50414,413.55,479.82
17.52468,414.61,477.59
17.54476,413.49,478.77
17.56405,416.46,478.47
17.58371,413.77,477.49
17.60379,415.19,477.78
17.62485,416.65,480.83
17.64395,415.79,481.40
17.66407,415.39,478.94
17.68357,413.59,480.64
17.70360,417.59,480.78
17.72399,416.24,482.20
17.74423,418.10,481.09
17.76590,419.36,480.30
17.78431,415.55,482.05
17.80536,416.92,481.60
17.82529,416.70,481.73
17.84519,416.19,481.42
17.86520,416.15,481.11
17.88574,417.36,478.64
17.90636,416.65,479.33
17.92509,416.51,479.06
17.94457,419.15,477.75
17.96526,418.06,479.19
17.98491,415.27,476.93
18.00616,414.59,477.96
18.02610,416.92,479.15
18.04549,417.55,479.48
18.06471,415.50,479.77
18.08468,415.96,479.68
18.10593,416.79,480.75
18.12631,415.69,479.91
18.14489,413.20,479.67
18.16571,414.40,477.99
18.18543,412.83,476.70
18.20622,412.89,477.93
18.22693,411.58,479.19
18.24605,423.96,484.23
18.26651,444.76,489.07
18.28710,470.95,497.05
18.30634,495.66,498.89
18.32600,519.45,501.13
18.34621,536.59,501.60
18.36566,548.17,500.73
18.38549,555.84,499.85
18.40574,554.86,501.31
18.42588,551.23,500.57
18.44708,545.77,496.25
18.46574,537.24,497.40
18.48569,524.32,497.42
18.50550,516.21,495.28
18.52646,507.25,494.60
18.54666,494.69,495.50
18.56682,486.99,492.92
18.58521,479.62,492.20
18.60577,469.51,493.21
18.62572,464.33,492.25
18.64734,454.16,490.95
18.66577,452.07,487.72
18.68586,444.28,490.84
18.70712,442.76,488.91
18.72619,438.21,487.37
18.74633,434.38,486.82
18.76669,434.59,485.85
18.78538,429.31,485.22
18.80710,430.58,488.43
18.82619,429.15,488.20
18.84526,426.72,485.84
18.86605,426.44,486.29
18.88630,424.39,487.12
18.90722,420.97,485.69
18.92687,421.75,484.71
18.94587,421.95,487.75
18.96629,419.55,484.62
18.98548,417.93,487.34
19.00721,418.09,486.97
19.02736,420.12,484.25
19.04568,419.00,484.47
19.06667,415.95,482.33
19.08698,418.51,485.05
19.10644,417.67,483.66
19.12561,415.76,485.45
19.14583,417.82,483.45
19.16570,417.45,485.09
19.18632,414.08,484.37
19.20635,415.56,482.81
19.22566,416.02,485.35
19.24611,415.28,481.95
19.26642,417.33,485.01
19.28744,413.79,483.80
19.30733,413.40,484.97
19.32728,415.72,487.04
19.34683,413.17,483.90
19.36717,414.70,482.85
19.38679,414.94,483.48
19.40893,417.70,484.07
19.42872,417.97,485.07
19.44849,411.68,487.87
19.46852,390.64,485.05
19.48818,365.64,478.28
19.50851,335.79,473.62
19.52819,307.53,467.57
19.54870,281.94,464.11
19.56801,268.48,458.89
19.58794,262.26,456.62
19.60791,265.41,455.25
19.62755,270.44,457.44
19.64836,278.30,460.71
19.66862,291.19,462.08
19.68928,302.71,464.21
19.70777,312.54,466.79
19.72740,324.42,465.95
19.74784,334.72,471.45
19.76797,345.95,470.70
19.78914,354.42,473.46
19.80761,360.01,475.99
19.82935,366.74,477.03
19.84755,372.45,475.93
19.86818,379.62,478.42
19.88735,382.30,478.25
19.90827,389.80,481.16
19.92763,393.10,483.15
19.94913,395.72,482.15
19.96882,394.95,483.39
19.98921,400.21,485.96
20.00776,400.01,485.71
20.02892,400.42,486.85
20.04871,403.80,487.70
20.06837,407.30,487.98
20.08787,405.90,488.73
20.10873,407.79,488.16
20.12892,406.77,489.72
20.14933,406.70,488.36
20.16873,409.94,490.31
20.18838,409.48,488.19
20.21006,411.56,487.35
20.23000,410.00,488.45
20.25016,409.62,486.89
20.26891,408.49,488.18
20.28871,408.49,489.77
20.30840,410.14,488.45
20.32996,411.87,490.29
20.35024,410.63,486.54
20.36920,408.95,489.20
20.39026,408.27,487.37
20.40930,407.37,486.41
20.42890,408.04,488.33
20.44910,409.29,486.56
20.46973,407.78,487.01
20.49036,408.96,490.54
20.50887,411.43,488.75
20.52860,409.38,489.29
20.54959,408.76,488.76
20.56931,409.18,489.92
20.58934,410.04,491.58
20.60883,411.40,489.65
20.62952,409.62,489.47
20.64891,409.61,490.70
20.66843,412.37,487.06
20.68929,410.83,491.43
20.70882,411.08,489.89
20.72893,412.72,491.03
20.74952,410.55,488.68
20.76870,411.53,489.96
20.78880,412.25,489.04
20.80879,410.96,487.98
20.82863,411.36,487.90
20.84983,410.75,487.58
20.86834,410.50,488.24
20.88874,409.31,488.41
20.91000,408.10,487.41
20.92935,411.88,489.93
20.95019,409.46,487.82
20.96851,411.39,489.35
20.99030,411.06,489.87
21.00837,409.13,489.27
21.02895,411.25,491.32
21.04843,409.28,491.14
21.06952,410.39,486.46
21.08934,410.46,487.88
21.11012,413.56,490.92
21.12993,412.27,490.04
21.14972,415.16,487.46
21.16955,413.45,489.89
21.18887,414.52,490.48
21.20938,412.57,490.48
21.23007,412.34,489.13
21.24852,411.63,488.80
21.26862,413.99,490.33
21.29019,413.38,487.08
21.30841,412.62,488.01
21.32957,411.44,488.07
21.35011,412.44,487.48
21.36911,413.32,487.51
21.38871,411.59,491.69
21.40860,411.27,489.09
21.43020,410.51,490.96
21.44978,411.63,491.37
21.46840,411.37,490.54
21.48880,411.51,491.84
21.50882,414.33,490.77
21.52962,413.37,489.99
21.54837,412.20,490.42
21.56915,411.49,488.57
21.58867,412.89,489.98
21.60952,409.87,487.13
21.62946,409.90,488.29
21.65034,411.44,490.55
21.66830,411.12,490.10
21.68990,410.51,490.82
21.71018,411.37,489.81
21.72907,412.50,492.46
21.74888,412.97,492.48
21.76905,412.56,488.85
21.78996,409.94,490.53
21.81132,412.88,487.53
21.83005,411.52,489.96
21.85034,415.67,488.85
21.87036,414.28,489.11
21.89083,413.72,490.41
21.91235,413.44,488.16
21.93175,416.61,488.31
21.95195,413.89,489.06
21.97147,415.97,488.52
21.99286,415.23,493.22
22.01253,414.93,491.89
22.03248,413.63,491.67
22.05180,413.18,490.67
22.07288,412.30,492.06
22.09328,414.25,490.50
22.11247,414.40,491.76
22.13291,412.07,489.94
22.15248,412.73,491.39
22.17212,416.19,492.42
22.19141,415.14,489.56
22.21324,416.48,489.46
22.23287,413.98,489.60
22.25240,413.59,490.20
22.27337,412.51,490.21
22.29151,414.55,493.07
22.31194,413.24,493.32
22.33148,412.90,490.65
22.35255,412.48,493.04
22.37319,412.25,490.65
22.39276,412.62,492.00
22.41251,414.24,491.63
22.43292,411.70,491.06
22.45270,413.65,492.04
22.47191,415.29,488.11
22.49176,413.93,488.75
22.51141,413.33,488.91
22.53237,414.26,489.47
22.55261,415.74,490.60
22.57168,414.02,487.55
22.59306,414.40,491.05
22.61251,415.28,490.67
22.63242,417.42,490.51
22.65230,416.58,490.17
22.67354,417.65,489.81
22.69343,415.70,486.88
22.71229,415.08,486.44
22.73390,412.08,486.25
22.75396,414.79,488.15
22.77247,415.21,486.34
22.79396,414.13,487.90
22.81387,413.19,490.12
22.83352,413.03,490.17
22.85359,415.36,490.01
22.87509,415.23,486.84
22.89499,415.98,487.76
22.91406,413.76,487.37
22.93390,414.00,483.86
22.95476,415.87,484.84
22.97397,415.42,483.19
22.99494,417.74,482.48
23.01398,416.87,483.42
23.03465,415.66,484.12
23.05407,416.67,482.83
23.07475,414.27,481.08
23.09407,415.28,484.09
23.11493,416.21,481.60
23.13518,416.22,485.00
23.15345,413.95,481.44
23.17396,417.84,484.69
23.19473,414.91,485.00
23.21520,417.01,481.00
23.23418,414.95,484.72
23.25493,416.66,485.00
23.27371,417.07,483.10
23.29498,414.05,486.01
23.31447,416.50,485.35
23.33384,416.47,486.30
23.35507,414.95,485.23
23.37484,415.55,486.52
23.39376,414.38,485.33
23.41452,413.73,484.12
23.43369,416.74,483.91
23.45491,417.61,483.35
23.47606,417.94,481.10
23.49488,414.27,480.52
23.51476,414.81,481.12
23.53573,416.48,482.26
23.55527,417.44,482.36
23.57582,416.45,478.77
23.59611,414.14,479.59
23.61500,417.32,477.57
23.63459,416.31,477.42
23.65533,416.60,480.48
23.67457,417.26,478.85
23.69485,415.51,479.63
23.71555,416.95,479.78
23.73493,414.59,477.85
23.75589,415.76,479.90
23.77448,419.96,481.83
23.79467,438.02,488.75
23.81475,466.68,504.11
23.83464,497.94,516.10
23.85457,529.52,527.77
23.87582,551.87,529.05
23.89577,563.92,525.38
23.91574,571.23,515.80
23.93580,570.62,507.70
23.95510,563.85,498.49
23.97604,558.32,491.16
23.99603,549.91,486.32
24.01499,539.55,482.81
24.03544,529.73,481.97
24.05513,518.59,480.18
24.07575,504.36,476.81
24.09635,496.96,479.02
24.11556,482.55,477.79
24.13540,477.39,474.52
24.15457,468.70,475.87
24.17603,459.17,475.98
24.19546,453.32,477.02
24.21432,448.79,477.81
24.23589,448.53,477.91
24.25610,445.79,478.81
24.27534,440.24,479.10
24.29477,436.75,481.57
24.31523,434.46,479.12
24.33599,431.12,477.38
24.35513,428.85,480.08
24.37541,428.19,481.99
24.39621,424.20,481.97
24.41601,423.62,479.20
24.43628,423.55,481.02
24.45610,421.90,482.86
24.47525,419.97,484.45
24.49622,421.09,483.90
24.51624,417.50,481.74
24.53513,417.68,481.66
24.55539,419.55,478.67
24.57610,421.96,478.11
24.59495,419.11,479.21
24.61456,419.19,482.15
24.63588,416.94,480.61
24.65530,419.03,481.53
24.67624,418.77,482.95
24.69607,416.85,480.78
24.71529,415.44,482.95
24.73487,418.42,479.75
24.75569,413.09,480.75
24.77486,403.79,485.52
24.79457,384.21,483.07
24.81579,356.38,479.31
24.83605,329.65,470.23
24.85587,300.99,460.43
24.87488,278.52,451.25
24.89529,266.71,445.41
24.91598,261.80,440.66
24.93445,266.75,441.33
24.95435,273.37,442.06
24.97482,287.11,444.23
24.99550,297.08,443.18
25.01477,306.32,446.94
25.03480,319.27,451.29
25.05602,329.46,450.82
25.07464,339.78,453.73
25.09578,348.33,456.56
25.11628,357.55,460.64
25.13539,366.69,462.28
25.15587,374.38,464.36
25.17529,377.52,464.32
25.19557,381.14,465.76
25.21442,389.53,469.41
25.23585,393.15,471.05
25.25543,394.41,471.64
25.27491,397.57,471.22
25.29542,397.80,473.68
25.31577,402.29,473.67
25.33442,404.53,473.38
25.35635,404.55,477.04
25.37450,403.92,476.91
25.39545,407.25,477.02
25.41604,405.21,477.02
25.43488,406.83,476.12
25.45529,407.23,478.85
25.47445,409.18,476.44
25.49503,408.78,477.29
25.51511,413.13,477.08
25.53528,414.63,474.39
25.55565,415.91,476.33
25.57440,416.15,476.09
25.59484,413.91,476.68
25.61555,415.97,475.99
25.63580,416.81,474.72
25.65555,412.71,475.48
25.67530,417.13,479.23
25.69530,416.61,479.89
25.71572,416.02,478.28
25.73574,416.86,479.63
25.75497,415.96,478.52
25.77512,414.28,479.51
25.79464,413.83,479.00
25.81606,413.41,480.12
25.83442,414.89,479.47
25.85628,413.53,478.77
25.87539,417.33,479.10
25.89433,416.27,479.19
25.91536,415.58,478.81
25.93588,417.52,477.38
25.95510,417.96,478.10
25.97454,414.62,479.95
25.99521,415.10,477.10
26.01588,414.68,475.16
26.03522,413.98,478.09
26.05544,414.62,476.60
26.07482,414.87,475.32
26.09546,416.12,476.93
26.11579,413.78,475.14
26.13537,414.45,474.49
26.15533,415.08,475.08
26.17587,415.09,474.29
26.19465,417.58,476.48
26.21497,415.01,476.79
26.23605,414.31,475.89
26.25516,416.29,475.46
26.27494,415.36,476.23
26.29510,417.43,476.68
26.31426,417.42,478.46
26.33467,416.88,477.91
26.35442,415.17,478.12
26.37472,413.45,478.00
26.39488,414.45,479.19
26.41421,416.11,479.23
26.43428,416.63,477.58
26.45608,414.72,477.23
26.47520,413.01,478.74
26.49446,415.01,477.48
26.51519,415.31,479.27
26.53518,417.27,478.30
26.55465,418.80,479.09
26.57513,417.46,479.64
26.59593,417.34,478.91
26.61621,417.29,479.94
26.63578,415.64,477.27
26.65574,414.76,480.02
26.67478,416.29,476.95
26.69432,413.31,475.21
26.71519,414.55,477.83
26.73566,415.54,474.21
26.75592,415.95,477.44
26.77453,416.63,477.59
26.79545,414.54,477.34
26.81612,416.46,479.14
26.83549,416.65,476.07
26.85614,414.68,478.62
26.87543,416.06,476.05
26.89506,413.97,478.69
26.91579,414.79,479.14
26.93473,416.04,477.85
26.95608,415.65,478.27
26.97510,416.24,476.24
26.99561,416.41,479.83
27.01558,415.57,477.63
27.03601,416.53,478.40
27.05601,414.82,479.42
27.07629,416.40,477.60
27.09515,418.26,478.81
27.11537,418.85,479.63
27.13488,415.05,478.19
27.15503,415.18,478.90
27.17536,413.86,476.09
27.19490,414.26,477.71
27.21595,414.87,477.76
27.23513,414.46,477.43
27.25522,415.45,478.21
27.27611,415.50,480.91
27.29596,418.13,479.12
27.31554,415.33,479.14
27.33481,416.06,479.04
27.35606,413.88,479.32
27.37486,416.08,477.90
27.39422,416.69,479.44
27.41538,416.78,479.83
27.43467,415.09,478.88
27.45600,413.70,476.98
27.47584,414.56,479.11
27.49424,415.52,476.56
27.51609,415.48,478.52
27.53527,413.06,477.86
27.55556,414.11,476.51
27.57555,416.16,474.67
27.59624,416.98,475.72
27.61517,417.28,474.05
27.63605,413.57,476.57
27.65461,415.86,476.17
27.67473,412.93,473.16
27.69467,413.88,473.05
27.71548,416.13,472.93
27.73515,416.15,474.23
27.75590,417.79,473.68
27.77689,416.73,478.04
27.79699,416.29,474.69
27.81528,417.32,476.65
27.83557,419.08,478.21
27.85559,416.21,478.12
27.87566,419.15,477.34
27.89619,416.65,479.62
27.91667,415.83,477.64
27.93687,417.81,478.34
27.95571,418.62,477.09
27.97638,418.85,475.29
27.99550,417.18,475.19
28.01618,420.46,475.79
28.03694,416.95,477.34
28.05682,416.89,475.70
28.07534,417.21,475.78
28.09544,415.15,477.93
28.11606,417.53,476.55
28.13683,415.22,476.89
28.15659,418.12,478.01
28.17594,420.17,478.23
28.19683,417.00,478.05
28.21622,418.36,480.39
28.23588,418.74,477.16
28.25555,418.04,478.53
28.27669,417.90,480.22
28.29624,419.64,481.22
28.31648,417.07,480.73
28.33513,416.29,481.50
28.35678,419.03,478.50
28.37629,416.12,480.12
28.39692,415.62,481.44
28.41592,417.58,479.51
28.43548,417.03,476.89
28.45606,416.58,477.62
28.47542,417.09,476.94
28.49612,415.60,478.38
28.51560,413.71,479.48
28.53701,413.63,479.90
28.55691,415.95,479.77
28.57607,415.82,479.88
28.59559,416.19,478.36
28.61637,415.31,479.65
28.63522,415.53,478.58
28.65687,417.30,477.16
28.67553,418.11,476.88
28.69688,415.22,477.11
28.71712,414.15,477.31
28.73506,414.74,481.84
28.75573,415.55,481.67
28.77538,413.59,480.46
28.79622,416.24,482.58
28.81645,413.15,479.02
28.83578,413.57,483.07
28.85664,413.73,481.03
28.87546,414.63,481.09
28.89653,414.06,480.27
28.91602,415.99,481.95
28.93599,418.39,481.78
28.95551,416.43,481.01
28.97686,419.75,479.54
28.99699,416.89,478.25
29.01586,416.09,480.00
29.03539,416.02,479.55
29.05690,416.86,477.68
29.07691,418.49,478.47
29.09521,415.78,480.45
29.11512,416.20,480.43
29.13716,418.82,480.14
29.15582,418.91,477.73
29.17613,417.57,478.03
29.19535,419.70,479.09
29.21660,419.21,477.47
29.23651,418.91,478.79
29.25618,417.41,476.93
29.27700,418.31,480.09
29.29635,419.41,478.68
29.31669,417.77,480.64
29.33552,420.63,478.95
29.35676,432.11,483.33
29.37513,456.15,488.93
29.39549,480.98,494.69
29.41505,506.00,500.47
29.43682,529.14,502.30
29.45670,543.23,500.35
29.47637,555.43,499.70
29.49693,556.93,496.99
29.51535,556.75,495.84
29.53655,556.18,495.63
29.55530,550.10,492.57
29.57663,537.97,492.11
29.59661,528.68,488.73
29.61603,517.31,488.91
29.63506,507.08,487.02
29.65646,496.71,486.35
29.67521,487.49,486.00
29.69575,479.15,484.54
29.71636,469.18,483.36
29.73599,463.27,483.65
29.75691,455.59,485.83
29.77571,449.86,484.51
29.79575,443.02,487.15
29.81660,441.68,484.11
29.83763,437.49,483.29
29.85793,436.51,484.26
29.87774,432.21,481.80
29.89701,429.76,481.09
29.91686,429.64,481.11
29.93700,428.55,480.65
29.95633,425.62,483.30
29.97766,426.38,479.96
29.99648,422.16,479.78
30.01763,420.04,480.67
30.03785,419.05,480.00
30.05707,420.15,480.51
30.07729,419.05,482.05
30.09751,420.72,480.78
30.11731,417.76,480.20
30.13767,418.55,480.40
30.15653,416.60,479.78
30.17680,417.99,481.86
30.19619,417.36,481.48
30.21804,417.88,483.06
30.23631,419.83,482.41
30.25786,419.26,481.11
30.27629,416.01,480.90
30.29668,416.36,481.50
30.31753,418.24,481.35
30.33786,417.21,482.62
30.35639,416.92,479.01
30.37635,415.21,479.09
30.39653,416.33,479.08
30.41688,416.26,480.39
30.43680,416.88,478.40
30.45704,414.20,481.29
30.47638,416.97,481.31
30.49717,416.85,480.21
30.51743,404.95,475.47
30.53711,384.42,474.18
30.55626,356.17,467.53
30.57789,327.06,459.72
30.59623,300.31,451.81
30.61741,278.43,445.56
30.63655,262.62,444.84
30.65644,257.85,444.81
30.67781,261.50,444.88
30.69808,270.91,447.24
30.71683,279.25,451.00
30.73623,292.88,453.87
30.75621,302.84,458.44
30.77719,314.47,460.75
30.79686,327.95,463.41
30.81808,339.35,468.41
30.83724,347.29,470.01
30.85795,354.00,470.88
30.87809,362.29,474.05
30.89698,369.30,476.74
30.91665,377.94,475.52
30.93673,381.94,475.12
30.95787,388.11,479.59
30.97687,389.90,477.01
30.99783,395.80,480.72
31.01759,400.21,481.58
31.03654,400.65,481.36
31.05754,403.18,481.13
31.07657,403.17,481.91
31.09781,403.06,479.03
31.11615,406.95,481.20
31.13654,405.81,482.45
31.15733,407.29,481.75
31.17634,410.10,482.03
31.19751,409.15,480.00
31.21608,412.02,479.33
31.23621,412.57,480.81
31.25670,413.36,480.24
31.27777,413.64,479.36
31.29676,412.24,478.36
31.31706,414.93,481.22
31.33662,413.06,479.15
31.35807,415.21,480.69
31.37643,413.00,481.45
31.39617,413.04,480.84
31.41624,412.18,480.22
31.43761,412.58,480.05
31.45721,414.47,481.21
31.47717,415.94,483.48
31.49741,416.30,483.46
31.51782,415.51,483.01
31.53637,416.22,483.92
31.55765,415.80,484.32
31.57692,414.15,486.50
31.59645,412.09,483.89
31.61716,412.55,483.39
31.63754,414.74,485.66
31.65742,416.92,483.96
31.67647,416.11,486.62
31.69739,417.56,485.49
31.71735,414.77,482.37
31.73756,415.58,481.72
31.75804,414.31,483.05
31.77753,414.84,481.92
31.79803,416.15,481.33
31.81716,414.37,484.56
31.83796,413.99,481.37
31.85756,414.91,482.17
31.87772,416.89,481.57
31.89746,416.95,482.95
31.91678,414.84,482.67
31.93784,414.89,484.75
31.95713,415.14,484.16
31.97645,417.22,483.34
31.99709,416.92,483.65
32.01786,417.01,483.22
32.03707,414.34,484.82
32.05625,416.24,482.68
32.07733,416.76,483.03
32.09761,414.34,485.38
32.11614,415.97,484.42
32.13723,414.29,486.37
32.15654,413.75,485.98
32.17671,414.71,485.82
32.19650,414.41,485.64
32.21744,413.96,486.41
32.23611,417.03,485.06
32.25673,413.85,483.91
32.27643,412.89,484.52
32.29722,415.30,482.75
32.31639,416.71,483.59
32.33640,414.23,485.30
32.35659,416.47,484.26
32.37745,414.91,487.45
32.39638,417.21,485.22
32.41666,415.97,485.70
32.43753,412.95,487.34
32.45744,414.77,485.34
32.47709,415.87,484.56
32.49760,414.27,487.09
32.51734,415.17,485.16
32.53741,415.18,483.33
32.55641,412.24,483.83
32.57749,410.65,484.00
32.59684,414.02,486.54
32.61703,411.92,486.91
32.63767,412.89,486.27
32.65711,415.85,487.77
32.67636,415.87,486.60
32.69631,414.34,486.23
32.71704,414.94,488.56
32.73643,416.17,488.85
32.75756,415.76,485.97
32.77756,413.59,487.50
32.79744,415.78,486.40
32.81773,414.24,484.44
32.83697,413.65,485.48
32.85772,411.43,487.34
32.87629,414.19,486.02
32.89770,412.51,484.18
32.91712,413.17,487.95
32.93682,413.20,486.86
32.95694,415.33,484.35
32.97616,416.80,485.23
32.99719,417.67,487.15
33.01675,414.92,486.29
33.03622,414.30,486.36
33.05703,413.42,487.03
33.07720,416.70,488.44
33.09710,417.11,485.23
33.11622,414.39,485.60
33.13644,416.87,484.21
33.15712,413.56,483.22
33.17693,412.11,484.69
33.19706,414.85,486.64
33.21651,411.76,486.56
33.23795,415.81,484.08
33.25695,413.48,487.71
33.27757,413.06,485.10
33.29653,414.69,486.75
33.31702,415.88,485.82
33.33722,416.05,485.21
33.35745,413.35,487.30
33.37767,414.63,486.87
33.39760,413.95,488.11
33.41779,412.34,487.81
33.43617,413.22,485.02
33.45687,413.10,488.65
33.47778,413.69,487.00
33.49776,414.28,485.27
33.51705,414.35,484.07
33.53650,412.66,487.69
33.55758,414.28,484.47
33.57592,413.74,486.91
33.59775,414.28,486.91
33.61734,412.02,486.00
33.63655,411.49,488.12
33.65622,411.66,488.64
33.67631,410.09,485.29
33.69634,409.98,487.32
33.71609,412.71,485.96
33.73623,410.41,487.97
33.75615,410.27,484.06
33.77679,410.29,485.46
33.79725,410.42,484.02
33.81770,410.73,483.58
33.83714,411.34,483.99
33.85751,411.43,484.38
33.87645,411.05,484.46
33.89680,409.86,485.47
33.91777,411.93,487.42
33.93788,412.44,485.77
33.95638,413.65,486.56
33.97781,411.49,485.08
33.99719,412.60,485.01
34.01784,411.53,485.67
34.03738,411.45,484.16
34.05797,410.25,486.73
34.07619,409.99,485.07
34.09710,409.01,486.63
34.11880,409.40,487.27
34.13725,410.39,486.57
34.15802,408.32,488.62
34.17758,407.67,485.40
34.19825,411.33,488.08
34.21843,409.78,484.60
34.23919,412.06,487.84
34.25892,412.34,486.21
34.27874,413.29,485.42
34.29939,412.08,489.47
34.31907,412.78,486.23
34.33858,414.26,486.89
34.35980,412.84,487.90
34.37967,413.42,488.32
34.39890,412.07,487.40
34.41961,409.14,488.73
34.43824,411.22,488.31
34.46003,410.55,487.79
34.47895,408.64,488.67
34.50000,409.07,485.20
34.51878,411.60,487.35
34.53937,409.09,484.93
34.55998,408.69,485.19
34.57851,410.75,485.11
34.59964,414.94,488.60
34.61916,429.44,493.39
34.63968,453.94,502.56
34.65847,480.86,513.94
34.67818,505.43,524.45
34.70009,526.79,530.31
34.71933,544.39,531.07
34.73930,552.23,527.61
34.75939,556.79,523.15
34.77908,556.20,519.20
34.79795,552.44,515.19
34.81834,545.63,506.96
34.83975,533.33,506.37
34.85834,524.00,501.15
34.87962,512.17,497.09
34.89901,501.43,496.73
34.92007,492.77,493.41
34.93900,480.27,495.08
34.95795,471.09,494.81
34.97889,465.02,491.38
34.99873,456.79,490.30
35.01854,449.61,491.87
35.03972,443.77,491.57
35.05943,439.32,489.91
35.07945,437.55,489.46
35.09863,430.45,489.32
35.11883,427.16,490.47
35.13943,427.26,490.62
35.15991,424.96,487.20
35.17817,420.62,489.21
35.19897,419.92,490.93
35.21917,417.95,491.73
35.23886,415.52,488.53
35.25979,415.72,490.37
35.27852,416.37,488.48
35.29900,416.47,488.67
35.31979,412.55,490.15
35.33793,414.77,489.57
35.35842,412.88,488.94
35.37826,414.08,488.73
35.39817,412.02,489.85
35.41890,412.17,490.69
35.43819,411.93,487.68
35.45816,411.92,490.36
35.47866,409.99,488.01
35.49939,409.13,490.52
35.51816,408.54,489.01
35.53868,409.11,490.70
35.55812,410.44,488.35
35.57953,407.61,489.91
35.59980,394.61,493.60
35.61865,372.74,494.61
35.63989,347.83,487.90
35.65939,322.49,477.91
35.67924,298.78,464.84
35.69853,278.90,452.95
35.71942,264.13,442.68
35.73893,256.63,441.85
35.75841,258.63,439.48
35.77872,267.48,443.74
35.79923,276.47,444.45
35.81804,286.86,445.81
35.83855,297.46,450.99
35.86003,310.04,453.51
35.87991,321.91,457.83
35.89963,329.39,462.88
35.91978,340.14,466.61
35.93900,350.55,469.39
35.95915,359.66,470.16
35.97871,364.58,473.99
35.99826,372.86,474.77
36.01790,378.58,478.56
36.03925,381.17,480.60
36.05912,385.91,481.64
36.07947,392.69,482.67
36.10002,395.58,481.15
36.11898,397.46,482.22
36.13940,399.63,485.19
36.15803,400.36,487.12
36.17875,400.95,488.31
36.19918,403.31,487.70
36.21833,403.63,485.89
36.23912,406.28,487.20
36.25888,406.17,487.18
36.27883,406.09,487.36
36.29824,407.76,488.20
36.31828,408.99,487.64
36.33984,409.52,486.75
36.35833,408.57,487.24
36.37808,409.47,487.79
36.39957,407.59,487.24
36.41886,408.61,486.40
36.43932,409.62,489.41
36.45820,408.89,487.37
36.47905,408.89,489.72
36.49935,408.04,488.99
36.51915,409.31,488.91
36.53855,409.08,488.89
36.55896,408.15,489.86
36.57969,410.53,487.40
36.59896,410.05,488.97
36.61921,409.81,489.44
36.63843,407.37,487.25
36.65929,409.67,490.50
36.67880,410.39,488.84
36.69820,411.21,489.77
36.71894,411.26,490.48
36.73960,411.47,489.07
36.75924,413.26,488.06
36.77844,411.77,490.17
36.79876,410.83,488.44
36.81837,410.00,487.27
36.83832,410.84,490.68
36.85873,411.51,489.48
36.87894,410.28,489.29
36.89850,411.22,491.01
36.91948,413.01,488.10
36.93861,412.31,489.87
36.95947,411.47,491.07
36.97907,410.62,489.43
36.99981,409.10,490.74
37.01979,409.27,490.57
37.03935,409.73,490.57
37.05847,409.78,488.01
37.07966,409.00,488.21
37.09997,409.54,488.99
37.11898,410.42,489.94
37.13825,411.04,489.75
37.15844,414.32,486.74
37.17862,413.43,488.72
37.19821,411.70,485.00
37.21859,413.42,486.03
37.23928,413.28,485.67
37.26028,415.22,487.47
37.27965,413.68,487.14
37.29923,413.54,488.87
37.31959,411.31,489.09
37.34082,411.65,488.85
37.36002,411.79,489.30
37.37943,413.69,490.44
37.40025,413.69,491.11
37.41975,410.97,488.84
37.43960,410.49,488.56
37.45964,410.20,491.89
37.48021,412.55,492.32
37.49964,414.00,491.82
37.52079,413.97,491.66
37.53997,413.71,490.21
37.55969,412.56,490.77
37.58045,412.08,492.77
37.59943,413.33,490.21
37.61994,411.05,492.38
37.63983,411.96,492.45
37.65906,412.04,491.62
37.67980,412.06,489.78
37.69970,412.76,488.60
37.71997,410.92,492.00
37.74073,410.57,488.98
37.76028,412.76,489.55
37.77917,411.46,490.51
37.80017,411.07,488.77
37.82089,412.00,487.83
37.83963,411.35,490.19
37.86067,412.80,487.70
37.87922,411.68,487.13
37.89982,413.56,488.19
37.92006,414.96,489.20
37.94015,411.86,488.68
37.95920,414.15,488.07
37.98096,412.54,488.63
38.00041,412.35,488.37
38.01921,415.27,491.62
38.03903,412.86,489.05
38.06034,413.37,489.12
38.07906,414.50,489.40
38.10081,410.98,493.32
38.12105,413.06,493.18
38.14027,413.10,492.36
38.15903,411.87,489.43
38.17992,412.78,491.84
38.20060,412.25,491.29
38.21986,415.42,489.66
38.24099,412.03,491.05
38.25944,413.72,492.01
38.27935,414.09,489.82
38.29924,414.05,490.24
38.31978,413.12,491.09
38.34085,415.84,492.62
38.35948,415.62,492.16
38.38065,414.31,489.91
38.40047,413.62,488.88
38.41926,413.63,491.28
38.43997,415.55,489.16
38.45992,413.11,487.57
38.48037,412.34,487.82
38.49901,413.06,490.46
38.52021,414.28,488.56
38.54017,413.61,487.52
38.55987,411.41,490.08
38.57996,415.28,490.51
38.59939,415.55,487.73
38.62010,416.32,489.43
38.64066,415.28,486.61
38.65894,415.25,486.61
38.67950,416.12,489.59
38.70053,414.81,487.98
38.72068,416.12,488.58
38.73968,418.11,489.00
38.76087,416.37,490.51
38.78050,416.33,489.82
38.80003,415.59,489.67
38.82096,417.66,486.35
38.84040,418.09,489.85
38.86008,417.93,488.99
38.87982,416.29,484.85
38.90024,414.96,487.46
38.91972,424.20,493.89
38.94010,445.67,503.90
38.95948,469.32,517.34
38.97968,498.20,532.91
38.99963,521.28,541.85
39.02079,539.97,542.58
39.03995,551.26,540.09
39.06034,557.32,534.23
39.07949,557.53,528.29
39.09989,552.01,524.59
39.11935,544.94,517.26
39.13937,539.42,511.53
39.16057,527.73,508.84
39.17966,517.30,506.20
39.20023,507.20,501.48
39.21904,498.43,496.98
39.23953,486.23,495.56
39.26043,480.36,493.62
39.28067,470.60,491.80
39.29989,464.17,492.54
39.32027,456.06,490.78
39.34069,450.79,491.64
39.35950,448.62,489.75
39.37988,442.57,487.20
39.39945,437.34,488.46
39.42077,434.38,487.95
39.43942,432.53,487.65
39.46072,430.53,489.25
39.47928,426.69,484.78
39.49945,426.05,487.76
39.51941,425.11,486.12
39.54023,422.85,489.10
39.56019,422.92,488.87
39.58037,418.84,489.76
39.60021,421.48,489.43
39.61994,418.61,490.38
39.63895,419.92,490.16
39.65998,419.30,489.91
39.68004,417.58,490.82
39.69894,419.37,491.71
39.71941,418.83,488.39
39.73883,414.77,488.08
39.76055,416.01,492.17
39.77969,415.09,489.85
39.79922,414.13,488.65
39.81978,415.52,491.95
39.83911,411.94,492.58
39.85934,399.94,496.31
39.88056,384.34,494.19
39.89967,362.34,492.30
39.92030,334.79,486.90
39.93991,311.97,477.63
39.96092,289.71,469.95
39.98082,272.32,462.71
40.00009,267.80,458.56
40.02052,268.01,453.77
40.04017,272.79,454.28
40.05995,282.84,454.55
40.08071,293.05,458.58
40.09906,304.18,461.09
40.12040,312.40,463.62
40.14003,323.53,466.21
40.15977,333.40,468.08
40.17986,343.37,469.48
40.20011,354.37,472.46
40.21994,363.02,474.08
40.24056,370.39,474.40
40.25940,375.58,475.93
40.28003,381.96,478.60
40.30017,386.69,479.37
40.31974,387.93,481.94
40.34100,393.23,481.01
40.36090,396.31,481.82
40.38107,397.73,485.43
40.40081,400.79,484.86
40.41922,403.79,486.20
40.43922,404.16,487.54
40.46089,404.72,488.79
40.48021,408.09,487.12
40.49970,406.81,489.42
40.51876,411.00,489.09
40.53928,410.07,490.17
40.56069,412.91,488.15
40.57979,412.53,490.93
40.59938,413.73,490.61
40.61911,414.16,489.58
40.64146,412.81,489.79
40.66019,413.87,491.68
40.68051,412.26,491.11
40.70114,413.09,489.06
40.72152,414.93,492.37
40.74024,412.28,491.57
40.76109,414.26,492.36
40.78159,412.09,490.87
40.80083,414.29,490.82
40.82033,414.56,492.18
40.84161,414.98,490.82
40.86014,417.52,488.06
40.87997,416.08,488.25
40.90013,416.18,490.39
40.91991,414.97,488.48
40.94151,413.04,489.49
40.96260,413.35,488.66
40.98163,413.15,486.73
41.00166,413.19,486.92
41.02091,414.92,487.60
41.04125,411.46,486.36
41.06116,414.43,485.62
41.08113,415.45,484.60
41.10143,414.59,484.37
41.12143,413.39,486.71
41.14201,414.73,488.06
41.16249,415.24,483.77
41.18186,415.86,486.03
41.20244,413.53,486.77
41.22184,416.21,483.92
41.24198,414.82,485.31
41.26174,416.95,485.17
41.28217,419.01,487.00
41.30278,418.41,487.80
41.32265,417.79,486.59
41.34241,415.60,485.87
41.36149,416.37,486.58
41.38141,413.55,487.16
41.40225,417.04,487.15
41.42208,414.55,486.91
41.44127,414.80,484.74
41.46209,414.29,487.05
41.48230,418.08,485.82
41.50094,417.04,485.70
41.52253,416.29,484.07
41.54197,413.10,485.88
41.56208,413.46,482.20
41.58147,413.01,485.76
41.60220,412.72,486.55
41.62289,414.34,487.42
41.64245,412.37,487.64
41.66096,415.04,483.89
41.68151,412.68,486.37
41.70203,413.71,485.23
41.72148,415.91,486.19
41.74139,415.89,485.09
41.76171,416.43,484.06
41.78103,414.74,483.40
41.80085,413.91,484.88
41.82086,414.06,484.70
41.84167,413.35,486.63
41.86115,413.35,485.56
41.88217,412.24,487.67
41.90145,415.75,486.50
41.92114,415.84,489.13
41.94104,416.07,488.25
41.96144,415.44,488.41
41.98201,412.80,489.28
42.00196,412.34,489.41
42.02237,415.37,487.48
42.04219,413.53,488.79
42.06274,414.62,487.16
42.08170,413.11,488.83
42.10185,413.52,487.60
42.12169,413.82,489.54
42.14260,415.52,487.88
42.16257,410.51,490.24
42.18237,405.20,493.09
42.20233,402.75,506.33
42.22160,400.85,522.26
42.24092,398.67,541.16
42.26152,399.59,558.37
42.28153,396.96,560.37
42.30260,394.84,546.47
42.32230,391.02,528.91
42.34266,394.63,511.22
42.36111,391.55,490.09
42.38258,393.97,469.88
42.40274,395.39,459.02
42.42272,397.71,445.53
42.44279,398.69,437.31
42.46118,399.85,432.84
42.48192,402.89,432.67
42.50155,405.77,435.03
42.52225,406.94,434.42
42.54153,404.15,437.64
42.56252,405.63,441.96
42.58277,404.42,444.19
42.60098,406.58,449.88
42.62106,407.43,453.20
42.64283,409.33,456.12
42.66199,407.96,461.04
42.68103,410.59,463.98
42.70260,412.66,468.02
42.72154,410.58,471.79
42.74243,413.92,477.03
42.76098,414.28,482.48
42.78218,411.58,482.47
42.80124,410.89,484.55
42.82227,414.43,487.54
42.84283,414.67,488.61
42.86192,416.38,490.79
42.88192,416.59,493.07
42.90151,417.04,495.85
