Program Time [s],data 0,data 1
10.15963,543.36,638.83
10.18002,552.47,634.28
10.19992,563.04,616.79
10.21981,564.79,590.48
10.23955,561.82,568.49
10.25952,557.35,547.42
10.28045,554.42,528.44
10.30139,549.28,513.90
10.31941,541.71,499.60
10.34066,537.64,491.57
10.35951,534.74,486.11
10.38133,527.55,482.20
10.39973,525.34,479.71
10.42139,520.15,476.98
10.44127,520.34,477.82
10.46071,517.91,477.22
10.48075,522.14,474.39
10.50127,522.79,471.08
10.52044,524.41,469.57
10.54169,522.53,475.70
10.56094,523.08,478.88
10.58125,523.88,485.40
10.60044,522.38,485.61
10.62076,522.51,488.66
10.64045,528.72,495.80
10.66099,529.99,496.17
10.68050,524.83,505.50
10.70149,520.51,508.94
10.72021,520.36,510.60
10.74128,517.74,514.22
10.75987,516.75,515.96
10.78057,515.12,516.72
10.80072,517.09,517.77
10.82191,516.03,519.30
10.84233,514.06,520.72
10.86149,512.82,518.57
10.88212,515.51,521.37
10.90286,518.57,520.69
10.92298,516.80,520.75
10.94213,515.09,520.82
10.96183,515.25,519.50
10.98283,516.62,519.13
11.00279,515.88,521.85
11.02373,518.77,523.24
11.04376,510.37,523.11
11.06464,489.59,517.21
11.08580,469.63,508.50
11.10597,452.71,507.03
11.12737,445.75,502.56
11.14781,441.31,503.69
11.16952,441.94,504.39
11.18870,442.43,507.66
11.20824,440.90,509.68
11.22838,446.70,510.27
11.24885,450.44,515.64
11.26944,457.19,522.47
11.29020,461.71,524.42
11.30996,464.83,528.20
11.33085,468.05,529.63
11.35070,473.90,531.04
11.37101,477.75,533.16
11.38980,480.42,535.41
11.41086,482.58,535.61
11.43157,475.58,521.76
11.45139,465.16,501.11
11.47045,457.26,490.49
11.49127,456.85,486.30
11.51107,456.16,490.35
11.53013,455.54,484.56
11.55041,458.08,493.01
11.57038,462.37,491.24
11.59016,467.75,495.88
11.61166,470.15,498.99
11.63328,472.23,504.83
11.65280,483.78,521.61
11.67350,495.66,546.84
11.69367,509.03,570.97
11.71370,518.41,592.60
11.73545,523.92,600.49
11.75702,532.45,586.46
11.77677,540.25,586.55
11.79700,540.90,574.24
11.81612,541.72,580.96
11.83671,536.63,588.59
11.85552,541.79,562.16
11.87714,536.31,556.06
11.89838,537.35,556.69
11.91809,532.59,540.17
11.93936,521.62,504.28
11.95818,518.05,485.55
11.97814,509.30,467.17
11.99781,502.02,457.42
12.01933,497.49,467.82
12.03927,499.72,458.29
12.05982,495.92,451.49
12.07893,498.78,451.28
12.09976,503.19,459.05
12.11974,502.86,458.96
12.14022,507.81,465.83
12.16019,509.53,478.17
12.18135,515.11,485.03
12.20107,518.66,484.21
12.22022,515.04,483.31
12.23991,516.23,494.37
12.26125,518.96,498.86
12.28086,520.86,483.64
12.29952,521.96,491.44
12.31990,519.83,495.77
12.34047,518.21,496.34
12.35951,518.61,492.29
12.38024,523.95,487.09
12.39991,520.94,500.16
12.42148,523.40,495.72
12.44087,521.59,506.14
12.46084,518.61,508.73
12.48083,521.60,501.30
12.49941,521.60,495.18
12.51994,522.28,493.60
12.53985,518.10,521.63
12.56132,521.21,519.38
12.57968,515.18,513.77
12.60050,517.27,501.61
12.61981,522.11,498.00
12.64012,526.27,503.34
12.66129,526.45,505.22
12.68157,524.18,512.61
12.70083,526.50,508.69
12.72230,524.43,519.95
12.74070,525.57,518.81
12.76219,524.25,508.40
12.78205,520.06,510.74
12.80115,523.44,512.40
12.82202,519.84,515.58
12.84176,499.82,537.30
12.86204,483.25,551.18
12.88136,469.08,557.73
12.90117,466.97,562.00
12.92106,470.69,565.68
12.94144,478.51,556.63
12.96058,481.90,562.75
12.98216,491.02,567.64
13.00155,501.45,566.57
13.02185,506.60,562.17
13.04048,515.47,561.58
13.06097,520.17,555.25
13.08177,526.65,552.50
13.10213,528.08,567.61
13.12249,530.41,557.69
13.14204,534.05,551.15
13.16067,533.37,549.23
13.18319,529.58,545.19
13.20211,530.97,547.28
13.22319,530.56,555.90
13.24257,528.67,563.31
13.26297,530.28,559.81
13.28317,534.18,550.81
13.30346,541.87,543.76
13.32327,545.96,551.61
13.34186,543.41,554.87
13.36365,542.04,544.65
13.38396,537.85,542.83
13.40515,539.04,552.33
13.42454,533.57,547.05
13.44445,529.81,544.38
13.46640,524.61,539.96
13.48572,524.90,536.96
13.50533,524.08,525.09
13.52507,524.20,527.83
13.54654,526.94,526.39
13.56561,536.08,532.99
13.58600,548.08,540.83
13.60774,552.80,531.44
13.62940,552.91,529.95
13.64893,547.37,536.13
13.67009,542.31,535.97
13.69020,535.15,540.47
13.71248,529.93,546.70
13.73121,534.34,566.45
13.75224,540.78,608.50
13.77165,540.83,645.62
13.79073,545.39,652.90
13.81023,544.04,652.73
13.83177,543.42,632.07
13.85161,530.61,598.62
13.87191,511.70,572.25
13.89212,492.90,548.67
13.91319,477.34,514.96
13.93283,469.53,493.29
13.95241,464.34,474.89
13.97365,461.76,466.03
13.99533,468.04,462.09
14.01636,468.85,453.19
14.03558,472.67,463.31
14.05663,481.14,463.49
14.07693,485.50,471.13
14.09708,491.23,469.43
14.11552,494.24,468.19
14.13561,495.19,464.24
14.15631,497.22,467.61
14.17717,498.46,464.15
14.19614,501.65,478.59
14.21597,502.81,491.81
14.23711,505.75,489.14
14.25626,504.90,493.07
14.27651,507.40,490.71
14.29547,506.06,492.54
14.31622,507.15,490.47
14.33632,502.56,489.39
14.35653,504.16,479.95
14.37625,502.75,479.07
14.39551,505.23,478.71
14.41657,500.92,474.66
14.43549,501.70,480.66
14.45616,503.53,486.15
14.47725,501.49,483.14
14.49686,502.02,493.12
14.51720,510.76,500.02
14.53712,511.88,524.08
14.55594,512.76,559.91
14.57734,509.34,580.35
14.59706,505.96,579.81
14.61610,506.94,564.09
14.63682,507.42,533.39
14.65764,504.16,508.15
14.67678,502.58,483.17
14.69573,504.70,461.96
14.71572,503.86,444.05
14.73759,504.61,438.14
14.75673,505.33,442.28
14.77591,505.10,434.13
14.79613,508.22,429.43
14.81594,510.74,448.61
14.83677,494.81,462.23
14.85582,497.33,473.67
14.87576,498.31,487.31
14.89603,507.53,533.06
14.91593,521.75,579.42
14.93563,532.77,626.02
14.95648,544.69,649.39
14.97656,554.52,661.59
14.99770,557.32,675.90
15.01777,563.61,700.19
15.03829,569.91,708.84
15.05725,574.72,715.25
15.07845,576.77,710.51
15.09736,570.43,704.51
15.11684,562.96,686.04
15.13754,549.16,645.17
15.15713,524.75,600.53
15.17730,508.79,553.51
15.19754,496.32,502.96
15.21666,492.93,475.15
15.23812,491.50,457.31
15.25890,493.10,445.55
15.28000,491.55,448.10
15.30117,487.13,439.89
15.32116,481.68,440.59
15.34116,485.72,445.48
15.35987,489.30,448.03
15.37957,491.03,461.75
15.40141,495.31,469.03
15.42061,498.11,478.09
15.44109,497.75,487.06
15.46082,509.78,486.60
15.48303,509.71,489.53
15.50159,506.90,502.07
15.52180,503.06,506.57
15.54245,507.95,514.08
15.56207,509.65,522.16
15.58365,502.59,526.35
15.60160,504.47,533.80
15.62281,501.02,540.73
15.64253,498.93,538.01
15.66303,498.76,548.94
15.68223,498.82,551.84
15.70180,502.42,556.59
15.72292,501.68,563.34
15.74163,502.36,568.90
15.76144,507.35,570.20
15.78293,509.26,573.71
15.80328,518.86,566.70
15.82211,518.48,547.80
15.84301,516.92,523.94
15.86198,514.23,499.99
15.88231,510.55,479.58
15.90282,509.14,468.28
15.92175,501.45,453.17
15.94318,501.67,449.98
15.96303,498.32,443.47
15.98326,495.28,441.98
16.00151,496.34,445.19
16.02233,495.81,450.02
16.04318,495.06,458.36
16.06270,494.22,466.20
16.08498,498.77,481.60
16.10507,497.47,492.95
16.12381,504.02,497.64
16.14512,500.27,503.80
16.16608,497.51,509.00
16.18701,498.71,519.48
16.20657,499.06,533.91
16.22628,503.23,539.96
16.24665,501.41,546.20
16.26629,491.26,551.11
16.28734,495.60,554.22
16.30574,501.73,556.25
16.32719,498.73,559.96
16.34630,496.55,557.60
16.36667,499.39,557.84
16.38775,493.39,559.31
16.40775,493.34,555.33
16.42827,490.29,561.84
16.44753,496.91,561.75
16.46880,493.03,558.49
16.48941,496.76,562.85
16.51071,493.32,560.30
16.52983,499.19,558.54
16.55077,494.60,556.18
16.56953,499.05,558.68
16.59041,500.67,556.25
16.61038,501.06,558.62
16.63108,500.64,557.21
16.65017,503.01,551.99
16.67056,501.67,554.80
16.68951,501.18,555.40
16.71123,503.42,552.38
16.73247,503.10,553.41
16.75415,503.40,554.52
16.77355,503.37,550.83
16.79252,502.94,550.62
16.81285,502.28,557.57
16.83378,506.01,581.33
16.85398,508.68,622.08
16.87419,513.55,671.61
16.89417,512.60,700.61
16.91295,518.99,723.78
16.93279,521.61,730.46
16.95277,524.63,720.75
16.97443,518.72,704.80
16.99334,520.50,687.72
17.01426,516.49,672.75
17.03252,515.98,653.95
17.05326,518.49,638.39
17.07369,512.48,623.96
17.09310,511.37,609.38
17.11407,517.02,603.26
17.13354,518.53,592.04
17.15401,517.73,589.72
17.17390,521.88,589.34
17.19367,517.22,590.88
17.21381,522.00,588.84
17.23521,521.41,584.68
17.25464,525.03,584.26
17.27424,524.31,578.68
17.29504,519.69,576.78
17.31629,522.33,574.97
17.33472,518.98,572.68
17.35475,514.99,572.03
17.37617,517.23,572.41
17.39483,519.70,565.85
17.41587,515.97,564.55
17.43532,516.60,563.45
17.45543,516.96,560.30
17.47649,518.20,562.72
17.49636,517.42,561.72
17.51682,516.61,560.81
17.53633,516.82,561.17
17.55573,514.88,556.85
17.57650,520.97,555.24
17.59749,519.24,555.02
17.61786,517.65,554.26
17.63676,516.18,556.87
17.65821,515.93,552.84
17.67732,515.45,555.22
17.69771,513.31,551.77
17.71678,513.81,552.42
17.73795,513.51,551.60
17.75673,512.24,553.79
17.77808,513.33,554.09
17.79754,514.07,553.12
17.81742,514.67,546.86
17.83671,510.63,552.50
17.85641,512.06,550.63
17.87642,513.70,553.37
17.89741,510.07,555.11
17.91833,511.85,552.33
17.93699,512.18,551.66
17.95780,512.86,552.24
17.97718,511.57,552.21
17.99702,511.13,549.78
18.01683,510.13,547.76
18.03672,513.32,539.16
18.05800,509.86,519.53
18.07712,504.92,497.20
18.09680,500.86,472.96
18.11865,495.55,452.13
18.13766,490.61,433.47
18.15920,486.30,418.83
18.17842,486.54,407.92
18.19909,486.10,401.58
18.21936,488.01,395.65
18.23979,487.92,395.42
18.25844,488.67,398.31
18.27822,491.18,399.85
18.29993,495.40,406.23
18.31952,498.21,418.01
18.33914,500.95,428.99
18.35910,501.20,443.16
18.38019,501.67,451.59
18.39866,502.59,463.23
18.42011,500.58,473.31
18.43861,502.45,481.61
18.45979,504.83,493.11
18.47916,502.81,496.78
18.50015,502.30,504.67
18.51883,504.00,511.76
18.53953,503.15,515.26
18.55966,506.24,519.63
18.57923,503.65,521.02
18.60028,503.14,526.32
18.62012,506.08,529.02
18.63880,504.82,531.51
18.65962,503.78,532.66
18.67858,501.09,531.63
18.69978,501.30,532.63
18.71875,503.41,537.97
18.73890,505.89,538.15
18.75972,506.02,540.49
18.78005,505.07,541.35
18.80005,504.81,540.33
18.81903,506.44,542.25
18.83847,505.40,543.18
18.85998,506.86,542.19
18.87954,503.24,544.15
18.89999,503.58,541.72
18.92079,503.75,542.52
18.93991,501.97,541.44
18.96030,502.63,550.37
18.97932,505.53,579.51
19.00099,508.27,636.57
19.02106,514.37,706.66
19.04075,514.64,750.23
19.06057,518.05,777.76
19.08135,514.58,781.99
19.10063,515.84,773.63
19.11923,512.73,752.16
19.14103,507.60,722.91
19.16106,503.01,698.52
19.18079,500.85,667.18
19.20058,499.87,649.26
19.22043,496.16,623.56
19.23993,499.37,606.78
19.26074,495.80,594.50
19.28047,496.82,582.37
19.30119,496.76,572.52
19.31943,496.03,565.13
19.33979,496.87,561.31
19.36003,498.55,553.65
19.38116,495.60,549.56
19.40148,493.08,543.25
19.42155,492.65,537.96
19.44188,491.74,537.27
19.46195,492.49,533.48
19.48133,493.48,536.04
19.50153,495.43,531.81
19.52065,493.59,531.24
19.54216,493.36,529.69
19.56057,492.13,528.70
19.58227,491.41,531.55
19.60084,491.51,529.53
19.62193,491.65,531.33
19.64109,491.37,533.65
19.66103,493.89,533.87
19.68126,495.14,531.61
19.70207,495.76,532.96
19.72141,495.09,532.05
19.74180,493.44,531.07
19.76155,493.06,531.50
19.78073,496.46,531.56
19.80226,496.43,534.42
19.82071,497.10,536.23
19.84165,497.47,538.03
19.86109,495.32,534.60
19.88153,495.34,534.03
19.90050,495.41,533.07
19.92061,494.62,534.79
19.94079,498.01,534.73
19.96105,496.42,536.17
19.98117,495.51,534.02
20.00192,498.19,535.25
20.02172,498.18,533.75
20.04031,498.94,534.50
20.06186,496.47,531.29
20.08136,498.20,533.66
20.10100,496.89,534.05
20.12065,497.17,534.91
20.14238,499.37,533.58
20.16151,501.64,534.66
20.18146,500.38,534.47
20.20076,502.66,533.82
20.22105,504.89,532.84
20.24214,506.53,530.33
20.26121,503.81,531.06
20.28202,503.58,532.92
20.30159,505.59,530.86
20.32186,500.12,532.12
20.34063,502.85,532.37
20.36260,501.54,531.50
20.38294,499.89,529.77
20.40413,499.87,532.35
20.42273,497.68,530.48
20.44368,500.61,532.36
20.46350,502.10,533.86
20.48501,503.04,534.08
20.50475,503.35,534.04
20.52547,507.31,532.78
20.54602,508.91,533.92
20.56676,507.00,535.16
20.58750,509.27,535.44
20.60797,515.54,535.43
20.62853,516.10,535.58
20.64924,514.97,535.82
20.66966,516.38,538.43
20.69137,518.38,538.35
20.70974,515.23,537.74
20.72953,515.19,540.78
20.75137,513.62,540.72
20.76960,514.55,537.25
20.78982,514.27,540.57
20.81124,516.10,539.77
20.83110,518.59,538.79
20.85063,517.08,538.94
20.87104,518.68,539.68
20.88991,520.79,541.24
20.90962,518.19,542.24
20.92986,521.33,540.33
20.94960,521.55,540.48
20.96962,519.80,542.32
20.98986,517.98,544.35
21.00978,519.08,544.92
21.03130,518.46,540.82
21.05042,520.20,529.16
21.07087,524.97,519.73
21.08942,533.42,504.02
21.10959,534.45,492.17
21.12982,539.40,475.29
21.15092,538.01,458.04
21.17099,532.76,445.43
21.18991,529.22,431.54
21.21140,524.89,424.93
21.22969,522.60,416.37
21.25239,517.51,412.90
21.27141,514.55,412.13
21.29183,511.41,413.59
21.31169,508.31,418.57
21.33082,506.35,427.20
21.35096,505.03,434.34
21.37172,504.44,443.19
21.39157,505.48,453.53
21.41044,504.92,465.95
21.43216,504.50,474.49
21.45226,505.14,478.97
21.47296,504.74,487.83
21.49266,502.00,495.65
21.51141,503.59,503.27
21.53293,504.23,509.25
21.55210,504.29,513.30
21.57263,506.26,519.37
21.59184,505.98,521.44
21.61160,507.33,524.82
21.63190,505.14,526.48
21.65290,507.36,528.32
21.67355,507.76,530.83
21.69174,506.00,531.12
21.71230,505.62,535.24
21.73340,502.93,534.09
21.75364,506.22,535.59
21.77371,506.91,534.04
21.79359,503.42,535.39
21.81353,504.18,535.71
21.83320,502.42,537.38
21.85416,504.55,543.30
21.87354,508.41,559.10
21.89240,514.24,602.82
21.91355,521.82,684.37
21.93365,529.08,750.93
21.95259,535.17,804.98
21.97309,538.24,824.17
21.99408,533.22,821.42
22.01489,530.24,799.70
22.03500,521.26,766.45
22.05371,517.13,732.37
22.07418,514.69,695.72
22.09558,507.42,658.97
22.11505,504.97,628.68
22.13723,500.38,601.19
22.15647,496.93,580.52
22.17562,495.02,560.84
22.19575,492.74,551.46
22.21609,494.48,541.24
22.23603,493.51,533.71
22.25648,494.18,530.69
22.27662,492.28,524.20
22.29689,491.37,518.72
22.31726,489.17,513.68
22.33680,488.26,508.50
22.35713,486.39,510.08
22.37764,488.30,507.52
22.39634,486.92,508.36
22.41774,487.21,510.39
22.43818,488.61,508.08
22.45777,491.44,508.35
22.47770,492.45,512.48
22.49670,492.23,512.34
22.51797,492.04,515.43
22.53697,494.39,514.54
22.55697,495.63,518.59
22.57740,494.60,516.67
22.59715,500.26,519.41
22.61741,497.09,518.52
22.63828,498.47,521.25
22.65881,496.97,522.78
22.67815,498.58,525.07
22.69841,496.89,522.43
22.71796,500.03,523.61
22.73926,500.64,524.10
22.75866,499.07,523.60
22.77830,502.13,523.41
22.79915,504.35,526.05
22.81809,503.13,527.46
22.83808,499.97,525.53
22.85929,498.41,524.56
22.87765,497.86,525.26
22.89816,497.90,525.85
22.91743,495.66,525.23
22.93796,495.20,526.43
22.95753,495.78,527.59
22.97780,494.43,530.85
22.99884,496.87,528.48
23.01768,498.60,531.77
23.03878,496.21,530.34
23.05747,498.17,530.32
23.07768,499.27,531.12
23.09778,498.05,529.22
23.11884,500.86,531.24
23.13777,500.49,531.56
23.15807,497.32,528.42
23.17871,498.75,528.79
23.19748,500.57,530.10
23.21920,499.86,528.25
23.23835,498.26,531.05
23.25882,498.89,531.65
23.27897,501.52,530.49
23.29727,501.00,532.88
23.31854,501.93,531.76
23.33756,500.53,529.02
23.35888,499.92,530.85
23.37871,499.49,531.20
23.39820,501.06,532.07
23.41837,501.26,530.45
23.43876,503.51,529.79
23.45909,501.17,525.79
23.47781,502.30,527.59
23.49778,503.65,527.27
23.51882,503.28,524.91
23.53736,504.61,525.02
23.55790,501.99,526.70
23.57736,504.45,526.55
23.59749,501.33,530.59
23.61821,502.93,528.51
23.63801,499.51,528.66
23.65734,500.79,529.09
23.67837,500.51,529.01
23.69876,502.97,528.87
23.71879,499.13,532.21
23.73906,499.28,529.25
23.75902,498.79,530.90
23.77813,497.98,529.57
23.79838,499.66,529.38
23.81872,500.19,525.80
23.83741,500.64,528.96
23.85887,502.18,527.00
23.87815,501.51,525.42
23.89794,502.28,524.53
23.91838,504.11,526.59
23.93929,503.80,525.82
23.95922,501.76,527.58
23.97747,501.66,526.34
23.99744,501.98,525.49
24.01793,505.50,528.43
24.03878,503.83,527.26
24.05896,504.65,526.54
24.07920,501.13,527.55
24.09836,505.52,529.18
24.11924,503.48,528.49
24.13818,503.50,529.92
24.15758,501.43,530.11
24.17839,501.45,530.14
24.19913,504.11,529.47
24.21753,503.61,527.79
24.23912,505.39,516.44
24.25766,501.87,498.81
24.27822,502.34,476.42
24.29800,502.30,455.43
24.31902,501.03,439.54
24.33806,501.35,422.79
24.35841,498.87,413.91
24.37903,496.24,409.40
24.39939,491.41,406.13
24.41929,492.92,401.91
24.43863,493.56,408.40
24.45848,494.68,413.83
24.47792,496.05,421.92
24.49853,495.81,432.30
24.51753,499.50,441.64
24.53891,499.17,453.42
24.55768,500.38,462.42
24.57741,501.79,469.93
24.59761,500.36,478.36
24.61751,501.92,484.78
24.63799,499.26,488.93
24.65777,503.67,495.55
24.67921,505.99,499.92
24.69911,507.18,501.71
24.71812,508.66,505.54
24.73828,508.69,507.85
24.75891,508.80,513.14
24.77866,506.92,513.49
24.79806,505.99,517.77
24.81883,505.92,520.49
24.83881,506.11,522.07
24.85801,505.98,520.78
24.87826,504.65,524.89
24.89812,506.79,522.73
24.91927,507.12,524.60
24.93899,507.14,526.12
24.95852,505.27,525.73
24.97769,508.37,526.10
24.99919,508.36,526.01
25.01734,506.14,525.13
25.03747,509.03,528.23
25.05771,507.55,527.09
25.07922,507.84,529.23
25.09770,507.02,529.98
25.11773,508.38,529.87
25.13820,508.81,529.30
25.15750,506.12,529.32
25.17747,509.09,529.70
25.19854,504.74,529.23
25.21775,506.41,530.13
25.23766,504.51,527.78
25.25897,508.36,529.25
25.27778,510.46,536.48
25.29845,514.88,560.13
25.31865,516.35,598.48
25.33873,512.61,631.00
25.35904,513.94,658.29
25.37752,517.52,682.73
25.39723,522.53,694.18
25.41928,523.97,700.03
25.43862,527.50,689.33
25.45804,522.59,678.63
25.47860,523.80,658.29
25.49848,520.88,639.77
25.51826,520.56,627.88
25.53958,521.01,612.08
25.55861,520.54,599.75
25.57860,520.29,585.25
25.59811,519.48,578.69
25.61883,516.95,570.07
25.63922,516.94,563.06
25.65999,516.75,560.27
25.67922,514.27,553.17
25.69824,517.44,550.76
25.71900,519.66,546.08
25.73942,519.20,543.87
25.75864,520.60,540.11
25.77970,517.49,541.03
25.79976,518.44,538.04
25.81867,517.08,534.20
25.83855,517.98,533.13
25.85950,516.52,532.23
25.87920,514.29,528.95
25.89815,516.12,527.42
25.91971,514.00,527.14
25.93828,518.15,528.58
25.95879,517.33,525.28
25.97904,517.14,526.80
25.99917,516.38,525.78
26.01899,518.89,527.44
26.03905,516.29,528.16
26.06007,516.62,527.72
26.07995,516.93,529.38
26.09912,516.80,527.23
26.11889,514.87,529.66
26.13861,516.58,530.71
26.15917,516.72,528.89
26.17942,514.67,531.77
26.19952,517.41,530.35
26.21942,516.63,530.82
26.23960,517.48,529.32
26.25834,517.20,531.11
26.27823,516.81,530.53
26.29844,519.61,529.01
26.31909,519.21,532.33
26.33858,518.47,528.02
26.35903,516.39,527.50
26.37877,513.37,531.04
26.40042,514.21,530.35
26.42025,514.86,531.05
26.44092,515.32,530.95
26.46102,516.87,532.74
26.47977,515.64,533.44
26.50052,516.06,531.52
26.52074,515.68,534.78
26.54099,517.08,534.35
26.55960,515.69,531.93
26.57919,513.87,535.09
26.59960,518.07,533.54
26.62066,517.43,533.55
26.64056,519.51,534.11
26.65963,515.39,532.95
26.68013,516.44,532.85
26.70156,519.25,536.54
26.72102,517.84,535.81
26.74177,520.55,534.26
26.76193,520.12,532.55
26.78113,518.63,536.63
26.80170,517.20,534.47
26.82087,517.39,534.51
26.84219,514.56,534.93
26.86117,512.73,536.84
26.88052,515.31,534.63
26.90097,513.25,535.09
26.92041,514.87,534.00
26.94042,511.54,532.16
26.96130,511.62,532.58
26.98140,513.52,534.76
27.00065,514.23,534.52
27.02179,510.69,534.39
27.04166,514.92,532.33
27.06321,515.55,534.69
27.08205,514.38,534.49
27.10221,515.07,535.01
27.12154,516.02,533.72
27.14156,516.37,531.33
27.16117,514.00,531.27
27.18347,514.71,530.56
27.20342,516.24,532.30
27.22310,513.43,530.59
27.24236,514.67,532.40
27.26387,512.78,531.06
27.28213,511.33,530.49
27.30350,513.86,531.45
27.32279,510.37,529.35
27.34370,508.82,530.78
27.36352,509.43,531.46
27.38347,510.41,532.03
27.40299,509.02,531.91
27.42334,508.35,531.54
27.44212,507.92,531.20
27.46277,507.84,529.50
27.48342,507.06,529.09
27.50354,506.23,531.04
27.52336,505.64,529.50
27.54245,506.43,530.74
27.56248,506.42,530.72
27.58368,507.38,530.11
27.60421,504.97,533.03
27.62277,506.10,531.44
27.64377,505.58,533.71
27.66331,506.25,533.35
27.68234,506.15,531.80
27.70273,509.12,535.05
27.72315,507.59,534.64
27.74351,505.68,534.56
27.76320,507.32,533.11
27.78249,504.81,529.24
27.80369,508.40,528.10
27.82280,504.39,528.92
27.84372,506.60,529.08
27.86249,506.02,528.63
27.88329,506.36,526.18
27.90343,506.60,526.92
27.92305,505.15,524.79
27.94278,505.34,528.44
27.96351,506.10,527.00
27.98398,508.04,526.69
28.00368,505.96,530.27
28.02268,504.55,531.66
28.04378,503.35,530.82
28.06263,501.11,528.40
28.08335,498.55,524.36
28.10326,494.20,515.92
28.12229,487.51,501.79
28.14299,479.76,483.03
28.16317,473.24,466.01
28.18211,470.74,443.38
28.20406,469.24,424.79
28.22290,472.49,407.12
28.24272,473.11,396.47
28.26347,475.45,388.48
28.28341,477.66,385.30
28.30367,483.61,385.67
28.32302,484.74,391.10
28.34338,489.61,397.86
28.36257,492.85,406.91
28.38340,499.06,416.03
28.40402,500.16,428.43
28.42337,502.69,441.18
28.44253,501.16,450.83
28.46390,501.96,458.12
28.48378,504.16,469.22
28.50400,504.33,479.19
28.52270,503.41,485.79
28.54348,505.04,494.28
28.56336,504.65,500.48
28.58352,503.40,505.99
28.60235,500.75,507.74
28.62233,501.93,509.57
28.64349,499.84,512.99
28.66265,500.96,513.76
28.68246,501.63,517.78
28.70258,501.57,518.00
28.72326,501.86,518.94
28.74408,503.48,518.84
28.76212,503.35,523.24
28.78307,502.17,521.87
28.80237,502.32,523.58
28.82290,500.38,521.09
28.84417,498.16,522.09
28.86315,499.23,520.95
28.88292,501.14,521.66
28.90264,502.16,526.54
28.92378,497.87,525.46
28.94330,497.94,524.28
28.96305,500.37,524.24
28.98363,501.78,527.68
29.00311,502.59,526.72
29.02291,501.27,526.05
29.04381,502.63,526.31
29.06289,501.64,536.45
29.08326,500.80,557.91
29.10314,496.30,590.13
29.12385,496.78,630.88
29.14369,501.72,668.62
29.16294,502.67,697.73
29.18382,510.21,712.34
29.20264,511.00,718.13
29.22378,511.80,708.24
29.24406,514.82,691.84
29.26292,511.25,675.49
29.28237,508.55,656.17
29.30288,509.34,634.96
29.32273,509.76,622.20
29.34331,508.59,606.70
29.36269,509.74,596.28
29.38280,505.87,583.42
29.40376,506.15,575.82
29.42402,505.43,564.70
29.44347,505.54,559.42
29.46321,504.39,551.94
29.48295,506.02,548.08
29.50327,504.18,545.12
29.52344,500.95,541.79
29.54330,499.87,538.72
29.56297,501.70,536.47
29.58395,502.23,534.80
29.60203,501.24,534.87
29.62304,498.57,530.73
29.64267,497.50,528.41
29.66364,498.36,529.83
29.68388,495.45,528.28
29.70255,497.39,526.54
29.72382,496.69,526.36
29.74393,497.05,525.23
29.76377,494.35,528.14
29.78356,497.89,526.57
29.80411,498.40,528.21
29.82310,498.85,526.37
29.84356,495.35,525.60
29.86230,496.39,524.42
29.88316,499.13,524.85
29.90398,497.29,523.92
29.92294,496.21,525.12
29.94299,496.37,525.65
29.96224,498.40,525.98
29.98340,498.24,524.14
30.00323,498.71,524.77
30.02257,497.95,525.75
30.04283,498.06,526.32
30.06356,497.00,526.50
30.08340,498.51,526.97
30.10215,495.25,527.07
30.12354,495.66,527.79
30.14218,494.22,526.00
30.16419,493.66,527.07
30.18292,496.44,527.67
30.20241,496.72,524.56
30.22400,494.69,523.20
30.24287,496.32,524.47
30.26386,494.16,524.77
30.28384,495.23,520.94
30.30295,496.25,524.15
30.32240,492.48,521.46
30.34221,494.81,519.66
30.36241,495.07,521.94
30.38321,495.16,520.74
30.40395,493.40,520.18
30.42280,497.00,521.11
30.44329,494.61,521.06
30.46253,492.62,521.90
30.48224,492.32,521.65
30.50334,494.38,521.19
30.52360,491.88,521.54
30.54415,494.38,518.26
30.56269,495.90,521.38
30.58224,494.18,520.78
30.60324,495.00,519.35
30.62227,495.43,522.42
30.64312,495.48,520.29
30.66304,496.67,521.23
30.68404,498.06,520.37
30.70332,494.92,519.91
30.72282,496.14,521.70
30.74270,494.67,522.55
30.76386,494.53,518.63
30.78393,495.86,521.30
30.80282,495.60,519.18
30.82236,494.87,521.92
30.84197,498.06,520.75
30.86356,497.71,520.58
30.88243,495.89,520.30
30.90374,494.19,522.63
30.92391,495.90,523.00
30.94336,496.79,519.29
30.96246,497.23,519.70
30.98222,497.39,521.05
31.00291,497.01,519.13
31.02292,497.94,521.77
31.04232,497.55,520.95
31.06377,499.13,519.55
31.08216,496.06,520.86
31.10280,495.32,520.09
31.12267,496.99,520.55
31.14348,498.97,521.75
31.16272,496.22,521.23
31.18301,496.72,521.73
31.20288,498.47,521.57
31.22373,498.14,521.64
31.24309,493.87,519.34
31.26218,494.56,521.08
31.28298,493.43,522.19
31.30225,494.56,522.04
31.32333,491.69,523.85
31.34393,493.23,522.28
31.36322,493.68,521.19
31.38302,495.01,521.05
31.40347,493.33,523.63
31.42247,493.52,521.32
31.44223,496.14,521.95
31.46358,493.01,522.65
31.48400,494.32,521.47
31.50274,494.46,523.16
31.52364,492.58,522.30
31.54309,491.54,522.35
31.56338,494.66,520.33
31.58391,492.68,521.31
31.60264,494.40,519.73
31.62228,496.00,521.77
31.64363,494.56,521.65
31.66216,495.05,524.25
31.68299,498.57,524.27
31.70225,496.99,525.64
31.72357,499.82,528.45
31.74244,497.34,528.30
31.76247,500.83,522.91
31.78297,499.28,507.60
31.80383,500.26,488.55
31.82212,498.44,465.50
31.84274,497.63,446.26
31.86322,496.28,428.71
31.88325,495.32,416.75
31.90394,495.97,408.60
31.92364,495.49,401.43
31.94270,491.53,398.10
31.96259,490.13,398.91
31.98361,491.36,401.24
32.00313,488.23,405.98
32.02363,488.01,409.91
32.04292,490.98,417.40
32.06370,489.31,424.40
32.08392,488.92,434.09
32.10354,488.67,442.91
32.12363,491.15,454.10
32.14322,492.52,460.73
32.16394,490.07,467.84
32.18283,489.85,476.76
32.20313,488.44,482.03
32.22357,492.33,488.76
32.24363,489.76,495.81
32.26335,492.14,500.27
32.28219,493.14,502.16
32.30278,495.09,504.92
32.32306,493.36,506.07
32.34303,493.15,511.42
32.36238,496.83,513.16
32.38266,495.88,512.40
32.40263,497.27,512.11
32.42379,495.71,514.82
32.44363,497.99,515.40
32.46267,498.21,521.86
32.48269,499.23,522.40
32.50398,496.66,528.29
32.52297,497.48,527.81
32.54256,497.07,533.03
32.56228,496.30,533.78
32.58416,497.33,530.46
32.60289,498.29,532.31
32.62280,498.39,530.40
32.64261,496.26,527.42
32.66323,496.24,527.30
32.68370,498.41,535.48
32.70282,500.30,553.45
32.72328,500.96,581.42
32.74367,502.58,612.27
32.76331,502.36,629.41
32.78258,504.18,642.04
32.80250,505.62,651.90
32.82226,504.58,648.86
32.84321,505.25,639.21
32.86284,503.01,627.15
32.88249,502.98,616.18
32.90265,503.07,603.35
32.92314,503.60,592.34
32.94313,502.06,584.93
32.96196,502.87,573.04
32.98212,498.42,569.67
33.00391,502.85,575.18
33.02361,504.60,582.61
33.04245,504.25,580.73
33.06340,504.06,579.67
33.08335,503.57,575.70
33.10288,503.65,571.01
33.12353,501.90,564.89
33.14205,503.89,561.32
33.16319,501.58,554.33
33.18253,502.11,551.81
33.20283,502.92,545.53
33.22200,504.48,540.37
33.24342,502.20,538.87
33.26342,503.04,535.17
33.28249,502.40,532.54
33.30354,503.92,533.08
33.32231,505.50,529.98
33.34405,505.09,529.20
33.36293,502.54,530.07
33.38211,505.58,528.94
33.40398,506.32,526.54
33.42220,505.66,527.46
33.44339,506.39,527.40
33.46198,506.25,526.57
33.48250,505.17,527.13
33.50263,505.93,524.25
33.52350,508.28,528.20
33.54391,507.50,527.33
33.56318,506.15,526.84
33.58319,506.64,528.15
33.60387,504.60,529.45
33.62394,506.00,526.66
33.64295,504.80,528.78
33.66396,506.41,526.39
33.68330,504.85,529.35
33.70322,506.91,528.22
33.72426,507.63,529.33
33.74416,508.72,527.52
33.76463,510.94,529.71
33.78416,510.26,528.07
33.80430,508.61,528.64
33.82360,510.36,532.35
33.84349,507.91,530.17
33.86376,508.40,532.00
33.88383,509.56,530.95
33.90486,508.25,532.40
33.92329,508.71,533.57
33.94427,508.35,531.10
33.96311,507.96,531.36
33.98307,508.61,531.45
34.00351,507.55,530.11
34.02394,509.20,529.41
34.04313,509.25,530.54
34.06436,507.61,530.21
34.08484,510.50,531.23
34.10301,511.28,530.61
34.12421,510.43,532.11
34.14322,510.49,530.18
34.16360,510.96,532.21
34.18363,510.32,530.18
34.20403,511.57,532.50
34.22437,511.25,530.80
34.24298,509.47,528.63
34.26341,509.18,531.08
34.28331,510.46,529.10
34.30445,511.55,531.14
34.32459,513.92,531.69
34.34333,515.32,529.69
34.36332,514.78,528.53
34.38321,512.17,528.20
34.40327,511.99,529.55
34.42498,511.11,527.88
34.44315,515.44,531.44
34.46433,515.27,530.15
34.48401,511.21,527.80
34.50470,513.26,529.32
34.52436,513.95,530.20
34.54346,513.17,528.72
34.56301,513.25,531.95
34.58339,515.57,530.23
34.60503,512.91,530.34
34.62367,516.16,533.15
34.64393,512.43,532.10
34.66575,515.52,533.01
34.68525,515.60,529.82
34.70593,514.38,532.93
34.72595,513.64,529.54
34.74537,516.78,532.30
34.76579,517.18,533.60
34.78497,517.00,530.79
34.80579,515.94,531.85
34.82967,518.72,531.61
34.84591,516.14,533.37
34.86404,518.92,530.42
34.88499,517.18,530.45
34.90460,516.65,531.12
34.92424,515.04,533.34
34.94521,517.81,529.69
34.96441,517.13,531.69
34.98496,519.02,532.10
35.00426,520.57,533.11
35.02483,518.12,530.66
35.04471,517.91,532.57
35.06587,519.80,530.72
35.08418,521.05,533.21
35.10541,519.87,532.84
35.12519,523.00,533.66
35.14583,519.69,534.43
35.16581,519.89,533.98
35.18558,521.49,535.00
35.20565,519.02,533.25
35.22587,518.29,535.55
35.24487,518.88,534.81
35.26461,520.27,534.69
35.28492,515.72,535.35
35.30554,515.02,522.60
35.32576,516.63,497.21
35.34551,511.35,476.91
35.36605,509.53,456.74
35.38455,506.39,439.29
35.40571,509.15,430.25
35.42533,509.95,430.08
35.44468,509.10,433.20
35.46413,508.39,437.79
35.48403,509.79,442.99
35.50550,508.18,448.46
35.52547,510.10,451.51
35.54531,508.45,455.14
35.56551,507.63,454.55
35.58392,508.02,451.44
35.60421,508.85,453.04
35.62527,511.50,453.69
35.64380,511.94,456.88
35.66471,514.99,460.22
35.68551,513.53,462.38
35.70435,515.82,469.24
35.72488,514.12,473.01
35.74481,514.98,477.12
35.76599,516.90,482.38
35.78411,515.03,488.06
35.80464,518.31,490.88
35.82487,516.61,496.51
35.84550,517.55,499.82
35.86534,518.28,506.04
35.88487,518.27,508.92
35.90588,515.85,513.06
35.92575,517.58,514.03
35.94553,518.02,514.53
35.96477,517.63,520.59
35.98468,518.39,519.47
36.00536,518.12,522.78
36.02568,518.45,524.17
36.04539,518.49,524.44
36.06511,516.09,527.83
36.08552,516.63,528.93
36.10489,518.14,527.73
36.12442,515.96,531.53
36.14430,518.69,530.24
36.16509,518.16,530.18
36.18564,517.14,532.99
36.20560,519.61,530.86
36.22485,518.88,538.92
36.24423,522.12,557.63
36.26550,521.94,586.64
36.28550,522.12,620.85
36.30544,521.51,654.43
36.32583,524.48,687.22
36.34431,529.14,707.12
36.36565,531.47,721.91
36.38564,531.28,727.14
36.40496,534.08,720.76
36.42490,533.63,709.56
36.44565,532.20,689.33
36.46517,531.12,668.89
36.48462,531.23,653.99
36.50575,528.94,632.60
36.52449,527.13,618.77
36.54501,526.97,605.32
36.56529,522.75,591.08
36.58499,526.07,580.72
36.60532,523.35,574.05
36.62461,521.95,564.05
36.64497,523.71,556.08
36.66587,523.14,552.23
36.68423,522.11,549.01
36.70405,522.51,543.40
36.72521,523.02,539.56
36.74535,521.84,535.13
36.76631,520.35,534.05
36.78516,519.63,531.45
36.80545,517.38,529.09
36.82524,517.54,529.98
36.84577,518.98,529.70
36.86577,516.53,526.82
36.88661,518.37,531.62
36.90680,517.70,529.84
36.92571,516.64,528.68
36.94566,518.76,530.60
36.96511,516.29,530.90
36.98550,515.76,529.08
37.00537,516.88,532.68
37.02545,518.04,533.01
37.04580,515.10,530.83
37.06676,516.24,530.85
37.08671,516.50,528.83
37.10588,516.98,528.40
37.12582,515.98,530.54
37.14537,515.51,528.33
37.16577,517.46,528.54
37.18696,519.68,527.77
37.20653,518.71,530.60
37.22512,518.81,530.06
37.24684,515.43,530.33
37.26682,515.02,529.06
37.28650,517.95,528.24
37.30539,514.75,527.69
37.32538,516.75,529.68
37.34648,513.93,526.47
37.36493,513.87,527.60
37.38515,516.30,528.24
37.40613,512.72,527.36
37.42653,514.35,528.08
37.44604,513.74,527.42
37.46627,515.17,528.57
37.48603,513.91,528.09
37.50530,515.32,529.40
37.52690,514.11,530.36
37.54517,516.22,529.39
37.56527,515.30,529.58
37.58520,515.79,530.32
37.60511,513.66,527.16
37.62620,515.31,530.53
37.64678,514.39,529.19
37.66553,513.54,529.01
37.68481,509.34,528.58
37.70636,510.39,528.39
37.72666,512.73,528.97
37.74669,511.92,531.13
37.76609,510.23,531.92
37.78793,512.07,530.93
37.80765,512.39,531.81
37.82740,510.14,530.79
37.84664,512.02,531.85
37.86767,508.80,530.09
37.88625,508.14,529.22
37.90662,507.47,530.38
37.92843,507.62,530.13
37.94743,506.41,529.31
37.96767,505.31,530.80
37.98735,504.87,529.35
38.00876,504.78,528.42
38.02700,507.41,531.38
38.04884,507.01,530.86
38.06685,506.09,530.26
38.08701,503.76,528.85
38.10838,503.08,527.50
38.12833,506.18,530.03
38.14840,504.46,528.59
38.16847,501.04,527.37
38.18736,502.54,527.95
38.20711,502.07,528.90
38.22722,503.62,528.70
38.24895,504.98,528.61
38.26849,504.94,527.91
38.28829,504.68,526.70
38.30677,504.97,527.86
38.32849,502.10,529.39
38.34966,501.42,529.54
38.36956,499.93,531.28
38.38893,500.57,531.13
38.40795,499.88,529.64
38.42811,499.28,528.07
38.44937,497.38,527.65
38.46910,496.26,529.12
38.48840,499.16,528.29
38.50828,496.86,528.90
38.52942,497.83,526.50
38.54941,498.49,527.23
38.56908,497.00,528.57
38.58804,496.71,527.38
38.60881,497.35,530.62
38.62809,500.05,529.49
38.64866,498.59,530.57
38.66895,498.86,530.39
38.68837,499.74,529.83
38.70953,500.11,529.15
38.72835,500.27,530.00
38.74965,500.53,529.63
38.76923,502.71,532.57
38.78980,499.01,526.18
38.80851,498.73,517.05
38.82843,498.11,500.91
38.84958,491.30,489.88
38.86980,485.40,473.69
38.88825,480.89,458.80
38.90913,478.33,448.08
38.92920,474.47,439.99
38.94791,472.38,434.38
38.96978,470.81,427.39
38.98909,471.22,427.16
39.00912,472.10,424.61
39.02906,472.17,428.17
39.04891,473.69,428.56
39.06838,478.13,428.78
39.08921,478.53,427.80
39.10992,481.60,430.59
39.12776,483.27,435.28
39.14985,486.46,437.17
39.16848,489.99,444.96
39.18959,491.52,449.40
39.20926,493.07,451.88
39.22802,491.05,461.80
39.24976,492.30,466.29
39.26816,493.39,471.04
39.28838,492.89,481.25
39.30870,496.88,486.19
39.32950,493.46,493.30
39.34917,497.35,495.66
39.36793,497.22,497.50
39.38880,494.50,502.90
39.40837,495.99,508.19
39.42892,497.30,507.06
39.44976,495.34,511.16
39.46813,493.72,513.86
39.48907,496.48,515.52
39.50852,494.52,516.77
39.52882,495.89,517.49
39.54877,494.57,517.94
39.56966,495.61,520.36
39.58922,496.33,521.40
39.60917,494.55,519.94
39.62829,495.56,523.56
39.64870,493.24,522.84
39.66933,495.42,521.65
39.68911,494.94,525.05
39.70840,497.71,525.92
39.72807,496.12,526.23
39.74902,494.34,526.52
39.76886,495.41,524.01
39.78846,494.37,524.62
39.80924,492.94,526.31
39.82916,494.81,531.29
39.84851,495.66,550.88
39.86800,495.59,573.18
39.88790,499.61,604.54
39.90965,500.22,634.57
39.92891,504.45,661.30
39.94861,508.38,684.93
39.96941,511.85,693.17
39.98832,514.97,700.77
40.00938,518.88,697.61
40.02884,519.81,687.45
40.04843,517.33,674.89
40.06868,517.45,657.04
40.08985,513.80,637.68
40.10795,514.68,623.14
40.12913,508.56,607.81
40.14819,508.46,594.16
40.16907,507.59,582.14
40.18829,507.86,570.13
40.20924,504.39,560.41
40.22878,503.20,556.15
40.24957,503.55,552.23
40.26861,501.16,545.32
40.28913,502.17,534.33
40.30841,500.81,529.28
40.32847,499.53,526.29
40.34955,502.88,525.95
40.36940,500.91,521.80
40.38974,502.50,519.21
40.40989,500.72,518.50
40.42838,500.50,521.14
40.44929,499.68,519.23
40.46936,499.75,518.66
40.48872,500.37,520.59
40.50861,497.43,521.69
40.52796,499.56,518.16
40.54823,496.94,521.95
40.56822,497.95,520.71
40.58943,497.17,523.09
40.60972,496.59,520.95
40.62839,498.05,521.86
40.64936,497.25,522.64
40.66815,500.34,520.70
40.68863,496.89,523.69
40.70855,498.97,522.78
40.72901,499.12,521.42
40.74810,498.92,521.82
40.76869,497.94,519.89
40.78830,495.77,523.98
40.80837,496.44,523.33
40.82853,495.24,520.20
40.84897,497.04,523.45
40.86920,499.48,520.35
40.88921,500.09,520.02
40.90940,496.37,524.25
40.92979,496.99,521.35
40.94935,499.52,522.75
40.96808,496.48,522.02
40.98899,499.68,526.04
41.00905,500.50,525.34
41.02852,497.09,527.13
41.04961,498.82,527.72
41.06840,497.92,527.39
41.08987,497.04,526.36
41.10974,499.64,524.62
41.12799,500.03,524.83
41.14901,499.16,526.07
41.16868,497.59,527.92
41.18946,498.11,528.06
41.20841,498.64,527.17
41.22997,501.51,524.51
41.24987,499.81,526.38
41.26814,501.67,524.15
41.28847,499.35,526.98
41.30875,499.25,524.87
41.32868,499.21,526.17
41.34964,498.06,527.06
41.36912,497.42,525.99
41.38949,499.57,525.74
41.40934,501.79,528.55
41.42916,498.12,526.60
41.44893,498.66,530.50
41.46973,500.62,529.80
41.48841,504.04,528.77
41.50885,504.54,526.44
41.52866,503.06,528.97
41.54822,499.63,525.57
41.56843,501.18,525.67
41.58936,501.25,525.36
41.60819,501.32,526.89
41.62792,502.89,526.24
41.64828,498.62,524.25
41.66919,501.94,527.11
41.68833,501.31,526.71
41.70922,500.83,526.21
41.72855,501.95,522.20
41.74777,502.41,522.44
41.76974,501.32,523.01
41.78829,502.00,520.65
41.80925,502.16,522.61
41.82887,502.15,521.45
41.84807,499.89,521.60
41.86863,500.42,524.29
41.88871,501.02,521.04
41.90876,502.32,522.03
41.92885,501.26,521.35
41.94812,503.30,520.39
41.96777,502.85,523.45
41.98861,503.12,525.89
42.00816,502.88,526.22
42.02902,501.16,525.09
42.04872,500.74,524.73
42.06942,499.95,524.23
42.08977,499.11,524.50
42.10833,499.62,526.80
42.12928,501.89,525.87
42.14877,503.01,528.77
42.16870,502.34,526.57
42.18969,505.00,527.91
42.20980,504.51,527.51
42.22971,503.04,527.78
42.24979,503.96,527.06
42.26850,503.33,524.01
42.28985,504.43,526.57
42.30895,503.60,524.12
42.32777,504.37,525.99
42.34896,505.25,525.80
42.36867,501.71,528.90
42.38895,503.47,527.90
42.40794,504.32,526.82
42.43002,507.21,530.17
42.44996,506.71,528.40
42.46906,506.20,529.56
42.48884,504.71,530.12
42.50883,506.14,529.30
42.53057,509.25,528.46
42.54888,508.72,528.07
42.57065,509.01,529.42
42.58943,507.55,529.65
42.61096,505.92,526.70
42.62957,504.35,527.73
42.64896,506.22,529.93
42.67064,505.05,528.29
42.69017,505.02,516.01
42.70966,499.37,503.31
42.73090,497.69,486.09
42.75051,495.19,464.72
42.77002,492.50,442.18
42.78968,489.29,426.26
42.81076,487.22,414.71
42.83083,484.89,404.63
42.85046,487.13,400.98
42.87035,486.58,398.39
42.89057,488.17,400.83
42.90946,489.53,406.19
42.92965,493.98,410.44
42.95020,498.72,418.43
42.96894,502.85,430.15
42.98940,501.59,438.15
43.00894,506.97,447.79
43.02952,506.40,455.93
43.04975,506.21,464.18
43.06975,507.38,472.99
43.08949,507.95,479.66
43.11065,505.60,484.36
43.12903,504.22,489.07
43.14951,503.76,495.23
43.16931,506.17,496.82
43.18984,505.40,500.26
43.21033,505.20,502.78
43.22967,504.94,509.91
43.24981,507.75,510.95
43.26985,508.61,512.75
43.29062,509.77,518.11
43.30992,510.63,517.01
43.33002,510.08,523.48
43.35142,511.72,527.08
43.37159,512.42,527.48
43.39113,512.35,530.74
43.41057,511.21,529.59
43.43018,510.93,534.11
43.45107,513.71,548.70
43.47089,517.98,577.54
43.49190,519.12,612.99
43.51004,522.27,646.72
43.53154,523.04,670.20
43.55161,529.52,692.22
43.57054,533.51,702.54
43.59101,536.57,702.60
43.60989,537.66,696.56
43.63044,537.49,677.75
43.65083,538.97,661.26
43.67156,535.90,644.73
43.69087,535.21,624.20
43.70991,530.30,610.75
43.73088,528.41,597.05
43.75090,529.94,585.84
43.77149,529.04,574.97
43.79031,528.83,567.29
43.81178,527.54,562.05
43.83069,527.22,554.37
43.85003,523.87,549.36
43.87123,524.69,546.27
43.89157,523.92,543.68
43.91100,523.27,540.00
43.93141,520.93,537.01
43.95129,525.10,536.21
43.97068,522.22,535.00
43.99123,524.81,532.79
44.00983,522.02,534.77
44.02986,521.47,533.88
44.05124,520.51,533.30
44.06997,519.35,533.67
44.09094,520.85,533.79
44.11023,518.84,534.29
44.13152,518.73,533.90
44.15143,518.06,534.60
44.17058,518.52,533.84
44.19108,518.63,533.16
44.21134,518.34,532.55
44.23135,517.59,533.47
44.25071,518.42,534.10
44.27129,521.00,535.29
44.28983,517.45,534.03
44.30972,518.71,531.81
44.33058,516.68,532.79
44.34993,518.05,532.68
44.37099,516.74,533.71
44.39020,519.99,534.93
44.41118,518.66,531.42
44.43129,520.05,534.52
44.45021,518.38,535.08
44.47030,518.49,534.52
44.49098,519.08,534.72
44.51008,517.44,535.78
44.53093,519.70,536.64
44.55083,518.65,532.28
44.57020,518.34,534.18
44.59012,521.83,534.85
44.61023,517.97,534.45
44.63023,518.12,533.89
44.65077,521.30,536.03
44.67245,519.51,532.09
44.69247,518.75,532.04
44.71236,521.24,531.99
44.73120,518.02,533.43
44.75190,518.27,533.29
44.77165,520.90,530.75
44.79126,518.33,531.33
44.81235,518.20,531.06
44.83171,517.79,530.96
44.85237,519.97,534.29
44.87224,518.33,534.26
44.89209,518.99,533.33
44.91132,517.28,532.96
44.93249,517.98,533.66
44.95144,518.58,533.20
44.97132,519.75,534.44
44.99176,519.89,531.56
45.01224,518.00,532.65
45.03200,519.69,535.11
45.05253,515.17,532.20
45.07269,517.36,533.35
45.09279,516.50,533.66
45.11368,516.21,534.64
45.13201,515.97,532.61
45.15240,514.84,534.13
45.17299,516.59,533.05
45.19323,513.61,533.38
45.21206,515.74,535.95
45.23276,513.19,536.46
45.25198,514.77,535.66
45.27186,514.92,536.02
45.29214,514.81,534.41
45.31312,515.97,533.34
45.33183,516.92,534.07
45.35247,515.93,534.27
45.37211,516.19,534.81
45.39289,515.79,533.41
45.41317,515.36,533.32
45.43379,518.22,534.27
45.45261,519.16,533.59
45.47198,520.00,534.50
45.49282,519.51,534.64
45.51347,516.07,532.81
45.53289,514.71,536.08
45.55331,514.23,533.65
45.57254,514.70,534.08
45.59308,514.02,534.87
45.61307,515.88,534.51
45.63361,513.91,533.80
45.65178,513.22,533.99
45.67190,517.07,533.58
45.69183,513.78,531.09
45.71232,513.87,533.48
45.73352,515.49,532.50
45.75281,513.30,532.83
45.77189,515.24,532.48
45.79378,513.83,531.78
45.81370,512.20,530.40
45.83195,514.47,533.00
45.85185,514.91,532.35
45.87187,513.65,532.93
45.89337,513.56,531.37
45.91237,513.97,531.60
45.93350,515.68,532.91
45.95214,517.92,531.32
45.97260,515.29,533.42
45.99323,513.30,534.61
46.01330,513.51,533.21
46.03300,511.56,535.23
46.05213,511.69,533.73
46.07297,511.89,534.86
46.09255,513.62,533.03
46.11339,514.99,535.50
46.13337,514.50,531.85
46.15186,517.31,532.24
46.17333,516.66,531.32
46.19319,513.82,532.86
46.21252,514.38,531.58
46.23223,513.58,531.73
46.25181,515.41,529.11
46.27166,513.31,531.44
46.29268,513.33,531.20
46.31252,512.68,531.34
46.33295,515.49,531.21
46.35295,514.60,531.27
46.37384,516.09,530.34
46.39185,516.31,532.18
46.41353,515.25,533.96
46.43357,514.75,531.42
46.45360,511.75,532.81
46.47314,510.04,533.97
46.49253,509.97,531.78
46.51213,511.39,533.81
46.53298,509.89,534.31
46.55241,510.95,533.43
46.57253,510.25,532.13
46.59250,509.96,531.43
46.61217,511.58,531.09
46.63306,512.46,532.91
46.65250,510.66,530.71
46.67203,512.48,529.80
46.69342,513.08,528.90
46.71318,511.57,531.16
46.73350,514.82,532.69
46.75336,512.05,530.81
46.77266,511.97,533.04
46.79234,513.75,533.92
46.81269,513.73,526.39
46.83365,511.45,517.08
46.85340,508.71,505.90
46.87187,507.02,491.31
46.89350,502.41,477.06
46.91289,499.90,463.71
46.93340,498.97,450.45
46.95317,498.06,441.62
46.97330,496.25,431.74
46.99314,497.16,426.80
47.01325,493.89,420.85
47.03237,495.44,421.24
47.05214,495.81,421.40
47.07329,495.11,421.53
47.09404,497.75,424.67
47.11502,495.88,428.81
47.13493,498.01,434.85
47.15498,496.35,438.56
47.17521,498.34,446.52
47.19476,498.09,454.09
47.21482,496.05,459.94
47.23553,498.22,470.07
47.25410,497.19,474.94
47.27462,496.74,480.85
47.29624,495.45,488.11
47.31558,496.29,493.71
47.33614,495.68,497.36
47.35582,498.05,502.28
47.37652,495.21,504.49
47.39559,495.80,506.69
47.41488,497.71,509.34
47.43503,499.89,512.89
47.45587,498.79,515.28
47.47615,496.72,519.77
47.49573,497.53,530.98
47.51606,502.23,557.74
47.53576,505.37,593.14
47.55494,509.65,629.60
47.57485,510.88,668.15
47.59482,512.46,695.34
47.61493,515.21,708.55
47.63633,518.89,714.32
47.65509,515.57,709.04
47.67514,515.40,701.31
47.69663,513.98,686.39
47.71620,512.31,665.27
47.73649,510.36,641.05
47.75606,510.26,621.68
47.77652,504.50,602.50
47.79708,505.35,588.36
47.81693,500.69,572.22
47.83711,500.49,562.83
47.85661,498.29,553.63
47.87707,500.37,546.52
47.89635,496.47,541.06
47.91767,496.21,536.88
47.93563,498.52,530.00
47.95592,497.63,526.16
47.97577,497.41,524.35
47.99648,497.58,522.52
48.01673,500.96,522.17
48.03703,498.90,523.38
48.05729,502.17,521.85
48.07668,500.18,521.48
48.09848,497.29,519.31
48.11793,497.26,521.34
48.13858,501.04,522.52
48.15676,499.28,522.37
48.17836,498.32,522.51
48.19813,498.46,521.61
48.21799,498.50,521.87
48.23734,497.98,519.89
48.25811,499.79,520.25
48.27753,500.30,522.46
48.29829,500.86,522.38
48.31815,500.40,522.24
48.33878,500.46,523.59
48.35706,499.76,524.04
48.37683,502.07,523.86
48.39815,502.13,523.37
48.41727,502.10,525.30
48.43840,501.37,521.80
48.45708,498.81,524.55
48.47784,502.75,526.98
48.49691,499.79,526.78
48.51800,502.04,526.43
48.53678,499.66,525.20
48.55755,500.46,526.39
48.57816,500.65,524.39
48.59763,499.21,526.02
48.61709,498.35,524.16
48.63735,498.43,524.05
48.65686,498.06,524.64
48.67742,498.11,521.83
48.69820,499.73,525.71
48.71767,499.24,527.20
48.73696,496.20,527.85
48.75774,497.41,527.05
48.77691,496.25,528.18
48.79836,498.33,527.78
48.81727,499.61,528.81
48.83803,499.34,527.72
48.85746,497.93,527.46
48.87734,499.84,525.03
48.89813,501.87,524.77
48.91794,502.02,525.36
48.93709,502.38,522.97
48.95832,499.87,522.95
48.97770,501.55,524.01
48.99694,502.26,522.56
49.01820,504.09,523.40
49.03828,502.31,524.38
49.05744,499.13,523.19
49.07830,500.77,525.16
49.09795,499.13,522.79
49.11711,499.85,524.96
49.13794,500.32,525.14
49.15741,502.73,522.35
49.17705,501.44,525.04
49.19733,501.23,522.77
49.21784,502.03,522.36
49.23773,501.52,525.79
49.25660,501.15,523.06
49.27801,502.95,525.17
49.29725,502.00,525.94
49.31816,501.34,525.52
49.33684,502.32,525.85
49.35723,503.12,524.68
49.37845,503.66,525.17
49.39844,502.58,526.08
49.41689,501.83,523.93
49.43817,502.25,524.06
49.45812,500.32,524.83
49.47841,500.62,525.47
49.49765,501.82,526.30
49.51840,502.95,523.68
49.53676,499.94,525.35
49.55842,503.76,526.38
49.57724,502.99,528.51
49.59768,503.68,525.01
49.61878,500.39,525.45
49.63899,500.19,526.98
49.65919,502.18,525.74
49.67769,502.52,526.37
49.69887,504.15,527.14
49.71853,501.52,528.58
49.74009,501.07,526.59
49.76057,503.27,528.11
49.77888,504.67,530.65
49.80011,506.46,529.46
49.81952,506.73,529.92
49.83888,507.23,528.24
49.86047,509.80,528.27
49.87956,506.36,528.53
49.90034,507.61,529.34
49.91999,509.21,529.71
49.93967,506.39,528.25
49.95922,507.11,529.21
49.97990,510.48,527.16
49.99862,511.77,526.23
50.01869,510.71,528.52
50.03923,508.55,529.31
50.06007,510.43,526.68
50.07942,509.08,529.25
50.09857,508.61,525.83
50.11882,511.96,527.53
50.14128,512.27,526.16
50.16010,511.44,526.60
50.18003,512.50,525.94
50.20049,513.78,525.73
50.22026,510.97,525.88
50.24002,514.22,528.13
50.25987,513.67,528.35
50.28120,511.55,528.48
50.30118,513.46,527.15
50.32142,513.39,527.95
50.34016,514.10,527.10
50.35996,514.80,527.93
50.38074,513.14,529.13
50.40021,513.75,528.68
50.42087,513.93,526.74
50.44056,517.63,527.15
50.46087,515.09,530.83
50.48042,515.47,531.45
50.50017,517.77,532.14
50.51954,514.92,532.61
50.53974,513.78,525.19
50.56105,514.09,513.52
50.58093,510.27,494.04
50.60101,508.24,472.98
50.62122,505.31,454.36
50.63974,503.56,439.29
50.66016,501.83,426.57
50.68014,502.65,416.50
50.70065,500.48,407.76
50.72136,502.75,405.56
50.74160,503.45,404.54
50.76059,501.41,405.66
50.77966,502.41,410.53
50.80075,503.02,418.44
50.82008,506.44,426.16
50.83997,507.90,434.93
50.86133,505.52,442.54
50.88047,507.41,453.51
50.90092,507.40,461.40
50.92049,510.68,470.59
50.94154,510.70,481.76
50.95987,511.32,486.45
50.98110,512.19,492.60
51.00146,512.13,499.25
51.02155,512.38,501.86
51.04047,516.02,506.02
51.06037,513.07,511.58
51.07993,515.58,512.69
51.10097,515.02,514.74
51.12079,514.44,515.17
51.14113,515.34,518.00
51.15942,515.67,520.50
51.18162,515.32,521.61
51.20024,515.64,520.17
51.21976,516.81,524.27
51.24149,514.04,522.88
51.26017,515.06,525.80
51.27962,513.99,532.35
51.30031,515.99,548.12
51.32061,518.36,573.49
51.34086,519.67,598.26
51.36068,522.09,625.63
51.38178,523.51,648.22
51.40084,525.51,666.83
51.42174,530.51,681.03
51.44293,532.01,684.16
51.46234,532.86,683.31
51.48408,535.84,673.72
51.50257,532.39,659.54
51.52443,534.93,643.89
51.54428,533.96,626.37
51.56471,531.77,612.31
51.58544,528.15,600.48
51.60548,525.75,590.61
51.62508,522.21,580.03
51.64478,520.20,574.64
51.66468,522.00,565.67
51.68554,517.82,563.19
51.70518,518.54,559.93
51.72605,517.93,552.28
51.74627,518.78,549.80
51.76599,514.74,545.35
51.78534,516.57,544.60
51.80563,512.44,542.49
51.82660,511.80,539.13
51.84648,513.93,537.91
51.86524,513.15,535.04
51.88469,511.87,534.92
51.90479,511.14,532.98
51.92513,510.14,531.29
51.94482,509.84,532.17
51.96501,512.21,531.21
51.98518,512.32,528.32
52.00534,514.22,526.53
52.02600,512.32,525.61
52.04627,511.30,527.13
52.06616,512.83,527.96
52.08724,509.62,525.22
52.10633,509.09,526.33
52.12582,508.47,528.15
52.14692,508.03,526.71
52.16707,506.98,525.29
52.18662,506.46,525.19
52.20630,506.30,527.67
52.22622,502.82,528.08
52.24738,502.12,525.50
52.26585,502.00,528.99
52.28652,502.55,527.47
52.30601,503.23,528.36
52.32567,502.68,527.03
52.34640,504.86,530.77
52.36714,502.96,528.22
52.38672,504.61,529.93
52.40724,501.14,525.97
52.42550,502.66,526.00
52.44798,500.54,528.59
52.46673,502.09,526.87
52.48663,503.32,526.71
52.50686,504.59,527.85
52.52894,502.22,525.58
52.55033,502.76,524.80
52.56970,502.04,526.52
52.58894,502.22,522.81
52.60878,500.09,525.07
52.62848,499.43,523.79
52.64981,499.04,525.02
52.67011,497.43,525.82
52.69032,498.73,523.80
52.70854,496.72,523.38
52.72859,496.46,526.91
52.74985,499.18,525.59
52.76976,499.17,524.76
52.79007,498.46,527.46
52.80981,497.69,527.53
52.82888,498.12,523.30
52.84856,496.48,524.05
52.86884,494.99,525.27
52.89030,497.42,524.85
52.91021,497.27,522.81
52.92993,497.03,525.49
52.94880,499.02,525.13
52.96970,495.85,525.16
52.98928,496.24,524.83
53.00919,496.75,523.05
53.03113,497.82,524.19
53.05057,499.55,524.48
53.07031,500.52,522.83
53.09013,499.38,522.16
53.10983,499.20,522.62
53.13090,500.44,522.26
53.15108,500.06,523.11
53.17047,499.91,523.67
53.19137,499.17,522.02
53.21147,503.32,524.34
53.23357,505.00,522.93
53.25252,504.71,522.04
53.27353,502.99,524.86
53.29284,505.24,523.99
53.31297,502.13,525.37
53.33298,501.40,525.27
53.35197,503.98,523.79
53.37187,505.47,523.18
53.39224,506.24,523.41
53.41232,507.17,524.15
53.43274,506.43,524.65
53.45395,504.92,521.56
53.47316,507.72,523.23
53.49328,506.57,526.00
53.51399,504.04,524.77
53.53398,507.14,524.00
53.55425,505.33,527.08
53.57433,506.37,526.29
53.59247,505.28,526.42
53.61446,507.05,527.76
53.63495,507.00,524.55
53.65478,508.32,526.21
53.67401,508.66,527.92
53.69454,511.47,527.57
53.71434,511.67,526.93
53.73477,511.32,525.97
53.75540,511.81,525.48
53.77408,510.85,525.00
53.79472,513.97,526.23
53.81447,512.75,527.51
53.83422,510.97,525.54
53.85396,512.39,527.24
53.87455,512.98,525.49
53.89491,512.25,528.07
53.91545,512.90,527.94
53.93514,515.06,528.07
53.95500,512.60,528.47
53.97473,511.52,527.74
53.99548,515.36,528.11
54.01413,515.19,529.75
54.03459,512.75,530.20
54.05413,513.92,526.92
54.07374,515.58,527.60
54.09439,513.19,528.91
54.11423,512.99,527.36
54.13528,514.73,527.14
54.15432,514.49,530.24
54.17378,514.98,526.75
54.19524,512.66,525.38
54.21530,514.77,527.84
54.23376,512.33,526.84
54.25534,513.96,525.88
54.27531,512.99,524.84
54.29480,510.99,527.17
54.31549,513.73,528.26
54.33494,511.25,531.79
54.35373,514.15,533.12
54.37549,518.03,527.62
54.39475,519.50,516.47
54.41449,520.36,495.35
54.43496,517.75,471.84
54.45543,515.21,448.54
54.47550,511.47,427.08
54.49531,507.75,410.96
54.51636,504.98,401.69
54.53578,505.53,392.33
54.55610,504.61,391.89
54.57775,503.93,395.25
54.59922,501.63,405.54
54.61914,502.41,413.57
54.63892,503.46,426.21
54.65789,504.66,437.36
54.67937,507.13,450.71
54.69843,510.79,463.11
54.71906,516.88,497.59
54.73898,521.27,542.44
54.75775,526.69,599.45
54.77856,532.72,647.77
54.79930,532.93,674.83
54.81760,531.70,682.42
54.83843,530.67,672.16
54.85858,524.39,656.99
54.87878,524.91,638.26
54.89796,521.06,620.88
54.91763,517.82,603.35
54.93798,519.66,587.68
54.95756,518.90,574.67
54.97909,515.94,560.25
54.99888,517.12,555.20
55.01875,515.92,547.22
55.03939,515.00,540.58
55.05776,511.91,536.78
55.07889,512.09,536.32
55.09798,513.05,531.59
55.11803,514.57,532.23
55.13743,512.96,532.18
55.15884,513.62,532.97
55.17866,514.14,535.64
55.19826,513.16,542.32
55.21945,516.41,556.60
55.23888,517.06,584.68
55.25883,519.25,608.26
55.27877,522.41,617.27
55.29940,519.43,605.18
55.31895,517.89,582.79
55.33791,517.27,564.27
55.35789,514.54,547.36
55.37794,515.44,534.29
55.39841,516.46,536.45
55.41927,516.54,559.53
55.43876,520.16,591.34
55.45941,521.80,609.16
55.47857,522.92,611.31
55.49833,520.91,600.48
55.51799,520.62,580.15
55.53867,519.31,562.89
55.55747,515.84,546.08
55.57815,514.35,534.07
55.59891,513.99,525.80
55.61846,514.88,516.84
55.63858,515.77,515.10
55.65837,515.35,518.60
55.67823,517.74,534.20
55.69838,517.27,570.26
55.71937,520.77,590.86
55.73804,520.48,597.17
55.75863,522.69,585.74
55.77813,525.01,573.48
55.79768,523.44,558.31
55.81814,521.31,547.22
55.83784,518.79,533.34
55.85832,518.52,525.12
55.87895,516.54,515.35
55.89793,517.75,511.02
55.91877,516.40,505.18
55.93821,515.98,503.46
55.95785,511.52,508.44
55.97795,512.88,508.90
55.99927,514.41,512.98
56.01890,513.17,512.03
56.03777,511.74,518.09
56.05881,510.98,515.54
56.07867,510.41,519.51
56.09921,510.76,521.43
56.11927,506.64,521.49
56.13764,507.22,522.76
56.15756,504.96,521.79
56.17905,506.56,522.61
56.19820,498.51,523.62
56.21904,502.90,521.43
56.23878,502.24,518.90
56.25826,501.22,522.46
56.27929,502.94,521.35
56.29746,504.63,523.99
56.31914,508.52,523.90
56.33874,505.22,523.22
56.35767,502.34,524.85
56.37754,512.38,527.46
56.39845,510.87,531.24
56.41814,508.97,530.07
56.43880,509.96,529.45
56.45933,507.64,529.60
56.47761,509.59,525.61
56.49920,511.02,527.89
56.51921,503.96,529.94
56.53823,503.95,530.71
56.55935,505.76,530.83
56.57902,508.01,529.05
56.59863,510.97,527.24
56.61827,509.54,530.06
56.63918,507.76,526.19
56.65904,508.46,529.16
56.67876,505.79,531.31
56.70043,505.44,529.22
56.71914,505.44,532.74
56.73909,502.93,530.95
56.75935,500.65,531.60
56.78122,500.65,529.58
56.80205,497.23,529.11
56.82081,501.36,525.64
56.84187,500.40,526.34
56.86343,502.07,528.82
56.88340,502.21,526.63
56.90208,503.89,523.75
56.92304,503.78,524.73
56.94227,508.09,522.47
56.96192,506.90,527.69
56.98127,509.23,527.46
57.00244,512.37,528.02
57.02346,513.43,525.05
57.04268,511.34,522.40
57.06252,513.00,524.07
