Program Time [s],data 0,data 1
4.73992,465.12,531.32
4.75980,465.56,530.09
4.78003,468.14,532.72
4.79914,465.99,529.12
4.82070,469.14,530.89
4.84052,467.13,529.69
4.86150,467.50,531.71
4.87998,468.95,527.51
4.90027,466.51,527.07
4.92040,465.89,528.91
4.94035,466.58,525.58
4.96162,465.12,526.17
4.98147,465.28,523.62
5.00122,464.13,525.15
5.02251,461.78,528.64
5.04211,460.97,529.83
5.06263,460.67,527.18
5.08322,459.51,527.50
5.10300,458.96,527.92
5.12322,459.46,526.89
5.14256,460.09,524.48
5.16232,457.21,524.10
5.18323,457.23,525.01
5.20212,460.47,525.78
5.22278,459.08,524.78
5.24308,456.08,518.23
5.26458,458.06,514.99
5.28440,455.31,514.74
5.30445,457.12,514.31
5.32323,453.86,512.57
5.34429,454.91,511.73
5.36457,453.24,511.64
5.38310,456.01,511.84
5.40346,454.29,514.78
5.42301,452.06,514.83
5.44475,451.93,515.05
5.46353,451.85,515.52
5.48427,451.60,519.90
5.50285,449.16,520.02
5.52349,452.19,519.39
5.54316,452.43,521.59
5.56419,454.62,518.13
5.58297,455.60,517.67
5.60369,456.89,517.32
5.62385,457.48,518.44
5.64356,459.65,515.43
5.66414,456.23,517.40
5.68371,459.89,516.12
5.70297,458.72,515.59
5.72423,458.65,513.80
5.74463,458.14,512.29
5.76353,459.20,516.14
5.78446,455.45,514.13
5.80304,455.09,516.28
5.82440,454.25,517.32
5.84470,452.11,521.39
5.86322,454.15,521.07
5.88464,453.39,520.82
5.90462,452.49,524.16
5.92470,454.91,527.48
5.94389,454.55,530.71
5.96301,454.90,531.20
5.98468,456.51,531.42
6.00284,457.62,531.50
6.02429,458.28,530.88
6.04329,461.61,526.98
6.06334,462.53,528.31
6.08413,462.47,522.34
6.10440,462.13,522.22
6.12332,464.37,520.75
6.14479,461.55,519.09
6.16373,459.91,529.25
6.18352,460.55,546.06
6.20388,456.76,557.47
6.22372,455.97,561.34
6.24399,453.72,557.37
6.26464,451.62,556.79
6.28379,451.58,552.58
6.30421,451.44,549.65
6.32461,450.68,543.71
6.34430,451.93,539.52
6.36476,448.74,536.28
6.38351,450.76,531.95
6.40481,454.12,527.69
6.42432,452.54,525.76
6.44355,455.46,525.28
6.46470,455.76,521.53
6.48338,455.83,520.50
6.50421,456.03,519.68
6.52473,456.53,522.01
6.54302,456.86,521.28
6.56462,458.56,519.39
6.58343,456.42,519.62
6.60353,458.97,520.97
6.62402,457.99,523.00
6.64265,458.21,519.61
6.66303,457.64,521.66
6.68385,457.91,518.31
6.70409,460.52,517.82
6.72331,458.68,518.31
6.74384,458.71,517.14
6.76328,458.49,517.53
6.78377,460.11,516.14
6.80392,461.88,516.43
6.82573,459.30,515.96
6.84526,460.96,513.89
6.86443,460.69,514.22
6.88578,460.24,502.00
6.90409,459.33,488.46
6.92376,456.76,468.69
6.94415,457.19,451.37
6.96435,456.97,436.61
6.98435,455.72,426.05
7.00390,454.15,416.56
7.02511,454.22,413.33
7.04418,454.11,413.33
7.06415,452.40,420.55
7.08424,452.66,425.53
7.10579,452.21,431.14
7.12537,452.28,440.23
7.14397,454.98,446.88
7.16497,453.78,455.63
7.18522,452.07,462.77
7.20558,454.05,470.70
7.22562,453.57,474.92
7.24600,457.15,482.62
7.26521,457.08,488.36
7.28646,454.27,493.19
7.30539,457.04,496.54
7.32678,456.39,500.86
7.34605,458.00,505.17
7.36676,457.04,505.52
7.38479,457.13,509.49
7.40611,460.06,512.21
7.42620,461.98,514.02
7.44666,460.26,513.78
7.46580,456.83,519.48
7.48539,456.71,517.68
7.50650,458.69,522.05
7.52551,457.57,523.85
7.54546,459.22,524.29
7.56574,457.14,523.21
7.58636,458.12,523.27
7.60652,458.18,524.20
7.62572,457.35,524.38
7.64666,458.51,522.27
7.66613,457.38,520.75
7.68629,458.37,521.42
7.70564,457.14,520.67
7.72641,459.95,522.35
7.74546,456.77,530.44
7.76579,462.61,549.21
7.78649,462.65,583.45
7.80653,465.84,624.78
7.82593,470.19,651.04
7.84536,470.33,671.83
7.86611,469.22,671.88
7.88602,469.24,664.76
7.90623,464.81,652.86
7.92530,464.90,638.74
7.94610,460.17,618.54
7.96502,460.05,606.08
7.98536,461.03,593.95
8.00549,459.39,583.17
8.02504,461.43,574.33
8.04670,459.62,566.31
8.06585,460.56,558.40
8.08531,460.04,553.92
8.10593,457.56,548.09
8.12564,458.31,546.01
8.14575,460.28,543.83
8.16551,457.43,538.04
8.18557,456.91,536.64
8.20499,459.10,533.61
8.22721,459.22,532.77
8.24598,458.79,534.19
8.26600,459.63,529.77
8.28744,460.45,530.96
8.30679,461.95,530.36
8.32716,462.90,531.55
8.34581,460.19,532.06
8.36781,461.62,531.55
8.38740,461.54,532.42
8.40776,462.99,531.29
8.42715,462.77,528.82
8.44603,460.38,529.22
8.46609,462.86,529.28
8.48609,462.32,529.24
8.50786,461.47,532.52
8.52746,463.66,532.89
8.54757,465.24,531.58
8.56752,463.43,532.66
8.58762,461.63,530.81
8.60666,460.41,531.90
8.62643,460.61,531.15
8.64745,463.81,529.15
8.66703,464.04,529.64
8.68693,462.68,529.43
8.70663,463.34,531.06
8.72612,463.24,529.96
8.74659,462.48,527.70
8.76644,463.69,525.11
8.78651,461.82,524.58
8.80670,463.69,526.71
8.82578,460.30,523.72
8.84595,461.59,526.88
8.86594,462.40,519.08
8.88579,458.34,508.47
8.90629,459.03,491.71
8.92726,455.38,470.58
8.94710,455.53,449.30
8.96766,449.37,434.50
8.98765,449.00,419.58
9.00698,449.22,413.39
9.02660,448.12,410.87
9.04623,447.99,412.14
9.06736,447.42,416.65
9.08683,451.66,422.71
9.10672,453.87,432.60
9.12573,452.29,439.84
9.14708,456.36,449.00
9.16776,453.49,459.79
9.18682,455.31,468.76
9.20614,455.02,474.84
9.22667,458.15,483.44
9.24594,460.43,488.70
9.26732,461.67,492.61
9.28777,461.10,498.03
9.30783,459.50,505.29
9.32684,460.70,508.72
9.34678,461.20,510.63
9.36723,461.59,515.02
9.38699,459.66,517.37
9.40688,462.64,519.28
9.42589,459.29,520.65
9.44580,461.71,521.94
9.46655,459.35,524.44
9.48660,461.81,525.67
9.50740,461.42,526.63
9.52639,459.59,524.52
9.54732,460.03,528.80
9.56611,462.79,525.98
9.58600,462.39,529.01
9.60669,463.29,528.53
9.62707,463.67,529.91
9.64689,466.07,537.31
9.66745,466.27,538.45
9.68768,467.64,537.42
9.70750,463.97,541.63
9.72851,468.98,537.93
9.74778,466.33,537.36
9.76972,468.21,537.10
9.78901,466.00,545.56
9.80960,470.21,570.63
9.82963,471.68,599.79
9.84988,474.78,626.68
9.87024,476.12,647.85
9.89000,477.09,665.70
9.91051,479.18,670.93
9.93033,480.06,665.96
9.95018,476.68,655.61
9.97012,473.85,639.06
9.99044,476.06,627.67
10.00970,473.03,611.85
10.02992,472.45,598.52
10.04966,471.37,591.32
10.06927,471.10,580.37
10.08951,472.30,574.92
10.10893,469.79,566.35
10.12884,468.88,561.65
10.15037,468.25,556.17
10.16914,466.83,553.93
10.19011,467.12,547.77
10.20985,467.64,546.21
10.22959,467.95,544.67
10.24966,467.14,541.32
10.26976,466.45,542.73
10.28994,466.70,540.89
10.30989,465.96,536.49
10.32909,465.63,536.19
10.34919,464.42,535.76
10.37042,463.47,536.19
10.38900,459.55,536.03
10.40986,463.32,532.51
10.42914,460.46,534.97
10.45010,460.97,533.60
10.46947,463.41,531.86
10.49044,459.89,532.23
10.50908,459.57,530.73
10.52952,457.96,530.66
10.55070,460.97,528.85
10.57032,459.66,530.92
10.58892,458.91,529.80
10.61009,460.04,531.36
10.62921,459.53,528.20
10.65003,460.18,530.45
10.66915,458.21,528.07
10.68892,459.23,528.97
10.70975,461.44,527.98
10.72924,461.92,527.83
10.75055,462.14,528.71
10.76874,461.96,527.48
10.78991,464.91,532.94
10.81020,465.08,532.00
10.82867,461.15,527.35
10.84906,462.17,517.97
10.87009,460.42,502.63
10.89034,458.73,486.97
10.91026,456.91,471.81
10.93002,453.53,457.16
10.94940,451.63,446.05
10.96890,452.47,434.79
10.98860,452.43,429.13
11.00987,450.81,423.34
11.03031,451.40,418.82
11.04934,449.63,419.34
11.07038,451.21,423.28
11.08882,453.61,429.45
11.10947,454.04,434.60
11.13034,452.45,439.70
11.14932,453.43,445.71
11.17008,456.64,454.12
11.18989,456.77,459.60
11.21037,456.67,469.14
11.23029,456.49,476.38
11.24879,455.76,482.67
11.26906,456.37,490.24
11.28862,456.68,495.57
11.31009,458.92,496.65
11.33030,457.85,504.03
11.34974,459.23,507.81
11.37009,457.53,509.13
11.38916,459.10,509.95
11.41052,457.91,512.06
11.43055,457.41,517.54
11.44901,459.38,517.79
11.47011,458.96,518.64
11.48923,461.01,519.85
11.50995,459.46,519.78
11.53008,459.83,523.36
11.54939,460.69,523.82
11.56971,459.32,523.26
11.58919,458.96,523.29
11.60996,462.98,523.84
11.62969,461.42,524.61
11.64950,460.97,525.32
11.67034,460.81,523.89
11.68884,461.42,524.69
11.70882,460.48,523.45
11.73043,462.95,523.89
11.75018,460.56,526.06
11.76889,459.59,527.07
11.78958,461.27,527.99
11.81055,461.85,526.92
11.82917,460.73,525.46
11.84958,462.11,544.27
11.86899,463.42,568.91
11.88964,465.84,602.70
11.91007,468.63,632.01
11.92855,465.92,659.61
11.94918,467.93,682.03
11.96908,464.82,692.40
11.98902,465.96,687.76
12.01001,466.82,676.78
12.02975,464.97,658.03
12.05044,463.23,638.73
12.07145,463.28,623.71
12.09126,461.86,607.43
12.11093,458.96,591.72
12.13169,457.66,582.34
12.15117,459.40,572.03
12.17174,457.78,561.80
12.19149,460.22,555.66
12.21209,458.00,552.01
12.23227,459.34,547.65
12.25312,459.52,543.12
12.27221,458.93,540.43
12.29221,457.00,536.59
12.31341,456.04,534.07
12.33318,456.85,534.37
12.35321,458.69,533.79
12.37365,457.85,528.21
12.39384,460.23,530.03
12.41294,459.73,526.62
12.43310,463.75,525.88
12.45313,464.19,522.70
12.47339,464.14,520.00
12.49350,462.97,519.84
12.51280,461.27,521.33
12.53430,462.25,521.95
12.55305,462.23,519.37
12.57435,462.60,519.33
12.59399,459.42,520.06
12.61425,461.46,519.55
12.63313,458.85,520.95
12.65242,460.01,521.66
12.67298,459.38,520.79
12.69295,461.87,521.43
12.71433,459.06,520.27
12.73464,460.35,520.78
12.75396,460.40,522.88
12.77309,459.60,519.55
12.79494,460.32,520.20
12.81360,458.69,522.55
12.83477,460.98,523.83
12.85521,458.09,521.13
12.87440,457.60,517.38
12.89486,456.90,513.57
12.91499,457.24,512.53
12.93470,457.95,510.03
12.95380,458.45,509.84
12.97441,457.02,511.04
12.99492,457.03,513.22
13.01531,459.65,514.77
13.03371,459.74,513.62
13.05503,459.75,518.65
13.07482,460.04,516.84
13.09445,460.56,519.50
13.11448,458.99,519.06
13.13438,463.11,519.09
13.15440,463.15,513.69
13.17538,461.51,504.47
13.19482,458.74,494.80
13.21407,456.66,479.29
13.23383,458.30,466.23
13.25378,458.42,456.73
13.27415,452.95,445.53
13.29399,453.42,439.13
13.31403,448.74,434.50
13.33395,448.51,431.88
13.35366,447.92,430.67
13.37480,449.83,432.56
13.39395,450.14,432.98
13.41445,450.87,438.28
13.43534,451.67,439.10
13.45495,452.00,448.58
13.47551,454.55,455.62
13.49444,456.88,459.61
13.51441,458.69,465.67
13.53415,458.50,474.28
13.55470,456.24,478.36
13.57492,457.86,483.18
13.59466,458.11,491.76
13.61489,458.50,492.87
13.63378,459.74,496.42
13.65449,458.28,499.98
13.67445,459.30,501.94
13.69387,457.99,504.81
13.71421,455.48,507.47
13.73442,457.48,510.90
13.75537,460.04,510.10
13.77454,460.67,511.71
13.79584,461.86,515.79
13.81522,465.10,515.40
13.83485,463.94,518.82
13.85520,466.87,518.17
13.87582,463.62,519.06
13.89642,465.30,518.99
13.91527,465.49,522.34
13.93527,463.10,520.61
13.95561,461.05,520.32
13.97483,460.75,523.04
13.99619,461.41,522.25
14.01700,462.49,524.87
14.03614,463.62,527.30
14.05595,463.44,526.90
14.07681,463.22,525.92
14.09604,464.12,531.24
14.11577,462.37,529.19
14.13700,465.21,528.80
14.15709,465.26,530.47
14.17615,464.80,529.96
14.19717,465.49,527.67
14.21576,464.69,528.95
14.23600,462.74,526.35
14.25693,465.41,525.06
14.27711,462.79,523.97
14.29605,466.11,533.55
14.31751,465.74,553.75
14.33674,467.04,587.39
14.35831,470.05,614.27
14.37718,467.14,639.66
14.39757,469.52,656.26
14.41765,469.57,669.82
14.43707,470.99,670.58
14.45657,468.72,666.86
14.47792,471.46,654.99
14.49859,469.12,637.78
14.51672,469.08,624.32
14.53780,469.37,610.69
14.55682,466.81,595.28
14.57866,464.71,584.77
14.59708,464.25,576.41
14.61757,462.09,566.99
14.63672,462.94,561.14
14.65778,463.02,554.31
14.67720,463.65,550.77
14.69734,462.77,549.46
14.71765,466.98,545.07
14.73796,465.50,542.10
14.75846,465.57,539.49
14.77805,465.36,537.32
14.79815,466.63,534.88
14.81775,467.03,534.01
14.83851,465.95,530.98
14.85691,467.50,531.30
14.87812,467.01,528.02
14.89703,468.96,530.75
14.91910,466.71,527.80
14.93919,465.16,525.95
14.95926,462.52,528.89
14.97961,463.59,524.52
14.99791,461.45,525.53
15.01928,461.96,527.30
15.03895,462.75,526.74
15.05854,462.12,525.08
15.07862,463.94,526.47
15.09894,461.59,526.97
15.11849,462.66,526.52
15.13954,463.38,526.83
15.15935,462.80,526.97
15.17784,461.92,528.26
15.19938,461.04,527.41
15.21914,461.07,527.83
15.23880,461.35,525.03
15.25772,463.06,524.49
15.27867,461.82,519.48
15.29804,456.24,514.38
15.31880,453.40,501.34
15.33861,448.88,493.25
15.35880,446.14,481.38
15.37936,444.94,469.37
15.39771,439.43,458.49
15.41792,440.50,448.54
15.43811,444.27,445.18
15.45830,446.81,438.30
15.47763,451.12,434.07
15.49902,453.68,429.35
15.51819,454.88,430.02
15.53920,457.82,432.84
15.55957,461.67,431.78
15.57786,463.88,436.56
15.59923,466.33,440.59
15.61768,466.15,445.47
15.63808,467.08,450.57
15.65856,469.08,456.04
15.67886,466.82,463.40
15.69921,469.19,468.85
15.71804,466.75,475.07
15.73852,466.06,480.97
15.75765,467.45,487.68
15.77908,468.10,493.82
15.79762,467.18,497.55
15.81771,466.87,501.36
15.83947,464.40,504.49
15.85918,464.29,507.35
15.87956,465.00,514.09
15.89844,464.65,518.15
15.91947,462.73,522.13
15.93859,464.18,523.04
15.95849,463.89,526.27
15.97926,464.01,526.46
15.99854,465.00,528.86
16.01793,462.95,527.18
16.03916,460.94,526.71
16.05940,465.26,528.63
16.07864,465.61,524.38
16.09922,462.67,525.73
16.11949,462.45,524.57
16.13906,463.08,527.52
16.15797,464.17,527.50
16.17819,460.16,532.07
16.19829,464.37,534.19
16.21869,462.55,531.52
16.23770,462.27,532.94
16.25872,464.04,535.18
16.27881,460.53,532.74
16.29856,462.31,530.74
16.31945,462.18,530.22
16.33881,459.99,530.70
16.35824,460.64,527.75
16.37872,462.20,526.36
16.39840,460.14,527.53
16.41786,463.73,527.91
16.43754,461.35,525.77
16.45854,462.59,522.28
16.47793,463.24,521.01
16.49874,462.06,521.24
16.51837,461.93,518.51
16.53901,458.26,516.13
16.55891,457.93,517.58
16.57893,458.82,518.25
16.59968,459.67,518.11
16.61802,462.18,520.50
16.63888,459.08,519.08
16.65887,460.39,520.65
16.67840,458.65,519.36
16.69785,461.82,521.96
16.71883,461.95,521.25
16.73928,459.82,523.28
16.75879,458.85,522.32
16.77947,460.19,521.46
16.79818,458.27,532.52
16.81915,463.65,553.72
16.83920,464.25,586.49
16.85927,464.69,623.83
16.87908,468.10,647.59
16.89960,465.92,667.24
16.92018,465.69,666.75
16.93881,463.87,659.26
16.95915,462.53,647.37
16.97952,464.77,633.05
16.99865,464.56,621.35
17.01899,459.98,607.37
17.04008,460.96,593.79
17.05880,462.35,584.42
17.08040,461.04,573.28
17.09934,460.22,566.15
17.11997,457.48,558.79
17.13913,456.48,552.31
17.15907,457.83,547.36
17.18018,458.47,541.73
17.19899,462.16,535.19
17.22038,462.07,531.81
17.23939,461.68,531.58
17.25987,459.75,527.63
17.28054,461.98,526.61
17.29873,459.88,523.89
17.31885,460.17,522.94
17.33916,460.79,522.60
17.36107,457.50,518.59
17.38051,458.84,519.89
17.40103,460.11,520.77
17.41944,459.11,520.09
17.44054,457.99,515.54
17.46142,457.14,515.78
17.48106,456.12,515.75
17.50162,458.31,518.00
17.52090,458.54,517.40
17.54071,457.78,518.38
17.56095,457.64,519.15
17.58209,459.40,522.70
17.60067,459.53,520.79
17.62080,459.08,516.85
17.64202,460.54,508.23
17.66223,458.32,496.57
17.68084,458.16,481.36
17.70134,457.41,471.39
17.72084,455.97,461.11
17.74099,457.60,449.86
17.76052,454.67,442.19
17.78144,452.92,435.53
17.80112,450.81,429.16
17.82165,453.37,423.85
17.84138,455.78,425.07
17.86228,455.74,426.83
17.88135,457.59,428.13
17.90195,455.94,433.29
17.92098,453.60,437.85
17.94232,453.75,442.39
17.96315,453.96,447.81
17.98288,455.24,457.36
18.00266,455.62,463.65
18.02321,455.55,468.88
18.04309,454.38,475.12
18.06199,454.58,480.90
18.08324,454.82,487.04
18.10334,453.83,492.76
18.12237,454.52,495.01
18.14260,457.14,497.26
18.16310,454.32,500.53
18.18222,455.04,505.07
18.20319,455.71,505.08
18.22302,454.98,506.69
18.24212,457.91,509.84
18.26176,455.86,510.88
18.28306,455.42,511.23
18.30286,457.71,513.37
18.32294,455.53,514.02
18.34210,457.79,514.70
18.36190,457.18,517.35
18.38261,454.47,514.74
18.40328,454.98,515.93
18.42189,456.55,519.77
18.44166,457.26,519.26
18.46174,457.46,518.83
18.48174,455.40,517.63
18.50174,458.32,520.31
18.52257,456.36,519.64
18.54165,456.69,517.78
18.56187,459.15,517.73
18.58156,459.19,519.69
18.60237,458.95,519.09
18.62238,457.56,525.79
18.64354,461.45,544.08
18.66327,464.53,573.70
18.68307,465.50,603.12
18.70263,466.16,632.26
18.72216,467.77,654.35
18.74369,467.14,665.96
18.76168,466.79,676.38
18.78211,467.39,679.03
18.80178,465.41,670.44
18.82301,467.91,658.45
18.84354,466.41,643.98
18.86200,467.35,625.82
18.88182,466.11,609.48
18.90308,464.78,598.43
18.92299,460.75,583.63
18.94279,460.35,572.90
18.96189,460.92,565.75
18.98251,461.57,556.45
19.00307,458.17,549.28
19.02300,461.33,546.02
19.04302,459.62,538.43
19.06230,461.39,529.40
19.08228,459.89,527.81
19.10261,458.24,521.27
19.12133,459.50,515.60
19.14180,460.19,509.87
19.16318,457.19,507.12
19.18133,456.13,507.11
19.20336,456.49,507.76
19.22131,458.12,507.33
19.24197,458.46,507.88
19.26251,460.39,505.18
19.28338,458.73,507.54
19.30322,461.01,507.61
19.32218,462.17,509.17
19.34310,459.32,512.09
19.36173,458.64,511.21
19.38231,460.92,513.51
19.40277,458.53,513.23
19.42212,460.30,513.91
19.44250,459.44,516.29
19.46224,459.30,516.77
19.48256,460.56,517.89
19.50329,458.23,517.07
19.52160,459.15,518.44
19.54326,458.96,516.94
19.56287,458.09,519.62
19.58283,461.95,513.73
19.60216,460.16,506.08
19.62189,463.07,492.41
19.64166,463.02,480.22
19.66250,462.91,466.16
19.68312,465.93,455.01
19.70178,466.44,446.09
19.72171,467.55,438.63
19.74168,464.08,430.14
19.76301,463.23,427.03
19.78327,465.44,425.31
19.80233,461.27,424.71
19.82305,462.95,425.81
19.84156,460.50,427.74
19.86158,457.57,427.35
19.88223,457.11,432.84
19.90247,454.78,436.75
19.92325,457.53,441.49
19.94178,456.57,447.14
19.96243,455.18,454.55
19.98270,452.24,460.85
20.00163,452.16,468.23
20.02178,454.93,472.87
20.04264,455.13,481.51
20.06251,455.60,484.43
20.08321,456.95,491.78
20.10165,456.72,496.11
20.12192,458.74,500.24
20.14176,456.78,504.38
20.16206,459.93,506.22
20.18187,457.41,512.81
20.20245,460.57,516.99
20.22294,460.75,518.44
20.24346,458.14,520.18
20.26434,461.37,526.21
20.28443,458.52,525.56
20.30445,459.89,525.36
20.32449,457.16,526.53
20.34500,459.73,526.07
20.36521,458.08,525.61
20.38332,461.53,525.00
20.40377,462.18,524.27
20.42398,463.15,526.84
20.44451,460.32,526.12
20.46481,461.00,525.35
20.48410,463.36,524.82
20.50364,465.21,526.67
20.52514,463.44,526.08
20.54490,462.63,524.71
20.56450,462.57,524.59
20.58500,464.02,526.87
20.60380,461.90,524.65
20.62375,461.53,525.83
20.64435,462.87,541.76
20.66435,462.41,571.87
20.68510,464.55,613.74
20.70445,467.55,653.36
20.72433,470.51,682.76
20.74405,471.39,692.37
20.76379,468.82,699.39
20.78362,472.05,691.81
20.80390,469.72,678.84
20.82461,469.97,664.24
20.84495,466.63,644.63
20.86536,464.39,627.80
20.88470,462.40,607.87
20.90455,461.45,593.18
20.92396,460.47,582.05
20.94459,460.84,569.19
20.96480,461.61,564.44
20.98509,461.52,555.85
21.00391,460.68,549.43
21.02452,460.43,547.15
21.04468,463.06,543.91
21.06534,461.29,535.90
21.08482,462.78,533.99
21.10434,465.63,532.02
21.12548,466.54,527.97
21.14461,465.94,528.15
21.16371,464.84,529.30
21.18463,467.10,524.81
21.20511,464.60,525.55
21.22513,465.43,526.24
21.24529,465.71,529.23
21.26385,462.58,525.01
21.28479,462.49,527.82
21.30436,465.59,528.23
21.32462,465.71,530.71
21.34352,465.00,527.11
21.36512,465.62,529.68
21.38511,463.78,527.43
21.40520,463.99,527.50
21.42364,463.97,528.61
21.44434,461.97,529.88
21.46420,463.30,527.53
21.48424,462.15,529.42
21.50441,459.48,524.91
21.52435,463.30,525.76
21.54378,461.56,526.04
21.56494,460.01,526.63
21.58376,460.80,525.48
21.60359,462.80,526.69
21.62538,461.08,527.49
21.64426,461.89,527.66
21.66361,460.14,521.04
21.68388,462.21,506.58
21.70340,463.14,492.63
21.72445,460.09,476.51
21.74481,459.38,462.82
21.76381,457.72,449.98
21.78465,455.72,441.09
21.80428,455.11,435.14
21.82376,455.85,427.24
21.84471,451.81,426.50
21.86484,452.74,423.00
21.88404,455.86,427.02
21.90483,456.79,428.95
21.92439,457.97,434.19
21.94525,453.35,438.81
21.96521,454.68,443.92
21.98467,458.15,452.03
22.00478,457.93,458.62
22.02365,457.17,466.37
22.04429,461.78,472.46
22.06400,459.21,478.83
22.08361,462.40,485.49
22.10391,461.39,490.39
22.12453,461.54,492.26
22.14351,463.03,499.66
22.16357,464.79,502.70
22.18512,464.63,504.04
22.20487,461.04,509.43
22.22480,464.20,509.25
22.24432,460.50,511.88
22.26391,461.42,515.13
22.28346,462.04,514.59
22.30397,463.27,515.73
22.32459,463.73,516.43
22.34416,462.77,518.72
22.36385,462.42,519.51
22.38402,462.97,520.46
22.40477,461.91,521.01
22.42479,461.73,523.18
22.44424,461.41,525.11
22.46534,459.01,527.46
22.48377,462.89,528.52
22.50517,460.35,529.39
22.52501,458.46,528.71
22.54399,460.04,529.29
22.56447,461.87,526.31
22.58351,459.78,529.24
22.60461,458.42,526.89
22.62426,461.81,527.07
22.64499,458.22,525.15
22.66534,460.86,523.44
22.68515,457.82,524.85
22.70371,457.56,543.69
22.72361,459.47,570.14
22.74515,458.50,603.95
22.76366,459.57,633.26
22.78488,461.08,655.93
22.80337,463.35,674.61
22.82486,464.14,675.71
22.84433,464.92,671.89
22.86361,462.75,661.83
22.88523,464.24,645.77
22.90446,461.92,632.37
22.92357,465.27,615.37
22.94468,463.43,604.41
22.96552,461.51,591.89
22.98585,459.69,580.30
23.00526,461.04,569.65
23.02638,457.47,561.47
23.04448,461.20,556.47
23.06468,459.17,551.00
23.08423,460.69,547.21
23.10587,460.43,540.95
23.12614,462.42,539.06
23.14739,460.84,536.06
23.16657,458.71,532.05
23.18719,457.69,531.18
23.20573,458.86,528.02
23.22538,460.23,527.43
23.24809,460.08,527.53
23.26740,459.32,525.80
23.28741,458.67,524.77
23.30756,460.60,521.10
23.32742,458.78,520.77
23.34771,459.55,520.91
23.36700,458.18,521.47
23.38793,458.06,517.74
23.40804,456.42,521.37
23.42643,454.98,522.33
23.44772,458.04,522.46
23.46713,456.20,520.73
23.48828,457.46,522.85
23.50811,455.22,522.06
23.52750,456.09,520.62
23.54724,455.55,520.35
23.56772,454.24,519.24
23.58716,455.22,519.74
23.60699,455.70,518.34
23.62786,456.59,520.42
23.64718,458.15,517.68
23.66709,454.28,512.03
23.68856,455.90,504.13
23.70681,454.30,490.59
23.72665,450.03,477.63
23.74674,447.23,464.62
23.76839,448.52,451.70
23.78801,450.93,441.96
23.80757,447.00,430.16
23.82704,449.69,420.59
23.84774,447.75,416.14
23.86778,453.52,417.38
23.88744,454.19,416.18
23.90754,457.26,421.89
23.92698,457.83,425.72
23.94707,460.27,431.33
23.96680,457.63,438.35
23.98760,456.53,448.55
24.00660,456.96,453.38
24.02663,457.38,461.92
24.04720,458.72,470.18
24.06735,458.81,476.18
24.08707,456.12,484.19
24.10710,456.30,488.56
24.12682,457.33,494.54
24.14654,461.15,497.77
24.16795,462.09,499.96
24.18826,459.32,504.20
24.20822,462.93,506.76
24.22730,459.73,507.52
24.24707,460.74,509.11
24.26727,460.41,511.32
24.28750,460.66,512.26
24.30795,461.63,514.35
24.32747,460.25,516.93
24.34743,462.58,515.35
24.36810,460.58,518.60
24.38690,456.06,519.83
24.40722,459.44,520.46
24.42642,459.14,517.50
24.44715,458.81,516.73
24.46814,457.47,516.32
24.48710,457.83,519.16
24.50821,457.22,520.72
24.52697,456.21,521.27
24.54698,458.44,521.37
24.56702,457.65,520.37
24.58754,457.52,520.69
24.60824,457.18,519.99
24.62632,459.83,520.38
24.64786,458.37,519.50
24.66808,457.34,521.45
24.68693,456.73,520.59
24.70910,460.68,522.27
24.72749,461.69,535.90
24.74862,464.97,568.75
24.76761,466.44,609.14
24.78910,466.21,639.53
24.80759,466.79,665.88
24.82918,467.39,680.96
24.84860,470.34,679.80
24.86919,469.07,670.75
24.88804,469.94,655.42
24.90914,468.20,637.21
24.92849,467.07,621.56
24.94873,464.75,607.88
24.96850,462.81,594.19
24.98821,462.02,585.45
25.00797,461.60,574.51
25.02851,463.95,562.14
25.04893,460.43,560.15
25.06832,459.09,553.00
25.08755,462.09,546.73
25.10924,458.70,540.24
25.12823,458.91,537.19
25.14894,460.41,537.42
25.16768,456.52,530.24
25.18762,457.74,527.69
25.20863,459.45,527.51
25.22820,457.66,525.54
25.24741,455.82,526.28
25.26778,456.91,525.69
25.28791,457.95,524.95
25.30892,457.88,525.72
25.32791,458.16,521.99
25.34750,457.04,523.91
25.36928,459.69,522.77
25.38879,459.80,525.17
25.40833,459.29,522.61
25.43025,459.28,521.04
25.44990,459.26,521.24
25.46886,462.85,520.85
25.48865,462.87,521.15
25.50948,462.46,522.70
25.53020,461.38,524.50
25.55006,462.44,525.34
25.56884,460.07,525.73
25.59002,458.59,523.87
25.60993,459.50,524.15
25.63010,459.86,525.94
25.64889,461.33,524.22
25.66913,460.76,524.19
25.68968,461.44,521.13
25.70949,459.66,523.93
25.72967,463.16,523.74
25.74995,460.80,526.54
25.76833,462.55,523.95
25.78825,458.44,518.60
25.80934,457.09,509.18
25.82836,454.75,496.67
25.84880,453.93,481.56
25.86871,450.27,471.79
25.88847,448.92,458.89
25.90920,450.92,450.80
25.92870,450.36,442.48
25.94969,450.93,436.08
25.96833,448.20,433.21
25.99003,452.83,428.51
26.00996,453.27,429.49
26.02858,455.16,431.54
26.04974,457.41,432.82
26.06984,458.53,437.92
26.08838,461.44,443.70
26.10993,461.84,450.96
26.12877,465.16,457.65
26.14911,462.58,463.86
26.16968,462.05,467.52
26.18857,463.84,475.52
26.20844,463.12,481.19
26.22908,462.16,488.01
26.24850,463.93,490.71
26.26870,462.87,494.11
26.28912,463.76,499.66
26.30888,467.12,502.67
26.32897,464.93,506.64
26.34856,467.75,509.17
26.37000,465.83,508.43
26.38852,466.70,513.41
26.41003,466.78,512.45
26.42976,464.93,515.96
26.44991,464.23,518.63
26.47020,463.73,518.52
26.48842,465.44,519.22
26.50944,465.46,518.32
26.52967,461.22,521.19
26.54927,461.29,521.74
26.56827,458.56,522.46
26.58979,458.61,520.81
26.61008,461.02,523.50
26.62930,458.80,523.20
26.64921,457.40,523.46
26.66944,462.54,522.20
26.68988,459.64,523.22
26.70907,459.60,521.09
26.72968,462.48,521.90
26.74913,462.30,522.81
26.76906,463.36,521.83
26.78922,459.54,517.71
26.80983,461.90,537.77
26.82835,462.39,566.80
26.85007,465.02,597.84
26.86828,469.20,628.46
26.88834,468.85,651.90
26.90952,471.35,667.66
26.92913,472.13,670.88
26.94925,474.02,664.25
26.96951,470.55,654.70
26.98900,470.11,637.48
27.00913,472.06,625.33
27.02842,470.17,608.62
27.04881,470.35,594.72
27.07015,467.29,584.23
27.08981,466.13,575.63
27.10870,464.61,568.51
27.12831,464.44,560.04
27.14951,463.06,552.03
27.16870,462.83,548.74
27.18907,462.27,545.44
27.20816,460.67,542.48
27.22839,462.40,536.81
27.24996,461.65,533.75
27.26942,462.39,529.54
27.28995,459.44,527.89
27.30889,459.20,529.36
27.32884,460.76,533.13
27.34933,462.33,539.23
27.37025,460.34,542.04
27.38863,460.96,546.76
27.40861,459.44,544.26
27.42931,459.19,542.74
27.45028,460.93,543.72
27.46969,461.02,539.47
27.48977,458.01,538.82
27.50833,457.22,536.31
27.52903,459.81,536.96
27.55017,458.80,533.24
27.56998,459.08,533.58
27.58837,461.89,528.71
27.60822,459.14,531.86
27.62927,461.89,528.80
27.64909,461.54,526.55
27.66951,460.30,528.55
27.68835,460.07,525.64
27.70933,461.55,522.51
27.72869,459.24,522.65
27.74873,460.52,523.98
27.77002,459.08,530.11
27.78970,459.07,534.56
27.80973,459.66,539.95
27.82892,460.43,541.68
27.84999,464.89,540.91
27.86911,463.98,532.32
27.88924,464.45,524.18
27.90844,463.58,513.90
27.92916,461.50,502.85
27.95012,459.87,487.22
27.97015,457.24,474.03
27.98938,456.02,457.61
28.00970,458.76,444.30
28.02846,458.50,435.13
28.04866,457.70,428.51
28.06837,456.87,422.11
28.08984,457.24,421.18
28.10844,458.92,426.38
28.12887,454.70,426.29
28.14872,458.51,434.12
28.16912,456.21,438.53
28.18838,457.50,448.37
28.21120,456.41,452.98
28.22979,456.34,460.02
28.24959,457.37,467.87
28.27107,460.34,473.71
28.29032,459.15,477.35
28.30956,460.78,485.26
28.32969,462.78,488.74
28.35018,463.95,493.24
28.37073,461.91,496.51
28.38979,464.21,501.26
28.40983,462.10,503.04
28.43012,461.74,508.02
28.45012,461.26,510.53
28.47092,460.95,513.78
28.49078,463.51,515.59
28.50931,463.78,516.17
28.53108,459.10,520.74
28.55065,462.35,521.32
28.57083,463.47,521.77
28.59006,461.05,525.27
28.61092,460.36,525.23
28.63063,462.30,525.87
28.65025,464.12,524.42
28.66946,463.12,524.83
28.69065,460.52,525.24
28.70967,463.32,523.25
28.73094,462.33,523.92
28.75098,463.48,523.25
28.77003,461.28,525.70
28.79047,461.95,525.92
28.81094,461.03,538.55
28.82989,461.95,564.91
28.85119,463.68,597.89
28.87093,462.22,631.02
28.89106,462.98,653.97
28.91026,463.64,668.92
28.93048,466.49,672.23
28.94950,465.76,672.57
28.96996,466.73,664.65
28.98922,465.44,650.03
29.01126,465.51,634.89
29.03030,463.62,617.23
29.05118,463.30,604.21
29.06956,464.30,592.10
29.08950,463.88,585.51
29.11049,463.21,574.21
29.13101,462.24,565.63
29.15057,464.56,559.04
29.16943,462.03,551.39
29.19103,464.78,549.58
29.21030,462.50,545.10
29.22947,461.70,541.71
29.25084,463.75,537.76
29.26953,461.47,535.45
29.28927,460.70,532.08
29.31010,460.98,525.53
29.33073,465.46,523.06
29.35122,466.80,523.05
29.36973,464.02,523.44
29.39076,465.48,522.68
29.41117,467.42,520.87
29.42921,464.26,519.05
29.45055,464.39,521.24
29.47014,465.79,521.65
29.49118,466.24,518.94
29.51070,466.41,520.87
29.53052,464.27,520.47
29.55033,463.57,522.31
29.57103,462.64,524.71
29.59019,463.48,523.12
29.60993,459.77,522.00
29.63048,460.28,522.07
29.65026,462.77,525.20
29.67130,460.67,524.69
29.69054,462.77,523.48
29.71094,462.64,523.50
29.72951,463.54,522.51
29.74983,461.70,522.37
29.77062,461.35,524.68
29.78929,462.80,524.48
29.80935,460.43,522.00
29.82992,460.13,523.37
29.84958,461.50,509.57
29.86968,460.69,496.30
29.88986,462.17,481.39
29.90965,464.71,469.52
29.93012,463.56,455.45
29.94954,464.50,446.11
29.97061,463.56,437.92
29.99089,460.26,433.20
30.01066,457.70,429.83
30.03021,456.47,429.54
30.05035,456.64,433.07
30.07113,453.71,436.98
30.08967,455.65,443.73
30.10979,458.27,446.24
30.12989,455.50,456.72
30.14965,458.70,461.63
30.17099,457.20,467.41
30.18996,456.36,470.59
30.21096,456.71,471.98
30.22966,460.49,474.22
30.25089,459.33,478.25
30.27027,458.22,480.79
30.29032,458.01,484.67
30.31076,460.20,490.74
30.32931,461.42,493.21
30.35028,457.87,497.27
30.37073,462.00,497.82
30.38933,460.97,502.87
30.41030,457.45,505.62
30.43036,460.71,506.61
30.45108,457.77,508.31
30.46992,460.26,512.92
30.49033,459.42,511.70
30.50940,460.17,513.90
30.53076,459.40,514.43
30.55071,459.60,514.52
30.57052,459.75,513.71
30.59052,459.70,518.09
30.61108,459.00,517.57
30.63057,458.60,516.88
30.64948,457.32,519.19
30.67049,456.94,519.61
30.68968,457.85,517.16
30.70940,456.98,519.16
30.72963,459.42,517.46
30.75012,459.61,529.90
30.76952,459.83,553.23
30.79091,455.92,590.51
30.80925,452.91,624.26
30.82930,455.14,660.22
30.84999,453.25,678.59
30.87051,458.66,690.48
30.88956,460.88,695.59
30.91125,460.20,688.05
30.92955,462.92,675.32
30.95040,462.75,657.44
30.96974,461.53,641.49
30.99102,460.60,623.57
31.01073,460.95,608.71
31.03034,460.27,596.97
31.05018,464.17,579.87
31.06960,465.40,566.54
31.08919,467.36,559.04
31.11048,464.30,552.17
31.12940,467.01,542.47
31.14965,465.80,538.69
31.16925,464.35,535.75
31.18980,463.76,530.71
31.21078,462.40,528.47
31.22959,463.25,525.13
31.24999,464.36,526.14
31.26938,462.30,524.82
31.28991,460.29,523.88
31.30967,463.05,521.25
31.33091,461.22,519.15
31.34931,461.54,517.21
31.37106,461.87,516.99
31.39109,460.72,514.32
31.41027,461.57,514.26
31.43054,462.21,513.77
31.44968,462.18,514.44
31.46992,459.47,516.14
31.49033,460.38,516.07
31.51000,457.11,516.76
31.53107,459.81,519.09
31.54991,460.58,520.62
31.57002,459.66,520.00
31.58966,457.46,518.07
31.60978,458.55,517.72
31.63062,456.68,517.95
31.65000,457.54,518.18
31.66982,457.39,524.41
31.69013,457.78,518.50
31.70980,454.36,508.73
31.73008,453.38,494.53
31.75077,449.23,480.67
31.77006,448.81,471.79
31.78982,446.17,458.71
31.80937,447.23,446.23
31.82956,445.45,437.00
31.84995,449.83,430.10
31.86948,448.40,424.24
31.89003,453.10,417.79
31.91016,453.38,417.72
31.93008,452.87,419.64
31.95048,452.17,425.72
31.97085,454.78,431.86
31.98972,455.65,438.99
32.01061,457.49,444.17
32.03014,457.19,453.91
32.04945,460.95,462.73
32.07124,460.44,469.10
32.09023,461.00,479.22
32.11043,462.73,484.77
32.12950,460.25,488.84
32.15068,464.45,494.09
32.17111,464.51,497.94
32.19118,461.74,498.08
32.20987,461.45,503.51
32.23016,462.74,506.15
32.25105,460.05,507.16
32.26980,460.78,508.17
32.29005,459.60,509.67
32.31072,460.48,507.03
32.32999,458.68,509.08
32.34953,461.09,509.16
32.37031,460.98,509.79
32.39092,460.62,511.21
32.41057,459.34,513.44
32.42983,461.82,512.46
32.45110,458.40,516.25
32.46990,459.68,516.25
32.48970,457.39,515.47
32.51069,460.06,518.24
32.53035,457.45,517.76
32.55066,458.95,517.89
32.57082,457.30,516.53
32.58965,458.77,519.87
32.61053,458.68,518.76
32.63043,458.85,520.67
32.64930,458.92,520.51
32.66942,458.20,516.90
32.68965,458.10,518.73
32.71091,458.43,516.30
32.73115,457.90,515.69
32.75010,458.06,525.05
32.76987,456.24,550.10
32.78983,458.94,577.83
32.81111,460.59,616.89
32.83075,461.21,647.28
32.84974,465.12,669.61
32.87050,463.12,684.80
32.88955,466.44,682.81
32.90999,467.89,670.99
32.93114,469.91,653.44
32.95028,468.94,634.78
32.97140,466.14,619.03
32.99167,465.95,603.46
33.01228,467.54,589.43
33.03335,464.93,580.13
33.05333,467.11,567.25
33.07271,461.80,561.90
33.09369,462.74,555.11
33.11212,460.83,549.16
33.13346,462.32,544.25
33.15283,461.26,541.65
33.17321,463.19,537.49
33.19331,461.86,531.77
33.21275,461.73,530.86
33.23407,462.57,527.25
33.25333,459.29,524.66
33.27417,458.85,522.55
33.29385,459.13,524.13
33.31204,456.69,521.34
33.33315,459.34,520.31
33.35291,459.79,522.69
33.37249,460.39,522.23
33.39426,460.98,523.93
33.41342,459.33,521.45
33.43313,459.00,521.71
33.45252,460.60,522.07
33.47389,459.78,523.38
33.49248,463.35,521.21
33.51284,463.45,524.29
33.53272,460.46,524.61
33.55435,459.51,523.09
33.57370,460.93,524.63
33.59388,459.27,524.91
33.61324,460.28,523.01
33.63315,457.82,523.54
33.65368,459.24,523.44
33.67317,461.20,523.31
33.69356,459.44,525.66
33.71320,462.34,523.72
33.73514,459.31,523.88
33.75387,462.01,523.39
33.77440,461.20,524.26
33.79331,458.67,524.86
33.81413,460.98,523.41
33.83345,462.40,524.91
33.85313,459.46,526.48
33.87457,461.65,526.88
33.89501,461.99,525.92
33.91491,459.80,526.81
33.93468,460.65,531.62
33.95472,461.14,527.24
33.97338,460.86,518.61
33.99420,462.38,504.32
34.01354,459.25,489.88
34.03433,460.49,475.69
34.05432,456.52,461.72
34.07466,457.81,446.41
34.09383,455.02,436.12
34.11362,455.46,429.96
34.13467,457.08,426.21
34.15493,457.39,423.99
34.17500,458.26,421.46
34.19536,455.68,425.65
34.21603,455.15,430.96
34.23641,457.10,436.83
34.25728,456.49,444.82
34.27764,461.05,448.96
34.29793,460.50,454.55
34.31702,462.45,465.20
34.33631,461.30,470.06
34.35631,462.47,476.88
34.37683,460.00,484.38
34.39652,461.53,490.40
34.41803,460.65,496.51
34.43841,460.67,503.04
34.45971,462.60,506.89
34.47824,463.44,510.23
34.49912,459.70,512.48
34.51806,458.67,512.74
34.53995,459.37,516.76
34.56077,460.67,518.09
34.58270,456.80,518.75
34.60158,456.87,518.71
34.62266,458.22,519.49
34.64245,456.09,521.64
34.66247,454.48,521.08
34.68284,456.42,520.23
34.70183,458.56,523.58
34.72181,457.29,523.72
34.74209,458.95,524.43
34.76258,459.67,525.38
34.78192,459.04,524.72
34.80289,455.97,524.43
34.82375,460.63,523.61
34.84317,458.95,524.61
34.86356,459.42,522.19
34.88365,456.84,524.14
34.90398,456.15,522.46
34.92247,457.04,518.09
34.94309,458.73,518.33
34.96329,458.80,517.78
34.98403,456.46,517.50
35.00481,457.02,513.02
35.02454,459.55,513.01
35.04418,457.66,513.71
35.06529,460.10,516.02
35.08528,458.23,515.53
35.10679,459.89,516.28
35.12701,459.26,534.84
35.14726,459.15,559.82
35.16757,459.67,592.66
35.18699,460.96,619.10
35.20731,462.79,642.79
35.22788,466.65,658.16
35.24751,469.10,670.24
35.26777,468.32,676.91
35.28619,470.97,674.84
35.30726,467.59,663.84
35.32606,468.98,651.68
35.34705,466.50,634.88
35.36655,464.68,618.33
35.38708,465.71,604.11
35.40838,463.22,589.27
35.42722,464.15,578.15
35.44847,465.16,569.30
35.46907,462.75,561.08
35.48775,462.34,554.39
35.50828,459.70,550.03
35.52881,458.37,543.68
35.54824,457.98,538.24
35.56878,458.48,534.78
35.58860,459.42,530.23
35.60718,461.18,525.88
35.62779,460.76,527.59
35.64868,458.43,522.67
35.66724,458.31,521.49
35.68872,457.64,519.09
35.70881,459.68,520.66
35.72854,460.56,518.78
35.74865,459.29,518.63
35.76729,457.21,519.83
35.78901,457.42,519.12
35.80892,458.48,518.09
35.82739,459.29,519.96
35.84863,459.55,518.04
35.86813,456.92,518.36
35.88811,457.56,518.19
35.90796,458.98,521.05
35.92810,459.14,520.92
35.94861,460.31,520.62
35.96893,459.96,522.40
35.98945,459.72,520.60
36.00904,461.58,520.04
36.02961,460.49,522.29
36.04810,460.17,520.24
36.06913,463.56,520.12
36.08903,460.68,521.15
36.10916,463.18,520.40
36.12946,460.62,519.85
36.14956,463.49,521.95
36.17005,459.94,522.82
36.18892,460.62,521.40
36.21014,461.75,518.13
36.22833,460.06,521.04
36.24884,459.76,523.01
36.26927,460.06,522.31
36.28932,461.38,525.10
36.31084,463.35,531.64
36.33065,460.08,540.83
36.34996,461.22,543.11
36.36982,461.91,545.18
36.38933,458.56,540.28
36.41106,457.35,531.47
36.42934,455.51,515.22
36.45063,454.70,493.51
36.47092,454.19,472.49
36.49106,451.81,450.92
36.51031,449.49,435.72
36.52991,451.74,422.64
36.55064,448.60,412.50
36.57081,451.60,411.50
36.59083,450.85,410.78
36.61003,450.83,413.22
36.63048,455.05,418.79
36.65030,455.83,428.59
36.66947,453.15,436.31
36.69051,454.75,444.67
36.70906,456.59,453.55
36.73113,460.38,462.19
36.75139,461.62,473.09
36.77062,461.32,478.79
36.79175,461.12,486.07
36.81062,460.20,491.22
36.83070,460.45,495.16
36.85155,462.90,497.71
36.87020,462.45,502.16
36.89223,467.04,506.51
36.91298,465.59,509.70
36.93272,466.18,512.03
36.95412,464.88,511.59
36.97436,465.50,512.24
36.99456,465.63,517.60
37.01448,463.57,516.87
37.03384,464.57,519.40
37.05293,463.40,516.83
37.07428,461.06,520.26
37.09410,459.48,522.80
37.11298,461.43,520.06
37.13391,459.73,524.48
37.15353,460.51,522.33
37.17319,460.32,524.49
37.19413,460.00,523.20
37.21486,460.09,524.06
37.23466,461.13,524.28
37.25333,459.89,524.41
37.27379,460.11,523.17
37.29479,460.21,520.48
37.31406,461.86,518.48
37.33427,457.05,518.16
37.35419,457.58,518.05
37.37453,458.71,531.96
37.39402,459.61,564.45
37.41355,460.14,598.99
37.43324,460.92,630.30
37.45471,460.21,654.10
37.47314,462.44,668.86
37.49461,463.71,673.09
37.51417,463.94,668.11
37.53445,463.87,655.45
37.55343,465.68,638.44
37.57340,464.82,623.13
37.59375,463.92,612.93
37.61508,464.82,596.19
37.63429,463.65,583.84
37.65331,464.93,576.48
37.67380,463.45,566.32
37.69479,462.15,559.79
37.71387,461.39,551.24
37.73366,459.25,546.75
37.75433,458.79,545.98
37.77319,459.24,540.20
37.79323,461.01,536.56
37.81483,461.74,535.12
37.83473,461.47,529.89
37.85462,459.28,528.50
37.87406,459.06,525.93
37.89494,458.75,526.46
37.91344,457.12,523.61
37.93503,459.63,526.13
37.95288,457.83,522.25
37.97287,458.09,524.31
37.99459,457.65,523.19
38.01461,458.15,522.90
38.03354,457.40,522.69
38.05399,459.78,523.56
38.07442,457.20,524.09
38.09477,460.08,520.81
38.11382,458.10,521.98
38.13396,456.76,521.68
38.15305,456.93,520.28
38.17418,456.78,522.05
38.19401,458.52,521.79
38.21469,455.20,519.13
38.23425,456.02,518.67
38.25474,455.99,520.18
38.27420,457.56,520.64
38.29569,459.57,517.37
38.31408,457.40,511.90
38.33578,453.96,499.93
38.35445,453.62,485.49
38.37577,454.73,469.48
38.39598,451.29,458.26
38.41563,451.21,449.09
38.43610,451.95,436.28
38.45486,448.58,429.25
38.47553,448.30,420.41
38.49557,447.85,416.46
38.51481,447.49,412.65
38.53423,450.78,414.85
38.55559,448.63,418.30
38.57458,451.90,424.42
38.59558,450.63,433.29
38.61588,454.59,441.59
38.63548,454.12,452.35
38.65649,453.98,458.18
38.67580,453.41,465.51
38.69769,453.19,472.98
38.71748,457.61,480.78
38.73804,456.27,483.36
38.75785,457.69,491.26
38.77779,456.42,495.91
38.79845,460.78,499.45
38.81968,458.54,503.90
38.83886,459.79,505.21
38.85940,461.95,508.50
38.87885,459.02,508.45
38.89922,460.26,513.57
38.92002,459.95,512.10
38.93816,458.94,516.35
38.95849,459.27,514.98
38.97984,458.39,517.30
38.99941,458.05,517.55
39.01987,459.64,520.49
39.04133,459.84,522.90
39.06140,459.73,522.07
39.08164,458.25,521.01
39.10161,457.78,520.16
39.12136,462.00,524.32
39.14150,457.97,526.60
39.16127,457.44,527.88
39.18144,459.78,527.17
39.20337,457.44,527.71
39.22266,459.56,528.05
39.24303,456.84,525.08
39.26285,458.47,527.49
39.28244,459.74,524.53
39.30394,459.14,523.65
39.32206,463.19,526.06
39.34295,460.70,522.12
39.36469,462.57,522.57
39.38331,462.17,519.91
39.40391,461.03,520.29
39.42464,461.59,518.34
39.44369,460.62,518.69
39.46471,461.13,518.07
39.48324,461.04,516.98
39.50380,459.72,517.57
39.52392,461.56,516.25
39.54469,459.82,515.80
39.56284,459.84,534.62
39.58556,463.62,564.39
39.60537,463.44,596.62
39.62627,469.16,630.33
39.64596,469.51,654.41
39.66511,471.09,670.37
39.68564,468.68,673.47
39.70690,469.84,668.04
39.72784,467.84,655.01
39.74896,467.48,640.39
39.76991,462.91,621.42
39.78941,461.91,610.11
39.81149,463.33,598.02
39.83130,460.10,582.98
39.84988,461.80,574.22
39.87024,460.96,564.81
39.89167,459.31,556.59
39.91037,457.86,551.28
39.93069,460.12,545.49
39.95164,458.38,541.96
39.97128,458.38,537.91
39.99098,455.93,533.93
40.01097,458.57,529.57
40.03108,456.00,527.42
40.05099,455.79,527.76
40.07384,455.19,525.98
40.09345,455.72,523.89
40.11331,457.56,525.56
40.13376,455.57,522.41
40.15335,455.84,525.81
40.17572,454.69,526.70
40.19517,454.48,526.26
40.21559,455.86,525.79
40.23447,453.38,527.13
40.25510,455.25,523.69
40.27599,453.86,524.17
40.29594,450.56,523.83
40.31588,449.58,520.74
40.33584,452.57,522.64
40.35520,451.42,519.36
40.37431,455.05,519.34
40.39483,453.59,518.63
40.41563,453.53,520.01
40.43434,456.20,519.75
40.45451,458.99,518.45
40.47585,459.34,520.26
40.49430,460.59,516.26
40.51471,458.95,519.04
40.53513,459.67,518.68
40.55499,458.57,518.75
40.57439,458.89,518.92
40.59446,462.33,519.71
40.61510,460.03,523.96
40.63650,461.73,527.18
40.65596,458.98,522.30
40.67642,461.06,510.70
40.69545,461.83,496.35
40.71570,458.17,474.04
40.73586,461.25,457.29
40.75636,458.15,441.34
40.77646,456.31,428.28
40.79537,456.61,421.42
40.81648,454.20,413.67
40.83691,456.30,412.63
40.85653,456.59,414.76
40.87539,455.16,418.87
40.89678,457.90,424.72
40.91559,457.78,430.35
40.93599,458.85,438.86
40.95594,458.77,448.37
40.97826,457.45,455.53
40.99708,458.41,466.46
41.01864,458.47,473.98
41.03842,460.44,480.15
41.05741,458.86,484.15
41.07787,459.81,491.05
41.09930,461.92,496.15
41.12028,459.67,500.47
41.13992,462.83,501.25
41.16053,459.86,505.62
41.18028,458.07,508.71
41.20113,461.36,508.26
41.22112,459.55,511.42
41.24205,460.93,515.01
41.26288,459.93,514.83
41.28213,457.83,518.57
41.30283,459.68,521.96
41.32197,460.89,519.52
41.34268,458.25,521.14
41.36273,461.55,523.85
41.38231,463.15,524.95
41.40156,462.22,522.63
41.42398,462.76,525.15
41.44408,460.35,524.97
41.46423,459.33,526.13
41.48563,457.82,523.59
41.50466,460.46,525.79
41.52591,460.96,523.47
41.54557,457.74,522.49
41.56543,459.72,524.12
41.58571,459.85,523.56
41.60568,457.47,524.45
41.62566,457.43,525.47
41.64510,458.75,525.58
41.66700,457.04,525.04
41.68531,458.96,526.03
41.70626,458.34,523.58
41.72547,459.59,524.23
41.74587,457.86,523.41
41.76634,456.08,520.69
41.78864,458.33,523.34
41.80813,455.13,523.12
41.83088,455.01,520.41
41.85162,453.92,522.70
41.87095,457.59,546.84
41.89047,457.10,586.18
41.91110,460.73,639.52
41.93136,467.47,688.56
41.95251,469.80,721.50
41.97110,470.58,736.06
41.99127,474.26,738.17
42.01254,472.14,726.24
42.03214,472.74,709.45
42.05272,470.74,688.17
42.07282,470.95,661.77
42.09346,467.03,633.70
42.11308,464.53,610.23
42.13307,462.73,588.05
42.15293,460.82,566.35
42.17281,456.55,550.40
42.19241,453.70,534.16
42.21226,455.47,522.38
42.23213,454.23,516.41
42.25340,457.19,509.04
42.27310,458.21,506.00
42.29336,456.66,503.63
42.31343,454.46,503.61
42.33346,456.86,503.07
42.35312,454.32,504.33
42.37224,453.16,501.29
42.39374,456.11,498.57
42.41286,456.54,502.72
42.43171,454.89,502.57
42.45196,453.61,505.10
42.47247,456.22,506.28
42.49326,456.04,508.09
42.51339,457.55,510.44
42.53237,454.95,508.32
42.55207,454.30,509.76
42.57271,453.97,511.94
42.59304,456.38,515.64
42.61305,458.13,513.49
42.63205,459.25,514.73
42.65322,457.79,518.32
42.67340,457.67,518.85
42.69264,457.85,520.25
42.71248,456.05,520.81
42.73191,456.64,522.18
42.75367,457.81,522.73
42.77314,457.89,521.80
42.79356,455.23,519.08
42.81299,455.94,522.84
42.83258,456.12,520.31
42.85382,457.30,519.85
42.87229,459.18,521.64
42.89288,457.73,519.26
42.91271,460.29,522.38
42.93288,462.76,522.17
42.95312,460.29,523.13
42.97336,463.03,518.45
42.99338,458.95,507.73
43.01192,459.50,495.44
43.03196,456.20,483.98
43.05297,452.82,467.53
43.07338,449.63,456.45
43.09323,452.38,442.80
43.11351,449.14,436.40
43.13213,450.45,429.87
43.15324,449.81,425.46
43.17233,450.38,424.10
43.19276,450.26,426.70
43.21240,448.67,429.94
43.23242,449.16,436.03
43.25337,451.56,442.06
43.27358,451.98,450.38
43.29226,455.71,457.42
43.31325,455.71,467.02
43.33288,455.84,473.78
43.35312,459.96,481.37
43.37196,457.56,486.72
43.39308,459.08,490.94
43.41348,458.52,495.25
43.43320,458.26,499.96
43.45283,461.74,501.94
43.47321,463.21,504.71
43.49415,464.32,504.30
43.51308,464.78,506.07
43.53548,467.22,506.06
43.55504,463.50,508.69
43.57642,464.55,510.02
43.59508,463.08,512.87
43.61482,462.27,514.86
43.63547,462.94,518.04
43.65734,462.75,520.59
43.67658,463.33,517.99
43.69628,461.01,518.52
43.71671,462.70,521.04
43.73640,462.36,520.30
43.75786,461.47,520.23
43.77658,459.57,523.23
43.79701,462.33,524.42
43.81738,460.46,525.37
43.83779,462.43,523.80
43.85705,462.63,525.15
43.87882,463.38,523.74
43.89882,460.64,524.70
43.91784,462.25,524.73
43.93855,459.48,524.40
43.95751,457.61,524.83
43.97749,460.62,532.89
43.99808,458.99,554.16
44.01711,461.51,585.96
44.03820,459.19,611.25
44.05704,459.46,631.35
44.07870,458.41,653.93
44.09883,461.21,666.80
44.11750,461.92,669.91
44.13791,464.47,671.47
44.15757,465.81,661.93
44.17732,467.73,650.10
44.19760,467.63,631.28
44.21805,466.69,616.02
44.23845,466.13,601.24
44.26027,462.31,589.30
44.27972,459.14,577.39
44.30066,459.41,566.90
44.32097,460.24,560.95
44.34265,459.35,551.36
44.36386,456.75,545.58
44.38369,458.55,535.97
44.40332,460.72,532.77
44.42389,459.72,531.43
44.44469,457.34,524.71
44.46586,460.72,522.02
44.48467,460.64,520.16
44.50403,460.69,520.98
44.52519,456.67,520.64
44.54614,457.02,520.75
44.56660,458.08,515.62
44.58588,459.93,514.86
44.60671,458.79,515.24
44.62607,459.16,512.82
44.64692,456.15,514.09
44.66862,458.66,514.80
44.68799,458.22,518.51
44.70686,456.70,517.48
44.72804,458.28,518.26
44.74738,455.89,517.23
44.76856,457.64,519.42
44.78729,454.32,516.74
44.80860,458.14,516.02
44.82730,455.24,516.63
44.84763,457.46,519.39
44.86776,457.52,518.08
44.88814,454.65,518.28
44.90751,454.57,517.90
44.92890,453.48,517.10
44.94797,458.53,518.66
44.96842,458.60,519.68
44.98735,457.50,521.35
45.00875,456.59,519.76
45.02786,458.22,522.53
45.04869,458.03,520.70
45.06731,460.89,522.12
45.08853,457.97,522.75
45.10891,462.20,519.91
45.12954,461.01,512.19
45.14815,462.93,500.55
45.16988,461.64,482.91
45.18949,461.00,467.30
45.20944,460.25,454.08
45.22810,459.61,440.06
45.24859,455.94,426.62
45.26813,457.06,419.58
45.28925,452.59,414.48
45.30795,451.93,411.83
45.32904,450.00,416.56
45.34902,451.54,420.07
45.36995,453.80,424.78
45.39064,454.29,434.72
45.40930,452.80,442.61
45.42910,455.10,449.89
45.44953,453.11,460.70
45.46973,454.62,467.75
45.48972,451.86,476.56
45.51040,453.96,483.88
45.53054,453.50,488.58
45.55006,456.15,492.82
45.57006,456.52,498.98
45.59049,459.36,503.69
45.60875,461.41,507.31
45.62973,460.59,513.13
45.65122,459.42,516.35
45.67249,461.75,517.90
45.69200,460.94,518.82
45.71166,462.29,520.53
45.73142,459.35,520.61
45.75174,463.49,521.43
45.77190,461.57,524.55
45.79187,460.77,522.69
45.81154,462.68,525.59
45.83087,464.24,526.02
45.85115,461.38,525.15
45.87126,462.33,526.69
45.89160,463.59,528.94
45.91167,463.69,526.55
45.93313,458.69,528.09
45.95258,461.05,528.29
45.97297,460.09,528.24
45.99251,457.84,527.95
46.01253,460.03,526.61
46.03364,457.17,529.55
46.05323,458.02,529.68
46.07163,456.21,527.31
46.09231,454.42,527.74
46.11235,455.43,526.53
46.13252,455.87,528.94
46.15242,457.69,526.92
46.17357,458.33,526.77
46.19338,459.09,526.38
46.21411,456.18,525.28
46.23435,455.86,528.32
46.25492,460.56,547.82
46.27656,462.39,581.13
46.29576,464.45,616.56
46.31551,464.24,644.82
46.33597,465.79,666.17
46.35524,465.85,679.13
46.37551,466.74,685.92
46.39600,468.31,682.48
46.41530,468.46,671.67
46.43502,467.10,656.75
46.45532,462.60,641.62
46.47647,465.83,625.52
46.49666,462.61,611.07
46.51536,460.66,598.95
46.53508,457.64,589.68
46.55544,456.35,577.86
46.57540,458.07,567.31
46.59663,457.36,560.19
46.61806,456.42,551.04
46.63811,455.29,544.34
46.65817,456.50,539.93
46.67860,455.82,536.32
46.69966,454.80,533.36
46.71973,453.70,527.10
46.74142,455.46,527.90
46.76143,457.11,526.98
46.78051,455.77,527.84
46.80042,458.12,527.62
46.82114,455.57,525.97
46.84153,456.93,524.35
46.85977,457.81,523.88
46.88180,454.52,524.99
46.90012,454.65,525.95
46.92108,455.82,524.27
46.94053,456.75,526.77
46.96044,454.27,525.00
46.98088,456.79,523.05
47.00045,457.13,523.17
47.02000,458.63,524.52
47.03999,456.01,521.35
47.06108,457.42,522.69
47.08173,457.84,522.46
47.10123,459.98,522.18
47.12069,456.06,526.63
47.14098,454.22,525.62
47.16044,456.01,519.17
47.18037,453.97,499.18
47.19988,451.46,478.74
47.21982,450.78,457.54
47.24091,450.77,441.34
47.26167,449.55,427.78
47.27989,448.00,419.82
47.30135,446.44,412.13
47.32115,443.87,412.79
47.34006,442.48,413.01
47.36025,444.33,413.71
47.38022,447.17,421.52
47.40164,450.10,426.76
47.42016,449.33,436.87
47.44015,451.37,443.98
47.45995,451.84,450.77
47.48051,452.96,459.71
47.50068,455.48,469.05
47.52017,452.15,473.72
47.54045,454.60,482.11
47.56022,453.88,485.28
47.58015,455.32,489.75
47.60013,457.04,494.29
47.62035,456.27,499.62
47.63985,456.74,502.28
47.66067,455.66,503.93
47.67978,458.55,507.78
47.69992,456.46,509.93
47.72145,455.91,509.10
47.74018,456.45,510.72
47.76027,455.41,515.64
47.78090,456.07,515.17
47.79967,455.98,518.53
47.82102,456.99,518.55
47.84042,458.66,521.78
47.86071,455.89,520.30
47.88017,457.40,520.39
47.90151,457.07,523.33
47.92014,457.80,524.37
47.93962,457.16,523.47
47.95994,457.40,524.07
47.98153,456.53,523.74
47.99972,456.68,523.48
48.02018,455.39,524.83
48.04037,456.32,526.71
48.05999,454.19,527.01
48.08080,458.32,524.01
48.10079,457.70,525.65
48.12081,456.94,522.79
48.14008,454.75,524.71
48.16112,458.35,527.18
48.17986,456.33,527.26
48.20076,458.56,524.63
48.22020,456.50,526.73
48.24073,456.73,527.44
48.26182,456.81,527.15
48.28161,456.88,525.12
48.30142,456.81,525.69
48.32166,460.14,523.87
48.34197,458.48,524.52
48.36153,460.42,526.58
48.38210,456.61,527.72
48.40133,459.64,527.48
48.42256,455.28,526.86
48.44133,459.13,527.64
48.46175,458.69,525.21
48.48205,455.71,524.53
48.50195,458.10,542.80
48.52163,457.37,573.97
48.54228,461.54,604.53
48.56193,463.33,639.02
48.58220,466.03,656.23
48.60182,464.78,662.17
48.62231,463.65,659.97
48.64196,466.13,649.50
48.66212,465.09,636.17
48.68264,463.43,624.91
48.70344,463.63,607.40
48.72386,463.27,596.95
48.74213,463.25,586.38
48.76214,460.06,576.78
48.78313,462.40,568.66
48.80278,462.04,563.50
48.82236,463.02,558.49
48.84269,460.31,555.74
48.86345,461.33,553.37
48.88456,462.84,551.02
48.90400,462.73,550.95
48.92510,463.46,546.98
48.94400,461.27,547.45
48.96400,460.44,543.57
48.98566,460.56,541.43
49.00422,459.59,541.24
49.02557,457.09,543.37
49.04444,456.35,539.37
49.06545,460.26,538.76
49.13263,460.01,539.09
49.13269,458.24,535.18
49.13204,457.53,535.70
49.14544,456.09,536.81
49.16402,457.14,533.38
49.18364,456.82,532.92
49.20418,457.14,535.78
49.22393,458.10,534.45
49.24408,454.91,534.76
49.26455,456.84,535.34
49.28529,459.19,532.37
49.30483,459.60,533.96
49.32491,459.93,531.26
49.34481,460.39,532.52
49.36457,458.27,528.87
49.38430,457.33,532.09
49.40493,460.68,531.15
49.42408,458.23,530.85
49.44522,461.57,527.52
49.46486,461.58,530.18
49.48577,460.70,531.69
49.50748,457.87,528.40
49.52569,460.68,526.28
49.54589,458.67,527.22
49.56737,459.34,524.28
49.58590,456.41,525.27
49.60661,458.51,527.28
49.62644,459.05,526.34
49.64669,459.25,527.34
49.66661,458.50,526.77
49.68761,457.56,527.39
49.70753,455.45,527.03
49.72786,455.96,528.91
49.74789,457.04,527.79
49.76759,454.73,516.57
49.78765,454.43,501.32
49.81048,451.24,482.17
49.83039,449.00,464.45
49.84998,447.42,448.49
49.86889,447.66,437.80
49.88982,447.26,429.26
49.91018,450.75,425.47
49.92972,450.51,426.51
49.94969,451.66,425.62
49.96903,450.03,429.52
49.98978,452.26,436.28
50.00965,453.00,443.08
50.02862,455.59,451.55
50.04940,456.40,458.24
50.06991,456.11,465.19
50.09079,454.36,472.03
50.10998,457.95,478.28
50.12949,457.80,482.49
50.15006,457.66,487.31
50.16922,458.11,493.25
50.18950,458.48,498.70
50.20981,459.14,500.92
50.22956,460.80,503.93
50.24936,460.08,507.43
50.26952,456.47,511.73
50.28993,458.86,514.84
50.30987,456.64,515.54
50.33011,457.68,514.30
50.35000,456.40,516.43
50.36968,454.53,517.51
50.38968,456.42,517.79
50.41012,455.03,518.52
50.43012,455.21,521.45
50.45033,454.51,520.82
50.46960,456.08,523.29
50.49080,455.84,526.69
50.51029,454.72,527.77
50.53014,455.78,529.99
50.55025,456.75,531.63
50.57118,457.15,529.53
50.58981,454.91,531.68
50.61244,456.90,530.46
50.63311,457.14,527.55
50.65290,458.86,528.94
50.67236,459.66,527.51
50.69302,457.32,528.51
50.71200,457.37,527.02
50.73208,456.88,526.77
50.75292,458.84,526.98
50.77322,456.36,524.75
50.79403,458.11,523.53
50.81302,457.65,525.04
50.83485,456.81,527.42
50.85527,457.16,525.67
50.87637,456.77,523.87
50.89709,458.03,525.96
50.91874,460.27,530.85
50.93739,458.56,547.36
50.95722,460.11,573.10
50.97784,462.95,605.02
50.99815,463.40,629.24
51.01819,465.60,640.68
51.03849,462.61,636.12
51.05806,463.67,630.50
51.07693,462.84,618.63
51.09677,463.64,609.68
51.11683,461.33,597.41
51.13685,464.52,588.73
51.15776,464.42,595.71
51.17768,465.18,594.04
51.19660,469.95,594.73
51.21768,466.64,585.20
51.23817,468.48,580.40
51.25954,469.22,575.62
51.27892,468.46,569.93
51.29825,465.62,563.66
51.31848,466.32,555.09
51.33766,464.20,552.11
51.35786,463.68,551.06
51.37777,462.56,545.97
51.39851,465.48,546.29
51.42026,464.72,539.71
51.44103,465.52,540.32
51.46084,462.77,537.00
51.48152,461.34,537.31
51.50194,464.48,534.00
51.52136,461.50,532.06
51.54198,463.21,532.67
51.56171,461.26,529.15
51.58339,462.35,528.58
51.60182,461.75,526.79
51.62213,459.33,528.02
51.64151,460.01,526.74
51.66286,459.17,524.80
51.68203,462.27,525.89
51.70289,461.56,524.28
51.72251,460.74,523.97
51.74222,456.12,527.83
51.76359,455.23,530.19
51.78343,457.15,530.91
51.80387,456.83,530.39
51.82360,457.86,529.09
51.84552,460.06,530.81
51.86482,459.13,528.56
51.88577,458.30,526.31
51.90572,459.73,527.14
51.92509,457.22,524.53
51.94413,458.24,526.60
51.96478,458.48,523.83
51.98455,458.61,524.06
52.00383,455.16,521.92
52.02412,455.29,521.25
52.04531,454.06,521.64
52.06490,456.95,521.57
52.08561,456.07,520.23
52.10434,454.67,521.13
52.12432,454.07,520.41
52.14441,458.06,520.82
52.16501,458.76,511.71
52.18455,455.84,493.54
52.20400,455.80,481.28
52.22419,457.02,476.79
52.24389,455.00,475.64
52.26469,457.91,475.20
52.28487,456.54,476.03
52.30424,457.24,482.76
52.32467,459.82,487.92
52.34547,458.05,489.52
52.36433,457.53,492.77
52.38553,456.43,497.71
52.40631,456.28,499.63
52.42650,456.74,502.68
52.44768,455.84,505.66
52.46684,455.75,509.14
52.48833,456.73,509.17
52.50710,457.05,514.34
52.52724,459.41,512.38
52.54693,456.57,512.75
52.56683,456.38,515.86
52.58775,456.93,515.74
52.60916,455.82,518.82
52.62788,458.34,517.39
52.64948,459.14,518.17
52.66763,456.04,517.92
52.68844,457.70,516.79
52.70946,455.78,521.96
52.72828,460.34,524.02
52.74845,456.20,523.22
52.76825,460.03,524.58
52.78773,456.63,524.43
52.80821,456.80,525.07
52.82857,457.52,524.66
52.84784,455.20,527.91
52.86899,457.15,526.95
52.88823,457.73,528.11
52.90943,456.41,527.20
52.92882,455.30,531.60
52.94836,457.11,530.43
52.96950,457.72,540.70
52.98835,459.94,560.85
53.00888,459.79,577.37
53.02818,459.45,588.77
53.04757,460.55,586.25
53.06802,460.96,583.84
53.08851,458.83,579.01
53.10784,459.85,570.20
53.12950,459.82,567.57
53.14834,458.74,562.20
53.16938,458.82,555.23
53.18891,456.90,546.75
53.20955,459.32,542.00
53.22850,457.86,536.86
53.24813,455.42,535.89
53.26931,455.52,530.00
53.28959,454.31,527.95
53.30955,457.71,528.84
53.32846,454.66,526.77
53.34812,453.94,524.76
53.36775,452.37,522.45
53.38781,454.46,523.00
53.40935,451.15,523.08
53.42783,452.61,521.72
53.44950,453.67,523.31
53.46808,454.05,522.69
53.48901,458.39,512.78
53.50864,461.40,502.39
53.52798,465.73,495.30
53.54788,467.79,493.95
53.56864,467.14,493.94
53.58892,467.35,495.51
53.60889,464.75,498.34
53.62873,463.50,499.92
53.65026,462.41,502.15
53.66895,460.90,505.37
53.68978,463.43,508.28
53.70879,461.81,510.20
53.72887,463.67,513.26
53.74875,465.81,516.53
53.76909,461.62,518.95
53.79041,463.71,518.44
53.81060,461.88,522.55
53.82881,466.88,517.71
53.85057,473.47,514.62
53.86993,482.93,513.53
53.88897,485.85,512.09
53.91092,484.07,507.54
53.93120,478.79,493.74
53.95103,469.42,473.89
53.97217,464.74,453.62
53.99263,455.86,435.69
54.01301,448.58,425.42
54.03215,441.38,417.39
54.05250,437.66,413.17
54.07340,438.52,413.04
54.09334,436.66,417.36
54.11281,433.80,424.89
54.13331,434.16,436.72
54.15220,438.01,443.84
54.17175,436.86,454.51
54.19197,440.13,458.94
54.21225,439.45,470.68
54.23268,444.04,474.96
54.25356,443.02,485.26
54.27277,446.08,487.55
54.29182,444.60,495.50
54.31177,448.51,497.41
54.33314,449.94,504.26
54.35276,449.64,504.15
54.37330,453.12,510.70
54.39359,452.99,509.19
54.41398,450.66,515.04
54.43384,451.22,520.87
54.45381,451.86,527.76
54.47242,452.07,531.73
54.49463,451.85,532.13
54.51392,455.22,531.87
54.53379,454.16,534.09
54.55272,453.04,532.43
54.57416,455.82,535.51
54.59368,457.68,533.88
54.61294,458.38,536.87
54.63354,462.30,542.74
54.65301,463.95,546.55
54.67429,466.69,548.30
54.69425,467.10,544.66
54.71384,468.88,547.30
54.73301,466.12,544.68
54.75316,467.95,541.28
54.77254,466.33,540.61
54.79400,464.04,536.73
54.81388,462.12,535.83
54.83509,461.56,535.48
54.85519,460.94,534.73
54.87378,461.08,533.99
54.89505,460.63,534.02
54.91519,461.53,530.47
54.93356,459.19,531.12
54.95385,457.34,529.37
54.97461,460.17,527.77
54.99711,456.89,526.56
55.01666,457.26,526.00
55.03600,454.75,522.60
55.05767,454.70,523.15
55.07644,454.50,518.45
55.09697,450.81,528.44
55.11765,451.57,549.63
55.13839,449.16,579.48
55.15927,451.58,612.43
55.17925,453.10,640.66
55.19856,456.24,653.46
55.22010,459.67,654.03
55.23957,458.08,646.36
55.25936,456.34,634.58
55.27930,457.96,624.10
55.29974,458.69,611.67
55.31877,457.57,598.81
55.34076,459.07,587.63
55.35984,459.71,579.05
55.38136,460.13,571.27
55.40247,457.91,561.20
55.42058,456.48,556.37
55.44054,457.35,549.49
55.46295,458.64,544.50
55.48171,457.02,544.47
55.50193,458.48,542.53
55.52150,458.22,536.81
55.54210,456.23,536.76
55.56333,453.80,532.89
55.58331,455.79,533.45
55.60214,452.78,530.05
55.62245,453.33,530.19
55.64348,453.74,528.07
55.66172,455.39,526.46
55.68181,453.78,527.77
55.70193,453.13,526.49
55.72281,453.44,524.02
55.74273,453.90,527.07
55.76362,452.06,524.18
55.78323,453.32,521.71
55.80308,455.68,524.15
55.82389,456.63,526.32
55.84409,457.56,525.95
55.86457,457.02,524.57
55.88362,455.31,524.29
55.90548,456.09,526.64
55.92499,455.41,525.81
55.94591,455.57,523.11
55.96655,455.71,522.79
55.98612,457.23,522.20
56.00758,457.66,524.83
56.02774,456.74,524.87
56.04667,458.91,522.10
56.06936,459.76,525.01
56.08997,456.70,524.98
56.10954,456.32,521.23
56.13018,457.69,522.36
56.15087,457.84,525.48
56.17269,459.21,522.33
56.19349,458.28,524.23
56.21345,457.78,523.00
56.23180,461.58,521.10
56.25208,458.49,520.25
56.27183,458.23,521.18
56.29213,456.96,521.69
56.31295,457.94,521.20
56.33283,461.01,522.34
56.35329,458.15,523.95
56.37271,461.50,521.99
56.39230,457.70,522.08
56.41332,457.68,523.36
56.43242,459.10,523.66
56.45173,459.30,524.12
56.47333,458.28,519.28
56.49313,457.86,509.37
56.51171,454.25,496.00
56.53311,452.95,476.66
56.55283,446.07,458.96
56.57169,446.35,441.88
56.59216,445.91,431.95
56.61325,444.79,419.26
56.63317,446.85,413.98
56.65293,446.84,413.10
56.67340,450.48,413.33
56.69248,449.65,418.13
56.71305,452.81,428.20
56.73250,451.24,431.71
56.75263,452.58,440.99
56.77361,452.56,450.42
56.79410,455.36,456.61
56.81423,455.06,464.03
56.83500,457.95,471.43
56.85484,455.44,476.37
56.87454,459.75,485.47
56.89519,461.27,492.14
56.91425,461.49,497.70
56.93648,459.86,503.01
56.95554,463.05,504.92
56.97593,463.15,511.23
56.99579,464.73,513.07
57.01793,467.01,514.25
57.03684,464.72,513.38
57.05925,467.50,514.62
57.07873,467.63,517.61
57.09888,465.75,518.41
57.11888,463.54,519.02
57.13836,463.93,518.53
57.15836,460.86,518.91
57.17822,459.56,519.77
57.19838,460.40,519.35
57.21818,458.72,520.57
57.23907,458.12,520.93
57.25927,456.64,520.67
57.27792,456.43,523.61
57.29743,457.24,523.56
57.31892,457.38,523.00
57.33759,457.84,525.02
57.35795,455.52,524.30
57.38000,455.03,523.81
57.39867,454.64,521.18
57.41892,452.82,522.76
57.44031,453.62,520.98
57.46023,455.95,523.78
57.47868,455.76,521.21
57.49969,455.40,520.18
57.51861,453.08,521.96
57.53906,455.66,522.56
57.55899,453.95,521.77
57.57872,453.86,521.02
57.59980,454.49,522.84
57.61900,454.53,523.80
57.63924,455.51,522.10
57.65853,455.37,521.95
57.67959,455.45,523.62
57.70004,451.84,523.03
57.71920,454.15,519.10
57.73949,452.25,522.14
57.76004,451.88,518.34
57.77988,454.48,517.55
57.80003,450.79,515.62
57.81906,451.80,517.30
57.83899,453.91,515.66
57.85881,452.40,513.17
57.88005,453.57,514.13
57.89949,453.06,516.09
57.91950,452.79,516.44
57.93920,452.11,513.17
57.95877,452.27,522.56
57.97937,452.70,545.82
57.99930,457.06,578.70
58.02010,459.98,612.51
58.03852,460.64,638.00
58.05992,466.21,652.29
58.07997,465.38,654.80
58.09915,467.58,650.13
58.12038,465.52,638.37
58.14028,463.49,625.81
58.16033,465.01,613.88
58.17865,465.32,601.23
58.19917,466.12,592.19
58.22034,463.10,581.58
58.23999,465.48,573.52
58.25939,464.54,566.58
58.28012,463.01,559.53
58.29846,461.11,556.29
58.31912,461.50,548.56
58.33976,462.68,545.35
58.35985,460.38,541.48
58.37951,462.18,539.57
58.39963,458.38,536.13
58.41919,460.21,535.60
58.44051,459.02,523.40
58.45932,457.21,511.86
58.47975,459.68,504.47
58.50027,459.29,500.21
58.51855,457.92,497.54
58.54022,460.46,499.13
58.56018,458.89,500.34
58.57985,460.87,503.86
58.59876,461.25,506.27
58.61898,459.09,506.21
58.63951,459.11,510.29
58.65842,461.24,510.77
58.67852,460.45,514.71
58.69953,460.74,514.88
58.71989,460.61,518.98
58.73961,459.86,519.41
58.75860,460.80,521.86
58.78026,461.96,520.92
58.79842,460.35,522.20
58.81930,462.59,523.29
58.83970,462.10,525.05
58.85919,460.15,526.38
58.87994,461.64,526.05
58.89991,462.65,530.54
58.92027,461.26,545.38
58.93996,453.16,559.18
58.96007,442.89,575.67
58.98006,435.90,580.63
58.99957,437.10,575.84
59.01993,436.16,565.06
59.04004,436.33,553.91
59.06122,436.80,540.07
59.07997,439.14,530.80
59.10019,441.71,523.03
59.12094,443.67,515.78
59.14111,444.80,511.99
59.16099,446.39,509.20
59.18178,447.36,504.24
59.20189,449.15,503.64
59.22087,450.53,503.61
59.24199,452.56,506.16
59.26086,456.08,507.29
59.28055,459.62,508.64
59.30185,460.86,511.67
59.32073,459.90,511.15
59.34073,460.84,510.88
59.36089,462.32,515.53
59.38153,460.91,512.78
59.40255,463.67,515.91
59.42193,460.55,518.55
59.44208,463.10,522.74
59.46047,464.56,524.80
59.48085,465.18,525.98
59.50070,467.63,520.51
59.52199,474.42,513.37
59.54283,480.09,504.57
59.56218,481.64,503.15
59.58317,484.63,499.67
59.60289,483.32,502.37
59.62179,482.76,506.20
59.64266,481.07,508.60
59.66263,480.66,507.07
59.68323,479.07,509.73
59.70465,475.86,512.20
59.72593,476.75,508.71
59.74722,472.39,511.27
59.76749,472.66,513.53
59.78596,471.75,513.70
59.80603,469.38,513.39
59.82603,470.68,518.60
59.84726,467.32,516.23
59.86658,464.50,523.41
59.88688,466.43,525.54
59.90621,463.24,526.49
59.92677,463.77,527.56
59.94729,460.56,530.40
59.96624,458.66,531.80
59.98577,457.09,528.95
