Program Time [s],data 0,data 1
4.73933,485.63,549.89
4.76059,487.57,552.72
4.77975,488.49,556.60
4.79940,489.72,551.71
4.82041,491.07,553.54
4.84186,490.28,552.96
4.86182,488.26,553.98
4.88078,486.98,550.79
4.89975,485.67,551.84
4.92068,487.59,550.39
4.94087,486.43,548.65
4.96010,484.66,547.27
4.97986,484.30,548.62
5.00223,485.87,549.04
5.02223,483.65,547.97
5.04212,481.38,548.66
5.06246,481.05,549.16
5.08357,480.94,551.67
5.10270,478.36,549.85
5.12184,477.20,548.00
5.14264,480.37,547.19
5.16274,480.30,545.44
5.18373,478.16,545.58
5.20341,480.14,547.94
5.22282,481.45,545.36
5.24315,478.28,539.28
5.26406,476.86,535.90
5.28382,476.12,536.83
5.30399,477.05,534.01
5.32326,474.23,530.46
5.34459,474.93,532.18
5.36371,472.64,530.54
5.38441,473.28,535.82
5.40373,474.94,535.96
5.42488,472.74,538.29
5.44447,471.73,535.16
5.46361,468.57,539.52
5.48359,468.81,538.90
5.50320,471.02,541.90
5.52312,472.49,540.31
5.54329,473.58,540.51
5.56347,472.39,541.96
5.58439,472.89,538.73
5.60329,475.72,537.70
5.62320,476.87,540.71
5.64379,479.91,538.52
5.66403,478.66,537.32
5.68396,477.27,536.75
5.70339,476.60,536.09
5.72340,479.34,535.70
5.74323,479.80,536.37
5.76395,478.14,534.20
5.78310,476.23,535.78
5.80451,476.71,536.99
5.82412,474.89,539.13
5.84286,471.41,542.28
5.86288,474.63,543.20
5.88395,472.77,546.10
5.90323,474.41,544.70
5.92468,475.26,547.82
5.94363,473.99,550.91
5.96409,476.28,553.06
5.98444,476.15,553.41
6.00306,477.50,552.51
6.02342,477.78,549.90
6.04268,481.72,550.45
6.06283,480.96,549.66
6.08365,481.55,543.98
6.10314,481.74,541.30
6.12465,483.74,538.90
6.14366,483.76,540.62
6.16386,482.76,555.37
6.18381,478.08,569.13
6.20455,476.29,581.88
6.22334,472.43,585.36
6.24342,474.21,584.33
6.26349,472.13,578.44
6.28418,473.91,574.96
6.30296,471.81,572.38
6.32450,472.10,567.81
6.34428,471.02,563.44
6.36316,468.16,556.54
6.38363,471.83,555.73
6.40353,474.05,551.42
6.42455,475.76,549.93
6.44468,476.16,546.87
6.46298,476.76,542.62
6.48294,478.36,544.09
6.50403,477.30,543.20
6.52373,479.02,541.89
6.54457,476.93,539.83
6.56389,476.59,541.47
6.58367,475.65,543.69
6.60386,479.17,541.08
6.62321,477.78,541.08
6.64299,478.72,540.46
6.66356,479.91,541.70
6.68272,479.50,542.20
6.70431,481.84,538.98
6.72344,479.59,541.66
6.74325,479.15,539.41
6.76342,478.73,538.28
6.78369,480.97,536.88
6.80334,482.82,538.01
6.82483,482.38,536.11
6.84459,478.15,536.45
6.86423,479.35,533.03
6.88520,478.74,522.74
6.90461,480.11,504.54
6.92427,479.86,487.75
6.94493,475.29,468.15
6.96472,476.91,451.89
6.98495,475.24,440.10
7.00485,476.79,431.51
7.02534,474.04,427.63
7.04537,473.44,429.22
7.06397,472.57,432.34
7.08438,473.38,439.30
7.10478,474.45,449.55
7.12554,473.88,455.54
7.14375,474.07,464.95
7.16519,470.57,469.96
7.18404,475.21,477.55
7.20492,475.47,488.67
7.22407,477.33,492.95
7.24524,474.19,499.64
7.26594,477.72,507.86
7.28479,475.68,511.43
7.30458,476.94,519.19
7.32631,476.29,522.80
7.34506,476.52,524.80
7.36638,477.11,527.76
7.38595,478.79,528.94
7.40574,480.52,533.40
7.42613,482.10,533.59
7.44539,478.19,538.42
7.46562,476.79,537.62
7.48513,479.44,540.85
7.50537,478.08,543.09
7.52678,478.93,543.85
7.54563,480.70,544.70
7.56516,477.18,546.85
7.58508,477.70,543.61
7.60608,480.19,545.00
7.62590,479.28,544.95
7.64576,479.78,545.13
7.66601,480.72,540.41
7.68612,480.11,543.21
7.70585,478.34,540.37
7.72663,480.16,542.26
7.74636,477.98,552.96
7.76470,482.81,572.85
7.78547,484.66,610.11
7.80653,486.60,654.03
7.82596,489.60,686.65
7.84502,493.21,704.41
7.86669,489.03,705.18
7.88553,489.23,697.28
7.90640,485.65,682.87
7.92563,484.30,667.51
7.94609,481.35,648.10
7.96544,480.88,635.09
7.98482,479.95,621.00
8.00516,479.80,610.92
8.02520,481.43,599.02
8.04506,480.99,588.19
8.06582,478.70,583.91
8.08591,480.14,578.90
8.10669,479.39,570.90
8.12503,477.99,569.11
8.14494,477.84,565.65
8.16524,479.17,562.57
8.18568,476.47,560.86
8.20645,479.80,558.95
8.22773,479.34,559.06
8.24783,480.88,556.31
8.26730,479.41,556.07
8.28698,481.51,554.00
8.30639,484.78,554.72
8.32697,485.04,551.73
8.34756,480.92,556.02
8.36641,482.48,556.65
8.38640,482.67,554.90
8.40625,481.72,554.91
8.42633,483.88,554.00
8.44713,482.85,550.54
8.46624,481.68,551.84
8.48728,482.70,554.52
8.50726,482.54,552.63
8.52617,485.00,553.07
8.54663,482.90,553.57
8.56780,483.68,553.47
8.58678,484.89,553.82
8.60606,481.76,554.40
8.62617,481.95,552.46
8.64641,482.78,552.38
8.66740,483.30,553.41
8.68747,485.11,553.14
8.70734,484.81,552.86
8.72753,484.28,550.74
8.74593,480.72,550.27
8.76724,484.37,546.66
8.78590,483.40,546.18
8.80661,481.56,546.27
8.82691,482.71,548.65
8.84666,480.40,548.04
8.86607,483.00,540.33
8.88701,479.17,528.49
8.90600,480.50,511.99
8.92603,476.90,487.45
8.94611,475.24,465.83
8.96673,471.64,447.11
8.98722,467.58,436.65
9.00657,465.78,426.30
9.02674,469.11,423.69
9.04699,468.53,426.32
9.06652,467.84,430.67
9.08672,470.62,439.62
9.10597,470.11,446.58
9.12744,472.96,454.20
9.14764,475.73,463.90
9.16678,475.96,473.94
9.18570,475.86,482.93
9.20585,475.57,494.66
9.22580,477.63,501.87
9.24692,479.93,508.31
9.26579,480.89,512.77
9.28704,480.26,518.05
9.30616,479.50,525.62
9.32747,481.97,528.91
9.34743,480.69,533.61
9.36689,479.96,534.93
9.38675,481.99,538.74
9.40653,481.59,542.16
9.42701,483.34,541.68
9.44726,482.64,545.26
9.46761,480.13,545.08
9.48657,481.94,548.30
9.50715,481.21,547.41
9.52611,482.80,549.07
9.54565,482.32,548.01
9.56678,483.88,550.16
9.58592,480.82,549.08
9.60581,483.81,550.44
9.62768,485.96,554.06
9.64650,485.10,559.59
9.66744,488.58,562.39
9.68785,488.26,561.55
9.70866,485.04,561.19
9.72748,486.36,562.77
9.74810,487.58,561.05
9.76890,487.49,559.77
9.79048,489.16,569.01
9.80939,492.19,595.26
9.82978,492.40,625.37
9.84912,497.52,653.71
9.86949,498.06,680.45
9.88876,501.44,700.34
9.90886,500.77,706.51
9.92959,502.03,700.51
9.94908,501.57,685.77
9.97039,498.47,670.40
9.98932,495.96,654.50
10.00990,495.00,642.03
10.02971,495.57,627.97
10.05000,494.55,617.20
10.06955,492.73,609.19
10.09040,492.50,598.16
10.10876,490.57,592.11
10.12892,490.40,586.56
10.14946,489.76,583.02
10.16996,486.42,576.61
10.19037,487.64,572.76
10.21013,487.24,571.57
10.22927,486.32,566.00
10.24991,486.35,564.77
10.26941,487.31,564.31
10.28974,485.17,562.12
10.30893,484.73,561.26
10.33022,484.53,557.81
10.34942,484.34,558.35
10.36870,482.50,559.00
10.38955,483.36,557.86
10.40907,483.02,556.02
10.42986,484.30,554.16
10.44969,483.76,554.93
10.47033,483.12,555.81
10.49009,481.42,552.64
10.50910,478.81,554.27
10.52852,477.94,550.79
10.55061,478.29,554.54
10.57076,478.93,550.93
10.58927,477.90,550.97
10.60913,480.62,550.23
10.63080,477.89,553.31
10.64944,480.42,550.64
10.66966,479.49,549.79
10.69041,480.15,552.78
10.70901,483.52,549.29
10.72892,481.88,547.79
10.75015,482.02,550.14
10.76882,483.01,550.57
10.78918,482.43,554.76
10.81027,483.53,553.96
10.83000,483.55,547.97
10.85043,481.86,536.76
10.86958,479.87,523.45
10.88940,478.11,504.85
10.90931,476.13,489.38
10.93038,476.85,475.62
10.94886,473.98,463.73
10.96879,472.84,449.07
10.98919,471.76,444.21
11.01013,469.75,434.86
11.02990,468.93,432.10
11.04919,469.99,433.60
11.06983,470.98,436.48
11.08883,472.10,441.41
11.10941,474.98,448.55
11.12856,473.39,453.12
11.15041,476.86,460.87
11.16897,475.40,468.77
11.19021,475.01,479.52
11.20991,478.26,485.37
11.22886,479.40,495.75
11.24938,477.24,500.91
11.26902,478.43,509.85
11.29052,480.19,513.72
11.30993,478.90,519.03
11.33014,479.95,523.38
11.34926,480.85,525.94
11.36938,476.69,531.38
11.38993,479.91,533.50
11.41063,477.96,536.48
11.43043,477.49,535.70
11.44940,478.70,540.22
11.46929,478.47,541.90
11.48894,478.22,540.99
11.51056,481.06,543.67
11.52908,480.48,544.55
11.54969,480.59,546.24
11.56963,479.29,545.81
11.58964,480.23,546.11
11.61004,479.50,547.18
11.62912,484.07,548.13
11.64986,481.69,547.33
11.66963,483.28,545.72
11.69065,480.95,547.73
11.70931,480.93,548.73
11.72914,480.90,548.13
11.75048,481.94,546.78
11.76983,478.34,547.13
11.78890,479.32,549.08
11.81033,480.87,549.33
11.83050,482.16,548.31
11.84988,480.95,565.45
11.87000,483.14,592.44
11.88989,486.86,628.64
11.90885,488.98,663.68
11.93025,487.88,693.06
11.94926,486.96,716.53
11.96886,488.42,726.79
11.98916,486.65,724.31
12.01057,485.69,709.77
12.03106,484.64,691.71
12.05046,485.40,671.33
12.07051,482.55,651.82
12.09100,481.38,634.41
12.11195,478.60,621.98
12.13238,481.65,608.08
12.15259,477.72,597.53
12.17095,477.83,587.16
12.19204,480.57,581.31
12.21208,478.71,577.00
12.23151,478.39,569.21
12.25191,476.70,565.54
12.27205,478.10,562.78
12.29256,479.49,560.33
12.31154,479.15,556.54
12.33347,479.34,557.69
12.35221,477.50,554.43
12.37276,479.07,551.06
12.39199,479.07,550.69
12.41367,478.69,549.51
12.43436,483.14,547.21
12.45304,484.53,547.05
12.47326,482.08,544.71
12.49372,483.85,544.62
12.51340,482.24,543.46
12.53340,482.00,541.28
12.55304,482.50,541.56
12.57350,482.57,541.93
12.59431,481.93,542.98
12.61459,482.50,543.21
12.63338,480.34,543.09
12.65275,481.48,544.21
12.67344,481.76,544.64
12.69299,481.67,541.60
12.71341,481.35,543.75
12.73344,479.60,544.85
12.75397,479.38,540.65
12.77423,480.10,541.04
12.79548,480.36,544.43
12.81467,478.69,543.58
12.83409,478.73,542.29
12.85542,477.31,543.00
12.87381,478.47,540.04
12.89528,479.45,535.73
12.91543,477.28,534.36
12.93483,478.37,529.52
12.95541,478.92,532.54
12.97372,479.85,532.13
12.99396,478.45,534.64
13.01493,480.44,534.38
13.03510,479.01,534.79
13.05461,478.87,538.57
13.07567,481.84,540.86
13.09436,481.77,540.18
13.11489,481.95,538.36
13.13552,481.31,540.89
13.15538,484.11,535.69
13.17533,482.64,522.79
13.19433,480.75,513.34
13.21443,478.62,499.95
13.23463,477.08,484.82
13.25385,474.84,475.10
13.27383,474.37,463.67
13.29433,472.18,454.58
13.31489,470.01,450.40
13.33388,468.54,446.65
13.35442,469.39,445.23
13.37373,466.60,444.55
13.39446,466.43,448.68
13.41378,470.47,450.30
13.43374,469.76,454.47
13.45526,471.05,464.12
13.47426,473.10,468.89
13.49553,474.36,479.14
13.51502,479.28,482.23
13.53470,476.60,490.92
13.55406,477.70,499.04
13.57509,479.06,504.17
13.59488,476.58,509.43
13.61522,477.60,515.33
13.63490,478.33,519.38
13.65483,478.75,521.33
13.67552,478.29,525.42
13.69531,479.10,527.19
13.71452,478.72,528.62
13.73518,477.11,532.69
13.75370,478.07,530.45
13.77361,482.79,532.14
13.79548,481.57,535.39
13.81513,483.76,538.51
13.83619,485.11,537.61
13.85638,484.21,540.52
13.87577,485.32,541.00
13.89558,486.91,541.89
13.91553,484.46,541.63
13.93623,486.61,541.14
13.95561,483.90,544.43
13.97632,484.76,546.08
13.99572,481.31,545.32
14.01607,484.87,545.03
14.03658,481.96,547.04
14.05711,482.34,547.82
14.07682,481.75,549.87
14.09574,482.19,553.19
14.11735,484.61,554.11
14.13729,483.30,554.34
14.15703,483.95,554.40
14.17571,485.36,553.78
14.19662,485.68,549.93
14.21749,485.65,548.46
14.23599,485.45,549.84
14.25736,485.24,547.97
14.27745,483.24,546.11
14.29700,485.11,556.58
14.31620,488.96,580.47
14.33747,488.82,612.93
14.35833,490.25,646.47
14.37842,487.61,669.61
14.39748,488.09,687.65
14.41806,490.44,701.76
14.43694,489.36,707.16
14.45732,492.73,699.56
14.47772,491.05,685.00
14.49789,490.10,671.67
14.51692,489.91,654.55
14.53722,490.31,639.02
14.55705,486.61,624.91
14.57796,486.94,612.51
14.59697,483.07,604.81
14.61750,484.94,594.91
14.63754,482.14,587.81
14.65717,482.69,580.23
14.67711,484.23,576.78
14.69811,482.01,570.32
14.71749,485.82,567.77
14.73806,487.38,566.90
14.75743,487.96,563.69
14.77742,486.19,559.76
14.79769,488.16,559.13
14.81792,487.34,557.16
14.83738,488.70,555.46
14.85732,485.81,552.16
14.87693,488.57,552.03
14.89782,488.06,549.22
14.91924,487.85,548.00
14.93856,484.79,550.39
14.95930,485.24,551.34
14.97922,485.95,546.47
14.99779,483.24,547.85
15.01801,482.21,550.33
15.03958,482.38,549.00
15.05822,483.00,547.38
15.07799,484.55,550.81
15.09873,482.34,548.70
15.11893,484.42,548.24
15.13948,486.24,547.18
15.15872,485.58,546.34
15.17818,482.98,549.16
15.19855,482.70,549.46
15.21896,482.53,547.82
15.23874,484.24,549.16
15.25870,484.23,548.19
15.27929,480.60,542.53
15.29771,479.00,536.28
15.31953,472.10,524.28
15.33759,470.28,511.79
15.35903,464.62,499.64
15.37825,461.24,485.45
15.39786,459.49,475.25
15.41744,461.60,467.78
15.43802,460.40,459.45
15.45890,464.71,452.88
15.47770,469.08,448.49
15.49810,471.55,447.33
15.51882,474.80,444.66
15.53814,478.22,445.13
15.55949,480.06,446.17
15.57924,483.33,450.99
15.59750,483.69,455.33
15.61865,486.14,459.48
15.63872,488.26,465.76
15.65794,487.10,474.77
15.67896,486.81,482.00
15.69792,487.65,485.66
15.71814,489.49,492.22
15.73855,488.89,498.48
15.75954,488.67,504.58
15.77929,489.01,512.12
15.79885,488.01,517.48
15.81812,488.04,520.74
15.83805,486.52,524.31
15.85894,485.81,530.60
15.87927,486.07,535.74
15.89959,485.23,541.22
15.91789,483.56,544.08
15.93843,483.61,547.49
15.95934,486.05,547.22
15.97904,484.46,547.62
15.99944,483.93,547.29
16.01902,483.08,548.89
16.03887,481.67,550.52
16.05933,483.03,550.87
16.07839,485.71,546.83
16.09778,486.04,547.28
16.11916,484.51,549.86
16.13799,485.46,547.88
16.15934,485.97,550.66
16.17936,482.83,554.63
16.19916,484.28,553.91
16.21962,481.59,553.50
16.23869,481.65,554.76
16.25896,481.01,557.23
16.27827,482.22,557.47
16.29912,483.54,553.46
16.31911,482.11,554.49
16.33864,479.93,553.16
16.35890,481.26,553.41
16.37787,480.29,548.82
16.39784,479.42,548.99
16.41836,484.19,548.43
16.43805,482.53,544.74
16.45792,485.26,542.46
16.47923,482.18,543.79
16.49777,480.26,541.69
16.51772,481.86,541.50
16.53850,478.80,539.75
16.55923,481.79,540.68
16.57915,481.38,538.00
16.59893,479.72,540.20
16.61955,480.62,540.30
16.63789,481.22,542.05
16.65768,481.57,541.24
16.67886,481.90,541.89
16.69898,479.00,540.90
16.71799,482.68,544.97
16.73801,478.54,545.08
16.75869,480.39,541.28
16.77908,481.02,541.58
16.79866,481.97,550.88
16.81824,484.44,578.60
16.83810,486.61,615.33
16.85874,488.05,651.93
16.88048,488.91,679.45
16.89869,485.66,698.79
16.92025,488.31,699.71
16.94033,486.10,694.41
16.95927,486.40,682.35
16.98026,485.78,663.96
17.00001,484.56,651.25
17.01935,481.80,633.26
17.03989,481.40,624.13
17.05931,482.74,610.73
17.07945,483.13,599.43
17.10037,479.02,592.70
17.11886,480.31,584.86
17.13972,479.20,576.17
17.15872,477.07,569.27
17.17893,481.89,563.29
17.19932,482.16,559.83
17.22023,482.32,557.90
17.23876,483.04,554.49
17.25896,482.53,552.52
17.27914,479.58,547.85
17.29936,481.28,545.46
17.31874,481.13,547.88
17.33914,481.45,542.86
17.36045,476.86,542.49
17.38056,479.89,543.54
17.40078,480.42,539.94
17.42089,478.67,542.54
17.44067,477.70,539.25
17.46222,478.95,537.28
17.48107,477.97,540.38
17.50060,479.30,536.73
17.52169,476.36,536.33
17.54170,480.17,540.61
17.56142,480.37,542.03
17.58143,476.95,545.69
17.60115,476.72,544.79
17.62202,477.29,538.25
17.64184,477.71,529.70
17.66143,479.27,513.19
17.68235,479.64,500.90
17.70235,475.34,486.76
17.72044,478.09,477.45
17.74141,476.02,466.54
17.76243,475.22,455.85
17.78095,472.88,449.59
17.80189,471.84,443.53
17.82117,474.25,438.50
17.84061,475.93,438.04
17.86075,476.19,440.61
17.88093,476.31,440.62
17.90059,475.73,446.18
17.92096,473.53,453.30
17.94293,473.68,458.87
17.96304,473.74,466.55
17.98205,475.88,471.76
18.00287,475.32,481.59
18.02331,475.11,487.50
18.04279,475.53,491.32
18.06302,475.68,496.84
18.08298,474.59,505.92
18.10189,474.35,508.97
18.12209,474.59,512.49
18.14287,477.42,515.96
18.16302,478.04,521.94
18.18274,475.49,524.04
18.20242,475.89,524.86
18.22153,473.93,527.37
18.24306,477.79,530.16
18.26279,475.51,533.87
18.28311,476.87,533.38
18.30312,476.59,534.79
18.32210,478.07,534.19
18.34174,477.55,536.33
18.36319,477.41,538.63
18.38234,477.04,537.70
18.40182,476.73,538.15
18.42298,476.50,537.73
18.44327,477.63,540.10
18.46301,477.15,538.86
18.48290,476.15,541.69
18.50316,476.13,537.85
18.52232,477.28,541.71
18.54304,479.58,539.94
18.56174,480.70,539.22
18.58226,478.39,540.05
18.60271,480.52,539.16
18.62253,477.93,547.48
18.64199,478.74,566.75
18.66345,482.37,598.06
18.68164,485.77,632.74
18.70349,484.48,661.98
18.72349,486.75,688.48
18.74230,489.17,700.52
18.76152,486.56,710.32
18.78196,485.39,712.62
18.80306,485.65,704.27
18.82352,486.60,690.18
18.84256,487.11,674.87
18.86254,486.18,655.68
18.88267,486.43,638.70
18.90337,482.17,623.12
18.92177,483.11,612.23
18.94227,483.10,599.98
18.96154,482.53,590.93
18.98216,481.74,581.74
19.00259,479.23,574.20
19.02271,478.49,567.82
19.04275,480.21,559.50
19.06221,481.04,553.69
19.08317,477.62,547.70
19.10218,478.36,543.80
19.12144,480.84,537.83
19.14339,478.61,534.04
19.16312,476.83,528.43
19.18312,479.19,529.88
19.20291,477.78,526.77
19.22288,480.56,528.78
19.24216,478.94,528.72
19.26196,481.83,525.63
19.28225,479.55,527.18
19.30319,479.77,531.16
19.32279,480.26,530.96
19.34260,481.27,533.60
19.36152,481.70,535.69
19.38177,479.10,536.73
19.40169,477.56,535.23
19.42216,479.98,535.17
19.44182,478.68,535.88
19.46329,479.66,535.95
19.48232,481.13,539.82
19.50190,479.85,537.42
19.52192,479.11,537.69
19.54164,479.53,539.25
19.56217,476.57,540.03
19.58207,480.16,536.73
19.60211,483.67,523.09
19.62207,481.21,512.19
19.64239,483.88,499.76
19.66265,483.12,486.46
19.68270,487.67,472.44
19.70289,486.46,461.56
19.72204,488.67,452.94
19.74302,488.14,445.59
19.76296,486.62,442.26
19.78190,483.16,438.70
19.80241,483.15,437.82
19.82261,483.00,439.01
19.84232,481.27,438.65
19.86327,478.49,443.17
19.88292,475.70,447.58
19.90239,473.84,450.95
19.92266,473.96,457.33
19.94188,473.97,463.34
19.96237,473.93,472.15
19.98269,475.46,476.82
20.00296,473.70,484.45
20.02248,471.47,492.17
20.04267,475.85,499.62
20.06295,473.53,502.89
20.08280,477.95,512.24
20.10199,477.14,516.84
20.12267,479.78,522.95
20.14290,477.62,526.78
20.16199,478.69,527.11
20.18299,480.20,532.05
20.20150,480.31,536.75
20.22394,478.95,539.68
20.24326,479.25,545.18
20.26310,480.39,547.75
20.28381,481.80,546.51
20.30272,478.64,550.31
20.32348,479.88,550.08
20.34506,479.52,548.72
20.36527,481.52,547.76
20.38470,480.13,549.70
20.40450,482.51,547.36
20.42534,480.25,549.81
20.44403,483.12,548.21
20.46381,482.31,547.73
20.48425,485.16,550.37
20.50371,487.71,546.55
20.52423,482.53,548.92
20.54407,483.08,546.32
20.56423,482.77,546.80
20.58447,482.75,546.96
20.60456,482.67,548.84
20.62523,484.98,548.66
20.64399,483.29,561.94
20.66376,483.20,596.86
20.68420,485.65,640.79
20.70371,488.23,685.66
20.72387,491.41,717.27
20.74430,492.73,730.08
20.76526,490.64,733.87
20.78496,492.49,726.80
20.80470,488.76,713.34
20.82531,487.64,696.03
20.84412,486.51,675.41
20.86374,486.59,657.06
20.88446,483.61,639.86
20.90394,480.89,623.78
20.92423,483.28,607.93
20.94422,482.40,596.11
20.96450,482.83,587.32
20.98429,483.76,579.68
21.00516,484.24,575.91
21.02449,483.49,571.08
21.04498,481.12,566.39
21.06431,482.49,562.68
21.08548,483.01,556.78
21.10355,483.92,551.97
21.12456,486.31,550.11
21.14499,486.07,549.93
21.16464,487.78,549.65
21.18512,485.75,550.05
21.20425,484.13,549.31
21.22432,483.61,548.98
21.24355,484.57,551.18
21.26542,483.44,548.64
21.28549,484.66,550.14
21.30401,485.48,549.78
21.32390,486.25,552.07
21.34437,482.96,551.89
21.36360,487.14,550.41
21.38516,486.88,548.25
21.40503,484.52,551.17
21.42428,482.31,552.21
21.44493,483.88,553.46
21.46411,482.56,549.46
21.48353,482.54,548.68
21.50532,480.34,549.01
21.52423,483.75,548.67
21.54372,482.05,545.56
21.56500,480.31,547.65
21.58368,482.44,547.38
21.60403,483.43,547.30
21.62494,480.74,550.98
21.64471,479.54,548.36
21.66460,482.15,541.80
21.68484,480.56,528.33
21.70466,480.66,510.88
21.72486,480.03,495.73
21.74474,481.56,479.78
21.76464,479.05,468.43
21.78372,479.15,456.65
21.80502,477.75,448.24
21.82487,475.26,440.62
21.84375,472.57,439.69
21.86381,474.55,437.87
21.88537,474.50,441.41
21.90381,474.07,442.68
21.92457,475.70,445.72
21.94487,475.98,453.05
21.96462,475.04,460.36
21.98514,476.60,468.48
22.00465,480.44,476.16
22.02503,480.18,484.57
22.04481,479.10,489.54
22.06507,481.94,495.42
22.08477,481.16,501.15
22.10531,482.61,506.78
22.12366,483.06,510.80
22.14458,482.90,516.92
22.16370,481.40,522.84
22.18437,483.83,525.89
22.20395,482.09,529.66
22.22413,483.40,530.95
22.24416,482.03,533.06
22.26346,485.16,535.90
22.28461,484.48,534.06
22.30435,481.06,538.93
22.32514,483.24,537.22
22.34382,481.85,538.72
22.36380,483.95,543.22
22.38505,483.73,541.42
22.40338,482.79,544.14
22.42465,482.74,542.75
22.44500,481.07,546.25
22.46346,482.88,548.49
22.48379,481.54,551.17
22.50500,479.45,550.29
22.52357,482.42,551.42
22.54470,478.68,550.76
22.56358,481.61,548.27
22.58510,481.06,551.55
22.60380,480.08,549.68
22.62467,480.76,548.77
22.64524,480.64,549.64
22.66364,479.28,546.42
22.68489,478.04,545.55
22.70351,479.58,565.71
22.72404,479.17,596.66
22.74422,478.25,632.87
22.76459,479.62,664.65
22.78374,482.57,686.41
22.80493,484.49,706.12
22.82361,483.68,712.02
22.84498,486.26,708.46
22.86394,482.64,693.12
22.88341,483.41,678.79
22.90348,485.77,663.32
22.92393,484.80,647.44
22.94405,484.66,633.11
22.96471,483.86,618.59
22.98513,479.30,605.30
23.00632,478.49,595.71
23.02500,477.89,588.11
23.04449,479.55,579.34
23.06467,481.45,573.15
23.08618,477.95,568.27
23.10457,482.54,566.29
23.12623,481.28,560.15
23.14558,479.30,559.71
23.16646,479.90,555.03
23.18702,478.80,552.40
23.20641,479.13,551.44
23.22587,478.61,548.77
23.24762,477.02,550.14
23.26809,479.59,544.36
23.28810,477.58,545.83
23.30728,478.97,544.00
23.32768,477.09,542.47
23.34682,477.71,544.28
23.36784,478.46,543.05
23.38750,477.79,539.23
23.40703,476.69,540.64
23.42790,476.70,543.29
23.44820,475.06,542.25
23.46673,477.70,543.03
23.48781,476.87,544.58
23.50819,478.30,540.14
23.52701,478.12,541.91
23.54643,475.16,541.71
23.56729,474.44,541.69
23.58755,474.70,539.54
23.60781,476.95,541.73
23.62743,476.79,542.24
23.64651,477.19,540.34
23.66754,474.29,532.72
23.68675,474.46,524.30
23.70685,471.60,509.53
23.72795,469.03,498.56
23.74760,469.34,479.87
23.76833,467.51,466.09
23.78715,469.33,454.25
23.80762,466.85,443.24
23.82690,466.98,435.84
23.84830,470.97,431.70
23.86694,471.25,430.57
23.88696,472.45,430.34
23.90688,474.38,434.67
23.92671,479.13,438.67
23.94643,479.14,447.33
23.96768,479.91,452.99
23.98794,478.52,463.02
24.00798,478.22,472.47
24.02709,476.35,481.06
24.04732,479.75,487.50
24.06801,480.43,494.97
24.08751,477.34,502.26
24.10656,476.01,507.12
24.12759,479.80,511.91
24.14686,480.70,515.19
24.16680,480.30,521.97
24.18825,481.83,522.74
24.20637,482.50,527.00
24.22748,479.84,530.07
24.24732,483.56,530.15
24.26820,481.75,534.10
24.28692,482.77,535.16
24.30834,482.04,533.84
24.32754,481.40,536.89
24.34802,481.10,538.41
24.36798,479.24,540.72
24.38756,478.74,539.51
24.40658,477.63,540.24
24.42798,475.86,539.02
24.44680,476.75,538.80
24.46789,479.75,538.73
24.48761,476.78,537.99
24.50752,475.35,540.51
24.52727,477.13,542.11
24.54677,478.68,540.61
24.56672,477.97,540.47
24.58695,478.90,542.08
24.60805,476.86,543.40
24.62689,476.66,539.76
24.64658,478.29,542.48
24.66692,478.28,542.00
24.68824,476.76,542.81
24.70770,480.72,544.53
24.72802,481.07,560.67
24.74792,485.40,591.93
24.76757,485.27,635.93
24.78840,485.29,671.63
24.80862,489.80,698.80
24.82758,487.73,713.14
24.84776,488.88,715.64
24.86862,488.16,702.62
24.88762,488.06,684.69
24.90817,486.69,670.14
24.92845,486.85,651.25
24.94780,485.64,636.94
24.96911,482.57,620.93
24.98809,482.21,610.48
25.00872,481.53,601.19
25.02924,483.74,590.47
25.04873,483.01,582.24
25.06929,480.44,576.39
25.08817,482.78,570.61
25.10897,482.30,564.05
25.12928,479.55,561.08
25.14818,481.15,559.09
25.16840,476.68,552.74
25.18723,478.96,550.09
25.20840,479.49,548.00
25.22742,478.19,548.19
25.24902,476.17,548.59
25.26918,479.25,548.26
25.28860,478.25,544.30
25.30921,477.75,546.88
25.32760,479.93,547.00
25.34770,478.82,543.87
25.36879,480.15,545.91
25.38779,477.40,544.23
25.40937,478.90,543.41
25.42895,477.74,542.26
25.45013,483.03,544.19
25.46855,483.82,545.14
25.48956,480.64,542.68
25.50873,483.00,544.64
25.52831,482.03,546.10
25.54830,480.06,544.82
25.56871,479.58,544.51
25.58872,479.55,546.84
25.61000,481.54,544.84
25.62899,480.93,547.29
25.64949,481.70,545.78
25.66856,480.00,542.85
25.69032,481.44,546.21
25.71006,481.84,546.13
25.72983,482.21,544.88
25.75008,480.58,548.40
25.76999,480.47,545.48
25.78871,478.12,540.08
25.80904,477.99,529.65
25.83026,476.50,515.75
25.84874,471.14,499.08
25.86869,468.15,488.39
25.88864,469.15,476.83
25.91029,470.22,466.79
25.92894,469.40,457.41
25.94880,469.67,452.00
25.96910,469.23,448.46
25.98995,472.80,443.07
26.00909,474.42,443.99
26.02979,476.58,444.48
26.04831,479.39,451.16
26.06948,481.58,454.09
26.08894,479.91,460.24
26.10876,481.45,465.36
26.12941,485.70,472.39
26.14891,483.38,479.54
26.16926,483.14,488.71
26.18871,484.80,493.79
26.20967,484.97,501.63
26.22933,483.37,504.19
26.24946,482.53,511.76
26.26984,484.62,516.22
26.28956,488.31,519.31
26.30865,485.47,523.13
26.32848,487.06,526.47
26.34947,487.54,529.72
26.36982,487.42,531.19
26.38830,487.06,533.91
26.41006,486.64,535.50
26.42843,487.00,535.75
26.44864,486.76,539.56
26.46871,486.60,539.85
26.48970,485.38,539.64
26.50893,485.91,542.19
26.52993,481.63,543.34
26.55013,483.33,541.95
26.56890,479.68,544.70
26.58897,481.76,545.22
26.60976,479.26,542.55
26.63027,479.49,544.03
26.64971,478.02,544.65
26.66907,481.38,543.14
26.68976,481.99,542.73
26.70894,481.61,544.77
26.72935,481.56,543.12
26.75016,482.95,545.38
26.76939,482.74,545.08
26.78938,480.75,542.77
26.80981,480.43,557.25
26.82831,483.55,589.83
26.84929,486.12,629.07
26.87014,487.82,660.12
26.88954,491.53,684.71
26.91015,491.15,700.08
26.92975,491.81,703.75
26.95001,491.56,696.72
26.96879,492.24,684.34
26.98838,493.48,669.98
27.00999,491.22,655.89
27.02910,490.43,636.36
27.04861,490.14,624.48
27.06916,489.10,610.21
27.08891,485.73,601.43
27.10989,486.17,594.56
27.12877,483.25,585.61
27.15006,484.89,579.63
27.16991,482.66,571.38
27.18907,483.83,566.41
27.20925,480.28,563.14
27.22973,481.18,558.84
27.24854,483.86,554.59
27.26936,484.01,554.76
27.29001,482.86,550.58
27.30912,480.80,550.61
27.32869,479.37,553.90
27.34971,479.16,562.04
27.36951,479.88,567.21
27.38855,479.92,570.05
27.40934,480.34,568.27
27.42876,481.06,566.97
27.44859,478.69,566.50
27.46988,480.39,564.63
27.48870,480.67,560.28
27.51024,480.74,557.43
27.52912,479.28,558.96
27.54936,479.11,557.77
27.56945,480.67,554.47
27.58926,482.08,550.94
27.60842,481.18,551.89
27.62887,480.53,553.69
27.64811,481.30,548.44
27.66966,479.23,549.20
27.69006,481.51,546.58
27.70940,481.61,546.34
27.73030,478.52,543.49
27.75002,481.25,545.65
27.76866,478.77,553.61
27.79032,480.02,556.98
27.80911,481.55,564.24
27.82866,482.72,564.41
27.84844,486.75,564.50
27.86875,485.78,554.24
27.88886,484.57,547.67
27.90875,482.62,535.34
27.93003,480.35,524.85
27.94915,480.05,505.27
27.96831,478.23,491.98
27.98955,477.79,474.44
28.00899,475.66,460.82
28.02853,475.88,451.96
28.04889,478.76,442.95
28.06981,476.47,436.42
28.08888,476.45,437.55
28.11010,479.16,438.08
28.13017,475.70,442.12
28.15023,477.50,446.28
28.16984,476.29,453.13
28.18880,479.02,463.67
28.21028,478.27,470.74
28.23063,478.29,478.57
28.24978,477.22,482.87
28.26932,478.34,489.57
28.29064,482.26,498.93
28.31050,480.77,502.07
28.32981,480.85,508.62
28.34977,484.47,511.22
28.37027,481.89,516.91
28.39058,484.44,522.93
28.41074,484.12,526.16
28.43032,481.90,527.27
28.45086,482.22,530.73
28.46957,483.61,534.17
28.48967,481.74,537.23
28.50999,481.37,538.46
28.52969,479.61,538.70
28.54937,481.28,542.90
28.57048,480.80,544.88
28.58980,482.82,544.21
28.61113,482.02,545.71
28.62935,484.57,548.76
28.65033,482.09,547.79
28.67033,483.20,546.55
28.68957,483.55,546.33
28.71105,484.45,546.53
28.73004,481.59,548.29
28.75120,483.24,548.22
28.77096,481.37,545.73
28.79094,480.44,545.13
28.81000,481.72,561.63
28.82939,481.95,591.85
28.85017,482.48,623.25
28.87061,485.08,661.21
28.88952,483.83,686.30
28.90967,485.37,704.72
28.93051,485.48,707.25
28.95072,485.00,703.98
28.97075,485.46,694.24
28.98919,486.63,680.42
29.01049,486.42,662.74
29.02962,485.31,646.97
29.05118,482.64,634.39
29.07114,484.88,621.83
29.09059,485.44,608.60
29.10933,483.71,599.86
29.13119,484.16,591.54
29.15019,485.57,583.12
29.16993,484.56,575.92
29.19074,482.72,572.61
29.20977,483.20,566.47
29.23067,483.02,564.59
29.25036,481.60,558.64
29.26940,480.63,558.29
29.28973,481.57,552.90
29.30952,482.80,547.50
29.33066,483.07,548.52
29.35082,486.10,544.89
29.36978,484.46,543.63
29.38942,487.80,542.19
29.41072,486.27,543.63
29.42938,485.93,541.49
29.44996,485.43,540.78
29.46935,484.79,540.60
29.49027,487.83,543.50
29.51068,486.30,542.25
29.53094,483.41,541.63
29.54962,484.04,543.08
29.57055,482.82,545.05
29.59094,483.42,543.77
29.61112,482.47,543.10
29.63115,482.93,545.06
29.64972,480.80,543.64
29.66955,482.67,544.85
29.69102,483.02,543.72
29.70950,484.11,546.49
29.73004,484.58,543.46
29.74991,482.31,542.35
29.77123,480.85,545.40
29.79060,482.67,543.23
29.80994,481.45,547.27
29.83002,480.37,543.28
29.84952,482.75,533.70
29.87089,483.63,518.45
29.89129,483.69,500.20
29.91058,483.24,487.19
29.92989,483.13,475.31
29.94946,482.15,462.44
29.96951,481.68,452.82
29.99028,479.83,448.30
30.01053,480.02,446.01
30.03019,479.31,443.70
30.05108,475.62,443.95
30.07090,475.67,451.22
30.08965,475.01,456.94
30.11100,476.31,463.34
30.13056,477.16,472.34
30.15093,477.96,477.97
30.17021,476.96,482.54
30.19124,476.06,486.12
30.21035,478.85,489.46
30.22922,480.36,493.53
30.25054,480.76,496.71
30.27082,479.54,502.58
30.29012,480.49,504.08
30.30989,477.90,507.48
30.33050,481.48,512.61
30.35077,478.14,515.61
30.37073,479.61,519.70
30.38902,480.51,524.39
30.40993,479.12,524.89
30.43063,479.72,525.80
30.45022,480.55,528.68
30.46982,481.24,532.03
30.48980,477.84,533.86
30.51008,479.30,535.48
30.53010,480.98,535.83
30.55076,481.05,537.14
30.56933,479.81,536.08
30.59033,481.03,536.31
30.60970,478.72,539.45
30.62949,480.08,538.19
30.64927,479.81,538.99
30.67025,479.83,542.00
30.69004,477.32,539.75
30.71043,477.96,541.05
30.72912,479.31,540.78
30.74955,479.83,552.43
30.77078,480.58,578.60
30.79090,475.68,616.57
30.80907,475.85,654.75
30.82934,472.40,690.47
30.85015,474.33,714.91
30.87080,479.17,724.15
30.88930,481.54,728.82
30.91087,481.61,721.99
30.92924,483.36,710.49
30.94949,484.94,689.96
30.97046,482.26,669.77
30.98943,481.55,654.42
31.01063,479.99,638.10
31.02949,484.01,624.13
31.04962,486.24,606.57
31.06945,486.97,594.89
31.08970,485.11,582.13
31.11103,485.66,574.82
31.12965,484.44,566.33
31.14948,483.23,561.02
31.17012,484.39,556.95
31.18962,485.09,554.69
31.21031,485.30,551.75
31.23080,485.22,548.65
31.25070,482.41,544.57
31.27054,485.15,545.48
31.29079,480.24,545.94
31.31029,482.63,540.98
31.33037,480.81,536.95
31.35041,483.17,537.92
31.37123,483.52,537.68
31.39079,482.47,538.73
31.41031,481.44,538.02
31.42918,480.81,537.51
31.45022,479.53,535.53
31.46993,480.04,539.73
31.49125,477.82,537.38
31.50947,476.44,537.68
31.52989,480.72,539.37
31.54993,479.34,541.34
31.57099,478.91,540.55
31.59102,480.15,538.16
31.60991,477.21,540.65
31.62943,477.40,539.71
31.64945,476.41,542.44
31.66954,476.23,543.77
31.69045,475.94,540.16
31.70984,473.34,530.07
31.73109,473.81,513.82
31.75065,468.17,501.43
31.77075,468.29,487.98
31.78932,468.46,476.68
31.81112,466.78,463.68
31.82937,467.29,451.70
31.85009,466.49,442.79
31.87082,470.15,437.94
31.89078,472.29,434.82
31.90939,473.48,430.87
31.92999,473.45,433.32
31.94995,472.91,438.03
31.97078,476.22,443.80
31.98990,475.53,452.62
32.00963,476.54,459.08
32.02939,478.50,471.11
32.04929,481.04,478.61
32.07061,479.22,489.85
32.08954,483.65,495.91
32.11013,481.33,503.60
32.13002,484.36,508.99
32.15044,484.64,512.74
32.17048,483.13,517.93
32.19021,481.43,519.30
32.20976,483.22,521.91
32.23104,484.53,524.21
32.24919,482.91,526.26
32.26971,480.77,527.37
32.29105,480.84,529.13
32.30948,480.95,530.71
32.33129,481.77,528.26
32.35060,481.04,529.71
32.37016,480.22,532.91
32.39072,480.55,530.90
32.40921,481.56,533.68
32.43105,479.06,534.75
32.45031,478.79,534.71
32.46989,477.88,535.30
32.49076,479.09,537.55
32.51035,478.68,537.83
32.53091,478.29,538.70
32.54942,480.99,538.86
32.57040,479.27,540.78
32.58939,480.98,540.00
32.61061,478.23,537.91
32.62957,479.35,538.39
32.65085,481.27,539.23
32.67023,476.63,540.61
32.69014,477.49,540.11
32.71106,481.52,538.91
32.72970,477.95,536.55
32.74963,479.36,544.41
32.77010,477.53,572.42
32.79055,477.79,606.08
32.80961,479.19,646.17
32.83062,481.62,680.79
32.84970,485.30,704.08
32.87038,486.34,717.06
32.89084,488.76,716.22
32.91038,487.61,703.67
32.92957,488.94,685.49
32.95009,489.40,664.56
32.97048,486.13,647.58
32.99125,487.32,632.25
33.01240,487.88,618.01
33.03371,485.82,605.86
33.05381,485.19,595.01
33.07342,483.08,587.27
33.09272,481.29,580.99
33.11342,480.55,572.69
33.13395,480.99,570.87
33.15339,480.87,563.95
33.17411,481.36,558.46
33.19286,483.08,557.07
33.21297,483.47,553.82
33.23420,480.90,549.26
33.25416,481.93,547.27
33.27252,480.50,544.05
33.29281,480.03,545.51
33.31313,480.11,545.62
33.33399,479.71,544.50
33.35256,477.50,544.74
33.37276,479.38,545.23
33.39353,481.40,544.85
33.41393,479.06,542.81
33.43236,479.60,545.96
33.45296,480.48,543.62
33.47301,483.33,543.34
33.49390,480.35,545.93
33.51258,484.14,545.54
33.53384,482.34,548.03
33.55347,480.56,546.61
33.57451,480.42,547.19
33.59376,478.63,546.59
33.61439,479.23,546.01
33.63387,478.18,543.88
33.65413,477.03,547.86
33.67459,478.66,545.17
33.69325,481.69,547.22
33.71326,482.79,548.02
33.73334,479.55,545.79
33.75457,480.04,545.19
33.77379,480.95,544.30
33.79363,479.63,544.59
33.81488,480.57,547.34
33.83405,482.80,547.17
33.85492,479.78,548.96
33.87409,482.83,546.88
33.89509,482.66,548.39
33.91415,480.49,549.88
33.93376,481.26,553.95
33.95313,483.16,550.86
33.97353,481.52,541.97
33.99502,481.38,526.87
34.01482,481.73,506.25
34.03338,480.27,491.89
34.05497,477.56,476.45
34.07352,476.29,463.14
34.09477,476.97,452.73
34.11492,474.17,443.41
34.13461,474.58,438.19
34.15466,475.56,437.71
34.17554,477.41,437.92
34.19624,478.29,441.92
34.21702,474.84,443.80
34.23609,478.78,450.90
34.25613,478.00,457.97
34.27707,479.95,467.25
34.29717,478.41,473.24
34.31689,480.16,480.59
34.33700,481.37,488.64
34.35737,482.72,498.30
34.37635,484.02,503.44
34.39611,482.50,512.00
34.41828,483.54,518.03
34.43888,480.00,519.85
34.45983,483.33,527.69
34.47822,480.23,531.08
34.49927,481.20,533.10
34.51986,480.88,535.16
34.54022,477.66,537.30
34.56005,479.13,540.13
34.58222,478.07,542.33
34.60192,478.89,541.91
34.62173,476.53,542.96
34.64158,475.90,541.37
34.66299,476.43,543.11
34.68241,477.89,544.65
34.70190,477.68,544.30
34.72182,479.53,547.22
34.74199,478.83,544.51
34.76307,479.47,548.01
34.78195,476.62,546.81
34.80120,477.25,547.30
34.82318,477.65,545.21
34.84367,480.15,543.30
34.86367,478.51,543.40
34.88319,479.81,544.41
34.90335,477.81,543.19
34.92229,476.71,540.23
34.94260,479.05,540.70
34.96403,477.43,540.98
34.98432,478.63,538.89
35.00445,477.20,534.37
35.02430,477.72,536.98
35.04535,476.80,535.62
35.06534,476.70,536.41
35.08645,479.52,536.71
35.10670,479.81,539.10
35.12659,480.12,555.24
35.14733,479.08,584.35
35.16681,480.60,619.28
35.18614,482.02,649.18
35.20656,486.21,672.62
35.22743,488.56,692.79
35.24784,489.57,700.31
35.26660,489.57,708.74
35.28688,489.60,706.63
35.30722,488.53,695.59
35.32786,489.27,682.14
35.34694,484.95,664.44
35.36718,487.12,649.42
35.38873,484.42,632.80
35.40731,482.41,615.98
35.42875,483.56,604.19
35.44871,483.75,593.39
35.46817,482.37,582.43
35.48743,481.39,577.52
35.50848,482.46,570.35
35.52748,482.12,565.42
35.54859,479.79,558.40
35.56818,480.63,555.02
35.58836,479.97,553.16
35.60728,480.25,547.72
35.62846,481.07,547.96
35.64806,479.82,542.11
35.66849,478.15,544.64
35.68793,478.74,541.75
35.70916,476.52,544.17
35.72761,480.87,542.10
35.74791,477.36,542.59
35.76784,478.46,540.51
35.78847,477.99,542.88
35.80908,476.44,540.69
35.82759,476.74,541.32
35.84894,476.77,542.67
35.86775,476.62,539.11
35.88773,479.35,541.02
35.90806,479.92,540.37
35.92714,479.24,543.38
35.94742,479.97,541.22
35.96924,478.93,541.19
35.98941,480.02,544.31
36.00962,481.00,544.15
36.03001,481.65,540.61
36.04809,479.68,542.96
36.06802,480.91,542.63
36.08918,480.51,544.51
36.10944,483.94,541.94
36.12917,481.40,542.82
36.14900,482.10,540.56
36.16918,481.16,542.12
36.18872,481.34,543.24
36.21016,481.67,539.86
36.22909,482.64,543.63
36.24923,481.22,542.94
36.26929,480.33,546.08
36.28919,483.47,548.46
36.31029,482.29,556.05
36.33062,481.24,563.02
36.34977,484.38,569.19
36.37081,483.07,568.02
36.39032,480.52,563.88
36.41090,480.22,554.41
36.43028,474.18,535.54
36.44959,472.21,513.13
36.46988,473.05,491.84
36.49075,472.62,467.34
36.50962,467.78,451.84
36.52997,469.52,435.01
36.54927,469.78,426.57
36.57017,471.90,422.79
36.59003,471.86,425.60
36.61108,470.90,426.75
36.63060,472.36,432.39
36.65066,474.32,442.39
36.67051,476.08,453.46
36.69065,476.55,462.01
36.70911,479.55,472.03
36.73076,478.13,483.05
36.74996,481.33,490.95
36.77072,480.12,495.09
36.79180,481.07,503.48
36.81140,482.65,509.44
36.83092,481.73,514.96
36.85059,482.63,519.16
36.87036,483.74,521.78
36.89191,484.88,524.52
36.91236,486.25,531.45
36.93204,486.39,532.00
36.95325,487.84,532.15
36.97336,485.69,535.75
36.99428,484.91,536.04
37.01298,484.67,538.48
37.03442,482.50,538.37
37.05441,484.06,538.70
37.07325,483.55,541.41
37.09468,482.26,543.40
37.11319,480.57,543.09
37.13399,482.76,546.16
37.15333,480.08,545.67
37.17372,482.38,545.93
37.19469,480.62,545.28
37.21395,482.92,543.57
37.23442,483.50,546.53
37.25365,482.36,544.98
37.27392,482.89,544.90
37.29316,481.26,543.29
37.31349,478.60,540.33
37.33334,477.62,539.68
37.35419,479.04,537.79
37.37376,478.52,554.03
37.39328,478.22,588.93
37.41395,480.71,627.12
37.43399,481.01,660.25
37.45413,482.15,686.66
37.47434,484.87,700.67
37.49441,485.02,705.29
37.51496,486.26,702.79
37.53316,486.27,685.54
37.55440,489.40,670.52
37.57321,484.57,655.36
37.59478,485.66,638.81
37.61421,485.03,622.48
37.63423,484.01,610.33
37.65316,483.23,601.51
37.67323,484.80,591.61
37.69405,481.03,585.78
37.71474,480.02,576.31
37.73377,478.83,573.76
37.75299,479.97,567.71
37.77440,483.40,563.44
37.79311,480.24,561.93
37.81420,481.25,558.57
37.83309,481.69,553.78
37.85343,479.81,551.57
37.87438,480.58,551.09
37.89368,477.52,547.19
37.91479,478.90,546.48
37.93399,477.90,547.84
37.95393,477.91,544.91
37.97423,478.70,545.38
37.99430,476.64,543.85
38.01491,479.68,543.81
38.03417,479.22,544.40
38.05296,478.86,541.74
38.07501,477.93,544.31
38.09369,480.24,543.40
38.11477,477.01,542.87
38.13444,477.97,542.25
38.15419,478.75,543.64
38.17300,476.04,543.23
38.19498,476.03,543.01
38.21396,476.10,539.39
38.23427,476.61,543.67
38.25377,476.40,542.09
38.27445,479.03,541.10
38.29485,479.09,540.91
38.31432,477.82,532.00
38.33595,475.87,521.33
38.35534,472.99,504.90
38.37439,474.40,487.58
38.39435,471.11,477.05
38.41585,471.40,465.15
38.43445,469.54,454.91
38.45406,468.19,441.66
38.47426,467.07,434.92
38.49547,466.90,427.83
38.51393,466.81,425.83
38.53468,467.93,427.92
38.55508,468.23,433.35
38.57452,471.58,441.58
38.59545,471.73,448.88
38.61552,472.94,459.03
38.63434,471.98,467.22
38.65613,471.05,475.83
38.67666,473.57,482.62
38.69770,472.64,491.07
38.71602,478.36,497.33
38.73819,477.76,502.97
38.75794,476.71,507.45
38.77707,478.71,514.88
38.79858,480.73,519.30
38.81828,479.45,521.19
38.83805,479.08,522.72
38.85896,479.19,526.35
38.87897,478.61,528.42
38.89948,479.86,531.06
38.91966,477.65,535.43
38.93818,480.31,536.53
38.95906,479.70,537.07
38.97993,481.23,538.76
38.99829,479.48,539.70
39.01950,479.21,541.69
39.04178,480.52,543.01
39.06145,480.93,541.88
39.08081,477.76,542.92
39.10263,481.56,543.01
39.12190,478.58,547.88
39.14206,480.57,547.65
39.16181,480.43,548.65
39.18119,477.14,549.20
39.20219,479.80,550.01
39.22396,478.45,550.47
39.24310,477.84,547.57
39.26346,478.49,545.86
39.28235,480.88,547.71
39.30207,480.32,545.62
39.32323,480.29,546.01
39.34353,480.32,544.01
39.36344,481.82,543.68
39.38336,480.67,543.85
39.40297,481.18,541.45
39.42279,481.12,539.80
39.44337,480.00,538.15
39.46415,480.92,539.09
39.48456,482.11,537.89
39.50387,479.21,538.25
39.52325,478.97,536.50
39.54463,479.03,540.49
39.56368,479.34,557.55
39.58520,482.99,588.73
39.60494,486.95,624.95
39.62609,488.03,661.50
39.64550,490.84,687.18
39.66482,490.64,701.44
39.68638,490.89,706.44
39.70775,491.93,698.89
39.72875,488.85,685.84
39.74929,489.00,670.24
39.76966,484.82,653.97
39.79062,484.08,636.16
39.81059,481.18,623.14
39.83124,480.53,612.24
39.85000,481.86,600.68
39.87137,481.11,588.83
39.89095,480.34,583.12
39.91069,478.84,575.18
39.93128,476.76,569.24
39.95085,476.85,565.08
39.97036,476.16,560.87
39.99170,476.75,557.23
40.01078,475.62,554.79
40.03179,475.48,548.79
40.05093,475.74,546.92
40.07219,473.88,547.06
40.09352,475.68,545.56
40.11447,475.20,547.93
40.13338,474.20,544.80
40.15345,476.33,549.04
40.17440,474.20,547.26
40.19390,476.16,548.50
40.21421,474.97,551.17
40.23484,475.93,549.37
40.25534,473.07,546.59
40.27541,472.66,546.74
40.29532,469.84,545.96
40.31404,471.11,541.47
40.33440,471.99,542.06
40.35418,472.49,541.08
40.37405,472.28,540.01
40.39420,473.88,542.71
40.41530,475.25,540.16
40.43524,478.18,541.66
40.45501,476.66,543.06
40.47531,478.31,541.11
40.49587,478.98,540.61
40.51491,480.58,537.85
40.53592,480.33,538.57
40.55516,478.01,540.48
40.57506,480.21,540.10
40.59424,482.00,543.07
40.61457,480.91,545.71
40.63553,480.00,549.06
40.65710,482.46,547.22
40.67538,481.68,534.51
40.69558,481.95,514.33
40.71636,480.96,494.64
40.73593,478.82,474.19
40.75594,478.66,455.38
40.77607,479.25,444.10
40.79558,474.67,432.71
40.81535,477.02,427.05
40.83606,475.74,424.88
40.85702,476.69,428.51
40.87617,474.84,429.84
40.89536,476.13,435.52
40.91662,477.11,445.63
40.93608,475.59,454.31
40.95648,478.78,465.46
40.97799,476.31,473.80
40.99876,476.53,480.85
41.01803,476.49,490.65
41.03745,480.64,498.50
41.05831,478.97,504.30
41.07718,481.26,511.69
41.09836,480.71,514.41
41.11928,482.32,519.70
41.14172,483.12,522.63
41.16138,479.85,524.79
41.18089,480.77,529.43
41.20055,480.94,529.10
41.22054,480.95,533.90
41.24166,481.10,535.42
41.26139,479.78,537.15
41.28261,480.41,542.20
41.30231,479.38,542.73
41.32157,478.76,541.34
41.34183,480.57,545.40
41.36241,479.56,544.13
41.38186,482.02,543.75
41.40190,482.81,543.92
41.42391,482.17,548.01
41.44406,478.95,548.02
41.46510,481.88,548.53
41.48533,479.24,547.94
41.50465,477.92,546.07
41.52427,478.51,544.25
41.54531,478.54,544.34
41.56577,476.94,544.54
41.58502,478.22,544.84
41.60676,477.70,545.29
41.62519,479.38,547.42
41.64551,475.87,545.71
41.66560,476.90,545.96
41.68518,479.50,544.59
41.70532,479.66,546.54
41.72552,479.76,545.90
41.74619,479.43,543.34
41.76618,478.39,542.61
41.78723,479.00,543.73
41.80989,478.11,541.61
41.82892,474.82,542.97
41.85019,476.21,545.35
41.87128,478.02,567.94
41.89092,478.58,612.51
41.91125,484.03,671.40
41.93120,486.67,723.43
41.95149,492.01,758.54
41.97226,493.36,772.09
41.99271,496.16,773.02
42.01193,493.53,765.33
42.03136,496.51,744.21
42.05230,491.59,724.73
42.07229,491.02,695.15
42.09356,488.70,664.72
42.11223,487.65,637.29
42.13286,481.26,613.75
42.15203,481.38,591.17
42.17300,475.75,574.44
42.19271,474.02,557.18
42.21234,473.83,545.26
42.23217,473.84,540.00
42.25320,474.21,529.59
42.27256,475.20,527.39
42.29176,474.75,524.15
42.31208,477.05,520.96
42.33183,474.73,522.72
42.35322,474.12,521.80
42.37243,473.36,519.46
42.39272,475.42,519.94
42.41365,473.53,522.25
42.43205,472.72,525.05
42.45345,472.63,523.58
42.47216,476.81,524.27
42.49388,477.29,528.86
42.51257,477.09,530.78
42.53303,475.43,527.53
42.55227,474.43,531.28
42.57311,477.47,530.17
42.59251,476.14,533.92
42.61206,477.00,535.32
42.63249,478.40,537.31
42.65240,475.74,538.36
42.67329,476.41,540.70
42.69205,476.73,540.82
42.71267,474.59,540.97
42.73204,474.51,541.94
42.75379,475.61,543.91
42.77319,477.66,543.12
42.79354,477.80,541.83
42.81361,477.82,543.76
42.83249,476.32,542.61
42.85205,477.29,540.51
42.87309,480.09,544.58
42.89300,481.19,544.79
42.91218,482.90,545.05
42.93293,481.83,543.54
42.95220,481.60,545.68
42.97293,481.48,539.76
42.99245,479.99,530.37
43.01360,478.76,516.02
43.03299,475.85,500.82
43.05325,473.55,488.04
43.07324,471.94,474.92
43.09362,471.83,459.73
43.11260,471.57,449.10
43.13330,470.53,446.07
43.15204,468.64,440.28
43.17274,469.45,441.63
43.19254,466.83,443.20
43.21355,471.74,444.51
43.23372,469.21,453.07
43.25219,471.99,458.96
43.27338,475.01,464.99
43.29341,474.84,476.30
43.31276,476.39,484.14
43.33203,476.48,492.89
43.35290,478.03,497.16
43.37296,479.06,503.49
43.39238,479.50,510.41
43.41235,480.45,516.48
43.43376,480.64,519.71
43.45270,483.83,524.49
43.47449,483.75,522.55
43.49341,487.46,526.09
43.51460,487.62,527.00
43.53422,487.86,527.14
43.55502,484.19,532.16
43.57520,485.15,532.80
43.59584,487.20,532.26
43.61474,482.76,535.91
43.63527,483.17,535.98
43.65739,483.91,540.63
43.67682,481.53,540.96
43.69781,483.78,541.20
43.71598,482.92,541.61
43.73789,482.79,541.68
43.75770,482.42,542.17
43.77623,483.31,543.86
43.79660,483.78,544.23
43.81782,483.67,545.17
43.83788,481.63,547.01
43.85734,482.47,545.79
43.87817,480.81,543.43
43.89752,481.33,546.02
43.91791,481.38,545.22
43.93684,480.58,545.27
43.95877,477.61,545.86
43.97821,479.93,557.85
43.99785,480.25,580.32
44.01854,480.97,610.00
44.03704,477.54,640.56
44.05834,478.24,663.73
44.07800,480.77,682.62
44.09723,482.85,699.74
44.11756,484.76,703.44
44.13714,487.16,703.46
44.15872,485.67,692.13
44.17889,489.01,680.24
44.19744,485.28,663.72
44.21969,487.26,646.77
44.23890,483.51,629.73
44.25965,483.17,613.53
44.28076,483.13,603.41
44.30013,481.71,594.09
44.32091,480.76,585.36
44.34225,478.63,576.13
44.36342,479.11,568.77
44.38337,477.86,559.22
44.40391,480.37,554.92
44.42447,477.65,552.81
44.44438,479.75,549.81
44.46540,477.97,546.01
44.48470,479.69,544.79
44.50451,477.94,540.51
44.52565,478.56,540.34
44.54511,476.89,542.11
44.56592,476.85,536.55
44.58727,480.59,534.52
44.60730,476.94,535.05
44.62662,479.66,536.49
44.64688,477.54,537.18
44.66703,477.94,536.41
44.68788,476.40,540.74
44.70698,477.68,539.55
44.72857,478.85,538.56
44.74860,477.58,537.86
44.76827,477.89,542.11
44.78673,477.74,540.30
44.80817,475.60,538.65
44.82887,474.51,537.96
44.84729,476.27,537.57
44.86774,476.99,539.39
44.88763,476.13,539.86
44.90865,476.17,537.59
44.92833,475.19,541.33
44.94701,478.48,539.15
44.96845,476.42,539.85
44.98786,477.83,540.33
45.00786,477.03,542.24
45.02706,479.64,545.86
45.04870,477.03,543.02
45.06674,478.59,543.19
45.08780,479.26,542.87
45.10790,481.81,539.61
45.12901,481.20,532.12
45.14967,479.95,518.75
45.16807,483.30,503.58
45.18831,482.97,486.81
45.20824,482.72,472.14
45.22823,477.35,455.29
45.24945,477.20,441.35
45.26848,477.35,432.69
45.28799,472.76,429.03
45.30914,472.37,426.99
45.32786,470.80,427.47
45.35041,468.71,432.17
45.36992,473.46,440.92
45.39019,475.21,448.90
45.40899,474.18,456.42
45.43047,473.76,468.34
45.44973,476.40,477.73
45.46963,473.10,488.01
45.49109,472.91,493.90
45.50962,470.83,502.64
45.53022,471.88,508.50
45.54990,475.43,514.58
45.57024,476.63,518.29
45.59054,479.03,525.48
45.61015,481.45,530.52
45.63125,479.47,531.33
45.65000,481.86,537.90
45.67234,481.09,536.73
45.69200,484.28,538.76
45.71093,481.81,541.38
45.73185,483.03,543.41
45.75098,480.55,541.81
45.77259,483.85,544.77
45.79129,483.90,547.29
45.81254,483.76,546.22
45.83178,485.37,547.14
45.85201,484.53,546.36
45.87128,481.24,546.67
45.89261,481.44,550.15
45.91101,483.64,548.38
45.93186,479.07,549.38
45.95360,478.93,548.77
45.97300,478.33,548.14
45.99260,479.59,549.03
46.01331,477.97,547.11
46.03293,478.83,552.00
46.05314,479.26,549.66
46.07161,476.55,552.40
46.09297,477.97,551.78
46.11198,476.49,552.20
46.13179,479.23,547.76
46.15189,478.81,546.44
46.17188,478.18,549.40
46.19437,479.20,545.02
46.21430,480.00,543.88
46.23444,478.06,549.20
46.25598,478.79,573.77
46.27630,481.40,604.72
46.29504,484.07,642.43
46.31570,486.66,675.93
46.33494,486.75,700.74
46.35663,487.78,714.77
46.37648,487.25,718.35
46.39618,489.57,717.51
46.41663,490.20,705.26
46.43497,488.83,692.17
46.45687,484.64,672.92
46.47648,485.18,656.51
46.49594,481.50,642.03
46.51637,479.94,626.48
46.53572,480.14,612.78
46.55564,478.91,603.08
46.57527,476.42,592.87
46.59691,477.33,582.64
46.61858,476.66,575.77
46.63833,476.51,570.69
46.65768,475.68,561.90
46.67853,476.45,558.75
46.69829,475.07,553.50
46.71911,474.09,551.84
46.74101,476.19,549.18
46.76029,477.14,546.82
46.78167,476.82,548.78
46.80052,475.77,549.17
46.82083,475.58,547.10
46.84110,476.16,547.10
46.86081,475.75,548.13
46.88051,474.36,547.10
46.90062,474.11,546.26
46.92033,474.23,546.94
46.94156,475.95,548.57
46.96184,476.90,547.33
46.98093,477.76,548.28
47.00128,476.36,547.73
47.02072,476.89,546.73
47.03999,476.72,543.68
47.06111,478.82,544.78
47.08105,477.15,545.59
47.10187,476.95,544.68
47.12121,476.99,546.25
47.14018,476.24,548.69
47.16189,474.95,539.41
47.18175,473.98,517.40
47.20110,471.57,495.09
47.22027,470.41,477.56
47.24136,467.74,459.17
47.26018,466.29,443.57
47.28041,468.54,433.00
47.30005,465.32,426.21
47.32022,461.45,425.96
47.34100,461.17,423.72
47.36064,466.69,426.77
47.38117,465.26,432.88
47.40004,468.88,443.72
47.42067,469.50,450.06
47.44134,471.20,461.69
47.45998,470.33,470.24
47.48060,471.91,476.08
47.50115,474.92,485.33
47.52058,472.11,493.60
47.54146,474.75,500.68
47.56144,475.48,504.15
47.58015,472.26,509.36
47.60033,477.35,514.50
47.61970,476.83,517.55
47.64055,476.07,521.20
47.66009,475.18,522.93
47.68068,478.63,526.39
47.70111,477.48,528.29
47.72003,475.47,529.62
47.74145,475.31,531.65
47.76105,478.63,536.08
47.78058,476.90,538.66
47.80099,478.71,538.43
47.82093,478.20,542.25
47.83989,478.76,541.05
47.86018,479.08,541.33
47.88136,477.44,541.19
47.89973,475.31,542.25
47.92105,476.55,544.78
47.94013,475.36,546.47
47.95996,475.97,543.55
47.98009,475.39,545.04
48.00112,474.73,548.36
48.02097,476.66,547.89
48.04124,476.90,547.19
48.06109,477.65,548.97
48.08079,478.01,547.61
48.10002,477.87,546.70
48.12060,476.15,545.89
48.14155,476.76,546.11
48.16008,478.01,546.47
48.18014,476.20,547.57
48.20037,479.78,547.63
48.21963,478.23,547.81
48.24142,478.97,549.00
48.26163,477.51,548.09
48.28000,479.27,546.52
48.29977,477.12,548.76
48.32098,479.35,548.26
48.34071,476.86,548.90
48.36107,480.97,549.08
48.38257,476.56,547.87
48.40112,479.97,548.89
48.42096,476.13,547.38
48.44088,478.53,548.49
48.46149,477.83,547.48
48.48230,475.48,548.28
48.50163,479.05,564.52
48.52137,477.35,596.81
48.54151,480.72,635.10
48.56162,483.09,669.15
48.58081,485.60,688.90
48.60069,486.36,697.92
48.62141,484.09,691.58
48.64231,485.25,682.79
48.66216,484.93,667.21
48.68226,482.87,652.08
48.70202,482.54,637.17
48.72222,484.29,625.38
48.74307,481.00,610.29
48.76267,480.36,603.39
48.78338,482.18,596.17
48.80263,483.96,589.96
48.82333,483.66,582.38
48.84352,480.26,577.81
48.86385,483.99,577.01
48.88445,482.34,578.26
48.90448,480.78,574.28
48.92496,480.27,571.10
48.94544,482.64,570.23
48.96498,481.37,569.19
48.98440,480.07,566.75
49.00408,477.29,566.66
49.02543,478.74,565.11
49.04401,479.00,564.85
49.06534,478.60,563.23
49.13272,480.10,559.77
49.13268,476.17,561.11
49.13222,479.62,560.52
49.14542,475.73,559.27
49.16481,478.02,556.40
49.18420,477.18,556.01
49.20496,477.48,558.35
49.22558,478.15,557.11
49.24445,477.45,557.14
49.26372,478.52,555.76
49.28558,479.33,557.02
49.30564,476.45,553.54
49.32510,479.82,556.50
49.34548,478.91,555.52
49.36575,479.36,551.77
49.38451,478.94,552.74
49.40477,480.17,552.24
49.42496,479.90,551.17
49.44523,480.61,550.38
49.46467,480.43,551.36
49.48495,478.72,554.07
49.50715,480.18,552.30
49.52566,479.67,547.55
49.54633,478.33,549.50
49.56763,476.83,546.52
49.58769,476.82,546.71
49.60600,478.48,547.96
49.62719,476.06,547.50
49.64726,476.19,548.28
49.66742,476.87,548.27
49.68738,476.93,549.18
49.70834,477.47,550.88
49.72853,476.31,552.77
49.74734,477.51,550.35
49.76750,474.15,538.81
49.78806,472.61,520.37
49.80957,470.69,499.16
49.83014,467.68,479.99
49.84918,468.12,463.96
49.86907,465.71,452.52
49.88881,465.84,445.48
49.90941,470.52,437.74
49.93017,470.71,438.93
49.94904,471.37,441.19
49.96887,471.17,446.85
49.98876,471.58,450.54
50.01023,474.61,456.49
50.02992,473.90,465.58
50.04895,473.20,472.13
50.06899,475.22,481.33
50.08921,475.10,487.45
50.11016,477.26,494.29
50.12975,474.19,500.60
50.15021,477.08,506.94
50.16883,477.01,511.60
50.18979,478.15,516.76
50.21052,479.45,521.48
50.23026,480.36,524.79
50.24941,480.87,527.63
50.26995,476.15,529.66
50.29043,477.08,535.68
50.30940,477.48,537.97
50.32855,475.86,535.52
50.34971,477.67,538.15
50.37007,474.72,538.91
50.38876,473.92,539.35
50.40872,473.09,539.64
50.42994,473.05,540.67
50.45094,473.55,542.72
50.46999,473.60,545.22
50.48982,474.06,549.55
50.50964,474.73,551.44
50.53035,474.74,551.00
50.55033,474.15,552.92
50.57068,474.27,554.58
50.59113,476.45,551.83
50.61060,476.73,551.44
50.63228,479.07,553.00
50.65245,479.46,553.07
50.67222,478.22,549.17
50.69332,477.19,548.88
50.71313,478.26,549.63
50.73242,476.20,546.70
50.75219,477.18,548.76
50.77423,478.50,546.67
50.79316,479.01,547.49
50.81459,477.87,545.96
50.83507,475.45,548.49
50.85528,477.11,547.93
50.87667,476.88,545.03
50.89643,477.45,544.40
50.91847,480.50,554.73
50.93777,479.63,571.72
50.95791,480.55,598.63
50.97843,481.61,632.85
50.99732,484.99,660.38
51.01809,484.59,670.12
51.03826,485.55,666.68
51.05703,486.32,661.32
51.07770,485.40,648.31
51.09719,486.07,635.96
51.11787,483.91,624.80
51.13853,485.55,619.33
51.15755,485.01,623.47
51.17781,485.64,624.50
51.19753,488.65,621.84
51.21672,490.48,614.76
51.23894,491.04,605.64
51.25942,489.30,601.00
51.27780,485.87,592.73
51.29938,486.12,589.43
51.31913,485.10,582.68
51.33950,486.55,577.89
51.35791,486.13,573.48
51.37845,485.53,568.39
51.39947,483.66,566.93
51.42037,484.71,563.82
51.44041,484.07,563.46
51.46135,483.03,559.66
51.48127,485.32,559.15
51.50173,484.77,557.37
51.52267,481.24,552.73
51.54291,480.45,554.15
51.56298,483.16,551.29
51.58171,481.90,551.29
51.60359,481.62,548.91
51.62225,479.55,549.96
51.64198,481.43,548.10
51.66298,481.95,550.22
51.68359,481.40,548.49
51.70174,481.47,548.41
51.72199,480.80,548.31
51.74170,476.97,547.35
51.76211,477.15,550.15
51.78469,476.13,553.65
51.80395,479.74,551.76
51.82443,479.00,550.52
51.84505,478.33,551.91
51.86422,478.16,553.45
51.88562,476.81,550.00
51.90420,476.68,550.50
51.92449,476.48,548.84
51.94400,476.69,547.75
51.96375,476.15,545.09
51.98524,477.48,546.12
52.00389,476.27,544.12
52.02556,475.30,541.78
52.04446,476.29,543.50
52.06444,475.33,544.14
52.08444,475.29,543.87
52.10474,476.07,542.98
52.12471,477.97,544.65
52.14538,475.88,545.63
52.16507,479.60,530.59
52.18482,475.39,512.84
52.20546,477.51,502.22
52.22437,478.52,496.88
52.24396,475.35,494.22
52.26557,478.60,495.26
52.28389,477.36,496.01
52.30512,477.15,499.58
52.32498,480.74,504.79
52.34410,478.72,508.99
52.36524,476.51,512.30
52.38622,475.96,516.60
52.40687,477.70,521.45
52.42640,477.43,522.92
52.44829,478.56,528.80
52.46744,474.82,528.55
52.48836,477.69,531.58
52.50712,476.00,532.48
52.52670,477.17,535.14
52.54685,477.97,534.94
52.56806,476.44,537.05
52.58854,475.89,536.75
52.60941,477.16,538.57
52.62884,478.56,538.57
52.64938,478.20,539.55
52.66939,477.38,538.89
52.68820,478.76,538.77
52.70901,479.14,541.75
52.72923,478.38,542.55
52.74754,476.58,543.66
52.76855,478.51,544.89
52.78960,478.99,545.17
52.80827,475.86,546.63
52.82946,476.01,548.29
52.84789,478.39,550.46
52.86752,476.48,549.28
52.88757,475.64,549.49
52.90830,476.01,549.68
52.92904,477.04,553.97
52.94817,475.33,552.61
52.96850,475.21,565.27
52.98945,479.25,583.92
53.00784,476.74,601.29
53.02820,480.95,613.86
53.04855,481.79,614.16
53.06826,481.35,610.36
53.08919,480.68,603.96
53.10753,480.14,599.19
53.12900,479.00,590.59
53.14934,479.79,583.87
53.16806,481.32,576.75
53.18928,478.09,570.81
53.20951,481.46,564.92
53.22774,477.97,561.60
53.24850,473.61,555.24
53.26862,475.51,554.31
53.28930,476.65,550.20
53.30976,478.02,550.56
53.32850,477.02,549.43
53.34969,473.67,546.21
53.36844,475.76,544.52
53.38962,473.12,545.11
53.40811,473.45,546.20
53.42954,473.98,545.49
53.44828,473.18,543.23
53.46773,475.22,541.70
53.48851,481.56,531.60
53.50888,481.61,523.30
53.52922,484.21,515.64
53.54906,486.86,513.81
53.56925,488.21,511.61
53.58957,486.84,511.29
53.60981,485.09,514.87
53.62923,485.07,518.76
53.64958,482.70,523.94
53.66965,483.22,525.91
53.69073,483.74,531.72
53.71005,484.15,531.11
53.72936,483.26,536.03
53.74910,484.91,537.52
53.76982,485.15,538.90
53.78970,484.05,541.40
53.80953,483.32,543.50
53.82875,487.08,541.37
53.85025,494.15,534.16
53.86884,503.94,535.19
53.88938,505.51,532.71
53.91086,507.88,527.12
53.93064,500.78,510.16
53.95242,492.70,489.78
53.97253,483.32,468.59
53.99255,473.87,452.11
54.01349,467.04,437.22
54.03195,464.01,430.25
54.05297,457.99,427.95
54.07355,455.11,427.34
54.09280,452.39,433.05
54.11291,453.78,441.57
54.13302,451.83,449.89
54.15203,455.75,461.94
54.17225,455.30,470.77
54.19333,455.53,479.14
54.21330,459.90,485.13
54.23319,460.50,493.52
54.25223,462.09,500.44
54.27328,465.66,509.24
54.29261,463.20,514.72
54.31296,468.30,519.35
54.33213,466.47,524.29
54.35176,470.11,526.43
54.37458,473.23,530.83
54.39403,471.60,531.66
54.41263,471.61,534.97
54.43387,473.10,542.07
54.45312,472.92,547.78
54.47387,469.93,554.08
54.49336,472.65,553.61
54.51356,473.13,555.33
54.53296,471.63,554.76
54.55388,472.36,557.95
54.57398,477.71,556.15
54.59342,477.95,557.31
54.61377,479.00,561.32
54.63387,482.91,567.06
54.65441,486.26,570.95
54.67402,488.79,569.89
54.69422,490.24,569.48
54.71357,489.59,570.53
54.73331,489.00,569.17
54.75326,486.32,565.40
54.77391,486.96,565.06
54.79260,483.42,563.26
54.81488,481.80,561.06
54.83441,480.96,558.09
54.85488,481.39,558.53
54.87395,481.79,555.22
54.89384,478.90,553.61
54.91509,479.47,554.84
54.93425,479.78,550.30
54.95397,479.96,551.27
54.97521,480.56,550.41
54.99706,478.25,548.91
55.01677,476.60,547.56
55.03665,474.20,545.62
55.05601,474.27,545.25
55.07564,472.23,542.09
55.09717,472.32,550.22
55.11809,471.61,572.22
55.13779,468.84,604.85
55.15971,470.61,640.26
55.17907,474.24,674.59
55.19959,476.26,687.78
55.21987,479.11,687.68
55.23970,477.95,680.82
55.26011,479.05,664.33
55.28025,477.76,653.61
55.30026,477.62,637.64
55.31938,478.29,627.01
55.34092,476.14,613.79
55.36143,478.19,603.18
55.38140,480.44,593.25
55.40137,476.96,585.76
55.42216,478.85,579.43
55.44181,477.75,574.42
55.46257,475.69,567.24
55.48321,477.81,566.61
55.50221,476.23,565.59
55.52331,474.79,562.71
55.54288,475.88,559.17
55.56227,474.75,555.37
55.58235,475.72,553.86
55.60318,475.26,552.82
55.62231,472.24,551.60
55.64257,473.44,553.14
55.66280,474.21,551.33
55.68170,475.23,549.41
55.70303,475.31,548.44
55.72344,472.91,546.94
55.74296,472.08,545.38
55.76272,472.26,546.59
55.78284,473.35,546.43
55.80374,475.39,544.80
55.82416,475.39,544.55
55.84358,473.76,544.58
55.86542,477.29,547.68
55.88370,475.22,545.71
55.90522,474.48,545.88
55.92592,474.31,545.78
55.94614,477.25,548.06
55.96677,477.73,545.37
55.98622,476.91,544.65
56.00690,477.14,545.27
56.02811,479.32,543.91
56.04697,476.89,547.85
56.06857,480.86,544.01
56.08880,477.86,547.06
56.10923,477.46,544.37
56.13140,480.77,547.04
56.15147,477.82,545.07
56.17245,479.19,544.42
56.19219,478.47,544.31
56.21278,479.97,541.93
56.23208,480.64,544.72
56.25329,477.95,542.42
56.27163,478.83,543.52
56.29150,477.15,543.42
56.31169,477.06,544.67
56.33248,478.38,543.09
56.35205,480.13,543.61
56.37330,481.20,547.00
56.39270,477.86,543.92
56.41248,479.65,543.07
56.43324,477.02,543.25
56.45349,477.72,545.34
56.47166,479.79,543.67
56.49329,477.72,531.99
56.51163,472.48,516.55
56.53222,469.95,493.28
56.55350,469.24,475.95
56.57260,466.26,459.05
56.59213,463.21,443.60
56.61349,465.77,434.81
56.63225,464.37,427.56
56.65300,466.70,426.43
56.67205,470.30,430.29
56.69338,470.00,434.31
56.71337,471.88,439.22
56.73342,469.82,447.22
56.75388,471.53,454.95
56.77380,473.92,464.39
56.79459,475.26,473.36
56.81430,474.44,483.17
56.83434,474.66,487.84
56.85415,477.53,498.16
56.87412,477.76,503.67
56.89468,478.35,512.74
56.91405,479.22,518.31
56.93568,481.60,521.80
56.95581,484.09,525.76
56.97549,485.77,530.94
56.99639,487.34,531.66
57.01695,487.69,532.30
57.03795,485.56,536.10
57.05777,487.73,535.20
57.07861,488.67,535.80
57.09949,485.29,540.89
57.11899,485.99,540.33
57.13895,482.73,540.80
57.15898,481.75,541.20
57.17843,482.19,542.14
57.19819,480.26,541.49
57.21820,478.58,543.21
57.23870,477.44,542.17
57.25835,477.97,544.58
57.27863,477.83,543.47
57.29771,477.90,544.62
57.31854,478.19,545.12
57.33876,475.73,546.27
57.35746,476.85,544.69
57.37958,477.70,545.09
57.39812,477.01,545.70
57.41882,475.41,543.48
57.44024,472.82,544.58
57.45973,472.65,545.22
57.47852,472.74,544.38
57.49955,474.16,543.46
57.51960,473.55,545.04
57.54006,473.72,543.61
57.55915,476.12,542.78
57.57857,475.34,542.95
57.60027,474.48,545.18
57.61981,476.89,544.32
57.63872,475.09,542.59
57.65854,476.55,544.55
57.68024,472.71,542.14
57.69915,473.39,543.50
57.71936,471.95,542.10
57.73913,473.90,541.68
57.75957,472.76,539.46
57.77858,471.12,541.18
57.80025,473.43,540.04
57.81907,473.90,537.41
57.83863,470.79,535.15
57.85971,471.17,535.98
57.87942,469.52,536.44
57.89961,472.79,535.87
57.92007,473.57,536.97
57.93945,472.73,537.81
57.95903,474.66,546.59
57.97930,474.10,566.66
57.99966,476.52,605.45
58.02016,478.83,640.64
58.03909,484.77,670.06
58.05976,484.66,683.03
58.07869,488.17,688.10
58.09931,486.90,682.30
58.11970,487.24,671.67
58.13993,483.83,658.76
58.15964,488.02,644.06
58.17917,487.63,627.81
58.20002,484.98,617.98
58.21894,483.00,606.98
58.23896,483.44,596.73
58.25898,484.19,590.83
58.27883,482.80,586.13
58.29958,483.42,577.97
58.31941,483.45,573.06
58.33893,480.72,568.56
58.35864,482.19,564.80
58.38027,480.42,563.67
58.39912,479.58,559.83
58.41887,481.86,555.53
58.44016,480.27,543.80
58.45940,478.18,531.72
58.47947,478.47,526.72
58.49858,476.76,520.50
58.51949,478.62,519.73
58.54026,476.90,517.37
58.55945,477.98,521.34
58.57909,480.85,522.16
58.59939,481.42,525.10
58.61974,478.58,527.69
58.64019,479.60,531.72
58.65979,478.68,533.37
58.68009,478.80,535.98
58.69852,482.69,537.91
58.71986,482.75,538.15
58.73925,482.64,539.26
58.75887,481.43,541.92
58.77851,480.42,542.87
58.79904,481.73,542.32
58.82023,481.50,544.64
58.84050,478.94,545.53
58.85964,479.06,548.84
58.87872,480.07,547.55
58.89991,482.96,553.65
58.91940,480.71,566.91
58.94015,474.65,586.10
58.95899,460.97,600.62
58.97938,456.26,606.04
59.00000,452.55,601.11
59.01945,453.35,590.89
59.04005,454.01,578.63
59.06023,454.84,566.29
59.08078,458.47,555.60
59.10101,460.52,545.63
59.12010,461.91,535.49
59.14179,464.31,531.16
59.16118,467.76,526.86
59.18053,467.29,523.65
59.20127,471.57,524.08
59.22166,470.44,525.18
59.24214,473.89,523.46
59.26247,478.08,527.42
59.28048,478.30,527.62
59.30087,481.52,529.13
59.32170,482.03,531.68
59.34053,482.17,534.09
59.36067,483.91,536.38
59.38184,482.63,535.81
59.40229,482.83,538.08
59.42074,483.47,539.46
59.44098,482.18,543.81
59.46052,482.09,544.35
59.48108,483.49,548.17
59.50158,485.26,543.89
59.52083,493.91,535.71
59.54141,500.76,527.37
59.56155,506.35,522.68
59.58307,505.23,519.87
59.60219,504.43,524.33
59.62208,503.82,526.04
59.64264,501.53,528.34
59.66285,499.46,529.01
59.68346,500.78,531.54
59.70419,495.94,532.00
59.72464,497.92,530.30
59.74532,494.51,531.35
59.76621,492.91,533.09
59.78618,490.18,534.62
59.80694,492.11,534.06
59.82578,488.49,540.27
59.84576,487.52,540.03
59.86668,485.89,545.45
59.88726,484.84,548.84
59.90595,486.95,547.86
59.92656,485.30,550.34
59.94634,481.78,549.84
59.96628,480.14,552.74
59.98611,480.21,551.63
