Program Time [s],data 0,data 1
12.3519,533.6,492.62
12.3718,533.28,492.49
12.3917,532.62,492.2
12.4117,532.3,492.36
12.4318,531.64,492.49
12.4519,531.11,492.99
12.4718,531.09,492.59
12.4922,531.27,492.27
12.5117,532.42,492.62
12.5318,534.13,492.29
12.5517,534.71,493.24
12.5718,535.17,493.59
12.5918,535.73,495.07
12.6118,535.19,495.66
12.6317,534.35,496.73
12.6517,534.68,497.38
12.6717,533.94,497.3
12.6916,534.75,497.64
12.7118,533.2,497.51
12.7318,533.56,498.21
12.7518,532.85,498.37
12.7717,532.08,498.9
12.7918,530.26,500.32
12.8118,530.81,501.85
12.832,533.05,513.28
12.8518,537.04,547.23
12.8719,540.03,590.78
12.8918,543.63,644.02
12.9118,545.9,667.02
12.9318,545.32,688.62
12.9518,541.26,689.49
12.9718,534.2,677.99
12.9928,526.36,658.2
13.0129,520.89,633.56
13.0328,517.51,605.64
13.0528,515.01,575.32
13.0728,514.81,549.05
13.0928,514.05,526.24
13.113,515.84,512.79
13.1328,516.87,501.24
13.1528,516.9,491.59
13.1728,517.92,484.87
13.1928,510.13,480.5
13.2129,498.31,475
13.2328,493.25,466.2
13.2528,489.6,464.76
13.2729,486.88,465.01
13.2928,486.1,465.41
13.3128,489.08,466.52
13.3329,492.27,467.82
13.3529,494.41,469.86
13.3729,496.53,470.28
13.3928,500.82,471.83
13.4128,505.86,475.46
13.4328,509.89,475.17
13.4528,512.51,479.94
13.4728,515.01,481.95
13.4928,515.81,479.16
13.5128,517.05,482.73
13.5329,516.84,486.58
13.5528,522.07,497.47
13.5729,531.66,528.37
13.5929,547.32,593.1
13.6129,563.06,674.28
13.6328,576.65,713.42
13.6528,586.92,725.54
13.6728,592.33,719.23
13.6928,592.47,698.38
13.7129,587.17,667.11
13.7327,579.94,632.69
13.7528,570.15,602.75
13.7728,559.92,576.6
13.7927,549.14,551.28
13.8128,540.71,527.22
13.8329,530.97,509.78
13.8529,525.57,496.82
13.8728,520.06,485.26
13.8928,513.85,476.01
13.9129,509.08,469.01
13.9329,505.46,465
13.9528,503.37,463.8
13.9727,502.5,460.84
13.9929,495.6,457.87
14.0128,488.08,451.3
14.0328,482.26,448.64
14.0528,477.81,448.11
14.0727,476.45,449.29
14.0928,478.56,450.03
14.1127,479.25,451.03
14.1328,481.8,456.22
14.1528,478.64,449.58
14.1726,468.91,434.66
14.1928,455.53,416.33
14.2128,444.42,402.66
14.2328,440.14,397.53
14.2528,441.31,402.02
14.2728,446.45,407.82
14.2928,452.36,417.86
14.3128,460.09,428.48
14.3328,467.87,436.79
14.3528,477.3,447.23
14.3727,484.44,455.38
14.3928,491.15,463.11
14.4128,496.92,471.09
14.4328,500.54,476.67
14.4528,504.03,483.33
14.4727,507.42,486.27
14.4938,509.74,489.01
14.5139,511.59,490.81
14.5337,513.07,492.45
14.5536,511.86,494.76
14.5738,512.29,497.01
14.5938,511.23,499.41
14.6138,511.98,502.32
14.6338,509.79,506.26
14.6536,506.83,512.41
14.6739,511.26,531.93
14.6947,526.01,580.14
14.7148,546.61,636.51
14.7348,568.69,677.41
14.7548,588.15,693.53
14.7748,602.72,693.22
14.7946,613.78,682.98
14.8146,618.62,666.58
14.8347,616.9,645.67
14.8546,611.52,622.53
14.8748,602.41,599.23
14.8946,591.33,578.38
14.9146,579.66,558.5
14.9347,568.93,541.6
14.9556,560.15,527.68
14.9759,552.32,516.75
14.9958,545.05,508
15.0156,538.64,502.2
15.0358,531.31,497.96
15.0556,526.25,495.77
15.0758,527,494.41
15.0957,526.2,491.33
15.1158,524.16,490.06
15.1358,522.93,488.65
15.1569,521.94,488.92
15.1768,521.75,489.34
15.1968,521.8,489.67
15.2168,520.24,491.14
15.2368,516.59,492.31
15.2568,512.88,491.25
15.2768,510.7,491.6
15.2966,509.56,491.88
15.3167,508.45,493.3
15.3368,506.76,495.44
15.3569,505.41,496.95
15.3769,504.73,497.76
15.3967,504.18,498.81
15.4168,504.34,499.85
15.4368,504.68,501.88
15.4568,504.94,501.9
15.4768,505.15,501.72
15.4968,505.52,502.58
15.5168,505.62,502.66
15.5367,506.49,503.53
15.5569,506.2,503.02
15.5768,507.96,505.22
15.5968,509.56,506.98
15.6168,510.85,508.98
15.6368,510.08,509.98
15.6566,510.07,510.99
15.6768,508.05,512.59
15.6966,507.44,514.27
15.7166,509.55,514.82
15.7366,510.44,517.65
15.7567,514.35,524.32
15.7769,521.48,538.86
15.7968,523.39,569.09
15.8166,518.91,601.27
15.8367,509.93,622.62
15.8569,493.94,628.09
15.8768,477.55,619.47
15.8968,463.64,598.98
15.9169,456.31,578.18
15.9368,452.25,554.95
15.957,451.6,534.56
15.9768,454.68,516.85
15.9968,456.14,500.48
16.0165,461.12,490.38
16.0368,464.29,481.11
16.0578,468.83,475.28
16.0778,473.67,470.83
16.0978,479.33,467.06
16.1177,483.07,465.25
16.1377,486.05,462.4
16.1587,489.04,459.92
16.1788,491.23,458.54
16.1988,493.19,458.23
16.2188,496.35,458.98
16.2389,500.48,459.59
16.2588,500.98,458.67
16.2788,504.19,460.14
16.2987,508.55,461.91
16.3186,513.84,464.53
16.3386,517.27,468.02
16.3588,519.02,472.42
16.3788,519.21,481.53
16.3989,524.57,496.03
16.4188,527.86,520.42
16.4386,534.89,554.94
16.4589,538.11,583.15
16.4788,540.69,593.32
16.4988,540.95,590.46
16.5188,539.76,576.96
16.5386,538.61,558.37
16.5588,535.89,540.3
16.5788,533.31,522.84
16.5988,532.65,508.87
16.6188,532.12,495.9
16.6386,530.29,483.72
16.6598,532.64,476.37
16.6797,532.11,469.3
16.6998,532.29,464.44
16.7198,532.03,461.95
16.7396,532.82,464.56
16.7597,533.26,464.25
16.7798,531.01,465.4
16.7998,531.01,467.32
16.82,531.2,472.86
16.8407,531.76,478.48
16.8617,530.81,480.99
16.8815,530.65,482.99
16.9018,528.92,485.79
16.9216,529.54,488.63
16.9416,531.63,490.31
16.9617,533.7,491.25
16.9828,533.76,493.6
17.0027,534.41,497.68
17.0227,534.53,500.14
17.0438,535.42,497.71
17.0638,532.14,495.97
17.0838,534.71,496.98
17.1039,533.77,494.78
17.1239,532.81,496.82
17.1437,530.45,498.46
17.1637,528.56,501.57
17.1838,527.25,499.85
17.2036,526.2,497.08
17.2236,521.96,498.07
17.2435,517.57,496.25
17.2636,510.45,497.4
17.2835,505.56,498.32
17.3037,502.85,500.06
17.3236,500.68,501.05
17.3437,503.34,499.84
17.3637,503.28,501.47
17.3838,505.42,500.78
17.4037,509.34,497.02
17.4237,508.47,492.62
17.4437,508.98,491.89
17.4637,508.58,491.71
17.4838,507.66,493.57
17.5037,506.53,500.06
17.5239,509.03,504.65
17.5437,509.42,508.72
17.5638,511.14,507.97
17.5838,510.91,506.18
17.6037,509.93,505.14
17.6237,514.14,501.91
17.6437,512.31,501.13
17.6637,508.65,500.51
17.6837,504.52,500.2
17.7038,503.02,504.56
17.7237,501.01,517.05
17.7438,503.01,537.04
17.7637,510.41,569.23
17.7838,516.73,595.99
17.8037,519.98,607.99
17.8238,522.19,601.39
17.8438,522.75,583.11
17.8637,523,562.09
17.8838,523.4,540.27
17.9036,523.12,520.62
17.9238,521.9,503.89
17.9438,521.52,491.12
17.9638,520.01,482.09
17.9838,518.01,473.87
18.004,516.21,469.1
18.0236,516.37,466.68
18.0438,516.29,464.74
18.0636,517.23,465.59
18.0838,515.79,467.28
18.1036,514.43,472.22
18.1238,513.74,473.58
18.1438,514.4,474.66
18.1638,513.72,473.73
18.1836,512.17,473.78
18.2036,513.34,475.23
18.2239,514.27,476.78
18.2437,514.42,478.22
18.2636,514.93,479.58
18.2839,516.55,481.86
18.3038,518.64,482.09
18.3238,520.71,484.67
18.3438,524.37,487.94
18.3637,524.49,490.55
18.3837,527,492.24
18.4045,528.8,492.59
18.4248,529.44,493.87
18.4447,530.95,493.9
18.4646,533.76,493.52
18.4848,534.01,494.22
18.5045,533.81,496.37
18.5248,533.24,500.5
18.5447,530.4,505.6
18.5649,527.52,505.88
18.5847,523.41,504.5
18.6046,520.93,500.4
18.6248,520.94,500.32
18.6449,519.56,501.26
18.6645,519.04,503.01
18.6847,519.64,503.6
18.7047,520.31,503.48
18.7248,519.25,504.39
18.7447,521.4,506.91
18.7647,522.92,507.13
18.7848,524.33,507.5
18.8046,523.27,505.4
18.8248,522.21,503.72
18.8447,523.97,504.18
18.8648,525.38,503.34
18.8847,525.5,503.07
18.9047,525.4,503.66
18.9248,526.32,503.93
18.9447,527.86,503.74
18.9646,528.89,503.19
18.9857,528.91,501.95
19.0056,529.53,501.76
19.0259,529.62,501.41
19.0457,530.5,500.93
19.0657,529.2,500.34
19.0855,529.36,499.87
19.1056,529.69,500.9
19.1257,530.55,500.12
19.1458,530.44,501.5
19.1657,528.55,501.6
19.1856,528.04,502.68
19.2066,526.63,504.14
19.2267,525.71,504.11
19.2465,523.57,504.69
19.2667,521.45,506.35
19.2867,520.56,506.48
19.3066,519.65,506.59
19.3267,519.32,506.47
19.3467,518.86,504.97
19.3667,519.68,503.38
19.3865,520.15,501.3
19.4066,521.32,500.84
19.4265,521.85,500.87
19.4466,523.08,501.7
19.4666,523.07,502.36
19.4867,524.45,502.29
19.5067,525.56,501.63
19.5267,525.85,501.7
19.5466,526.08,500.96
19.5666,526.06,501.37
19.5875,525.85,501.3
19.6088,525.68,501.44
19.6286,524.74,503.15
19.6488,524.8,505.92
19.6687,524.04,506.74
19.6888,523.03,508.99
19.7087,523.02,510.99
19.7287,522.02,512.39
19.7487,521.42,512.91
19.7688,520.73,513.73
19.7889,519.99,513.79
19.8088,517.99,513.23
19.8285,517.19,513.58
19.8487,516.55,512.47
19.8688,515.24,510.97
19.8885,513.59,510.78
19.9087,513.47,511.22
19.9287,512.38,510.98
19.9488,511.9,509.98
19.9687,511.32,507.99
19.9885,511.86,508.19
20.0087,511.49,508.35
20.0287,510.99,508.68
20.0487,512.79,509.74
20.0685,512.03,509.6
20.0885,512.43,510.68
20.1088,514.14,511.34
20.1284,514.71,512.67
20.1485,515.57,513.14
20.1687,516.26,513.11
20.1885,517.81,513.29
20.2087,518.04,512.03
20.2287,517.64,511.02
20.2487,517.31,510.42
20.2687,518.05,510.34
20.2886,517.64,509.47
20.3088,516.11,508.97
20.3286,516.49,508.38
20.3488,516.99,507.7
20.3688,516.39,508.16
20.3888,516.91,508.73
20.4087,517.13,509.58
20.4287,517.1,509.27
20.4485,517.28,510.01
20.4687,516.63,509.21
20.4885,515.3,510.77
20.5088,514.44,511.22
20.5288,514.15,510.97
20.5488,513.32,511.58
20.5688,513.86,512.26
20.5885,513.89,513.21
20.6088,514.11,512.57
20.6285,514.69,512.05
20.6488,514.35,511.64
20.6687,513.48,511.91
20.6887,513.38,511.53
20.7087,513.31,511.03
20.7286,512.85,512.02
20.7487,514.08,512.22
20.7687,514.66,511.57
20.7885,513.53,511.46
20.8087,511.62,510.57
20.8286,510.7,509.65
20.8487,508.76,509.32
20.8688,509.01,508.86
20.8885,508.21,508.89
20.9087,507.16,509.71
20.9287,506.53,506.77
20.9485,506.63,494.81
20.9687,507.9,475.65
20.9886,507.52,451.92
21.0087,505.82,430.34
21.0287,504.05,413.27
21.0487,501.44,400.42
21.0687,498.35,392.93
21.0885,495.08,391.95
21.1087,493.07,393.76
21.1287,491.45,400.21
21.1488,490.36,407.36
21.1685,490.49,416.29
21.1885,491.99,425.03
21.2087,493.99,433.83
21.2288,496.39,442.46
21.2488,496.72,450.97
21.2687,498.77,457.98
21.2885,499.82,464.18
21.3087,500.85,470.14
21.3287,502.68,476.32
21.3487,505.35,484.05
21.3688,507.88,493.84
21.3886,508.3,500.87
21.4088,510.44,505.7
21.4287,511.75,509.16
21.4487,512,511.93
21.4684,511.2,513.74
21.4884,510.76,514.79
21.5085,511.41,515.63
21.5285,513.53,516.51
21.5488,517.42,517.41
21.5687,518.94,517.72
21.5885,520.95,518.38
21.6089,521.16,518.5
21.6287,521.53,518.2
21.6488,522.02,517.36
21.6686,521.42,516.69
21.6896,520.53,516.15
21.7098,519.03,515.92
21.7297,517.22,515.54
21.7497,516.58,515.23
21.7697,515.86,514.18
21.7897,514.09,512.75
21.8096,513.07,511.6
21.8295,512.46,510.48
21.8498,511.97,509.58
21.8697,510.77,508.67
21.8894,510.02,508.13
21.9094,510.61,508.51
21.9295,510.49,509.01
21.9496,509.39,508.2
21.9696,507.91,508.56
21.9898,506.33,508.85
22.0096,505.27,509.28
22.0295,506.21,509.42
22.0497,506.17,508.74
22.0697,507.14,509.99
22.09,507.11,507.59
22.1097,506.29,523.27
22.1297,506.63,553.42
22.1497,507.1,586.94
22.1696,507.48,613.15
22.1897,506.99,620.52
22.2097,505.39,618.22
22.2297,504.31,610.37
22.2497,502.25,600.1
22.2697,502,588.08
22.2898,502.2,575.86
22.3097,502.36,566.69
22.3297,502.29,556.75
22.3497,502.43,549.6
22.3697,502.54,542.48
22.3898,504.04,539.39
22.4098,507.83,539.71
22.4298,508.26,536.37
22.4496,510.81,533.29
22.4696,511.85,529.43
22.4896,511.48,526.35
22.5097,511.18,522.88
22.5298,510.95,519.3
22.5497,510.16,516.44
22.5697,510.13,515.15
22.5898,509.9,513.92
22.6099,509.92,512.54
22.6297,509.74,511.23
22.6497,509.39,511.58
22.6697,509.31,511.07
22.6896,510.65,511.65
22.7097,511.92,512.52
22.7294,510.94,511.22
22.7497,510.15,509.37
22.7697,509.52,508.5
22.7894,508.81,507
22.8095,509.85,505.8
22.8294,509.48,504.44
22.8497,509.59,504.55
22.8697,509.87,505.04
22.8896,509.89,506.63
22.9095,508.52,506.51
22.9295,508.81,506.21
22.9496,508.45,508.36
22.9697,509.96,511.09
22.9897,509.97,510.87
23.0096,509.57,511.5
23.0297,509.66,511.4
23.0496,510.33,512.32
23.0696,510.26,511.26
23.0895,510.21,511
23.1095,510.97,511.6
23.1297,510.17,511.48
23.1497,509.94,510.99
23.1697,509.15,509.99
23.1896,508.32,509.19
23.2094,507.66,507.75
23.2296,507.13,507.6
23.2496,506.7,508.08
23.2697,507.96,507.67
23.2895,508.37,507.53
23.3097,507.89,507.23
23.3296,508.52,506.98
23.3497,509.01,506.38
23.3696,508.61,506.51
23.3897,507.89,506.21
23.4096,508.11,506.36
23.4296,507.89,507.89
23.4497,507.11,504.31
23.4696,503.89,492.85
23.4894,502.11,475.88
23.5097,499.89,457.1
23.5297,498.11,439.68
23.5497,496.49,425.55
23.5697,494.99,413.24
23.5896,493.99,404.79
23.6097,494.59,398.43
23.6296,493.48,394.35
23.6496,492.98,394.08
23.6696,493.38,395.66
23.6894,494.71,400.33
23.7094,495.77,405.86
23.7295,499.41,411.49
23.7497,503.33,417.59
23.7694,505.46,423.87
23.7896,505.37,430.1
23.8096,506.3,435.68
23.8297,507.04,441.14
23.8496,507.83,446.51
23.8694,509.86,451.81
23.8895,510.69,457.25
23.9096,512.15,462.2
23.9296,511.72,466.36
23.9496,511.38,470.49
23.9694,512.3,474.39
23.9896,512.64,477.91
24.0096,513.91,480.93
24.0297,513.73,483.74
24.0497,512.78,486.6
24.0697,513.23,489.48
24.0898,514.38,491.38
24.1096,515.31,493.5
24.1297,515.64,495
24.1495,514.72,496.4
24.1697,513.57,497.52
24.1895,512.86,498.02
24.2096,513.69,499.41
24.2296,514.35,500.73
24.2495,514.08,501.79
24.2696,513.86,502.03
24.2904,515.69,501.82
24.3107,516.95,502.26
24.3307,517.56,502.81
24.3505,519.25,503.65
24.3707,520.4,503.72
24.3905,520.92,503.17
24.4104,520.34,503.34
24.4317,521.47,503.67
24.4516,521.57,503.94
24.4717,521.86,503.55
24.4915,522.89,503.44
24.5116,523.11,503.75
24.5314,525.29,503.4
24.5516,525.43,502.92
24.5715,525.54,502.94
24.5915,524.64,503.15
24.6116,523.51,502.92
24.6316,522.41,503.34
24.6516,522.13,503.07
24.6715,522.3,502.45
24.6916,522.64,502.36
24.7116,523.11,501.69
24.7315,523.49,500.95
24.7516,525.39,500.96
24.7714,525.11,500.37
24.7926,526.09,499.9
24.8126,526.27,499.52
24.8327,526.82,500.01
24.8525,527.25,502.61
24.8724,528.4,517.69
24.8926,531.92,541.75
24.9124,534.54,583.4
24.9328,535.83,621.52
24.9525,536.06,650.22
24.9724,535.85,668.57
24.9926,535.28,672.66
25.0125,533.83,665.13
25.0336,532.06,650.1
25.0536,532.65,633.28
25.0738,531.12,616.62
25.0939,530.69,600.3
25.1135,529.76,587.64
25.1344,528.2,576.11
25.1554,526.76,564.69
25.1754,525.61,556.55
25.1955,524.89,548.64
25.2155,524.51,543.31
25.2355,526.01,537.65
25.2555,530.41,534.72
25.2764,532.13,531.18
25.2965,532.3,526.14
25.3164,533.44,524.11
25.3369,534.95,522.09
25.3567,534.76,520.27
25.3765,534.61,519.22
25.3966,532.49,517.37
25.4166,531.19,515.3
25.4366,528.75,514.24
25.4565,527.6,512.59
25.4766,525.88,511.47
25.4966,526.11,510.38
25.5166,526.28,508.3
25.5366,525.83,507.84
25.5567,526.66,506.87
25.5766,526.33,505.9
25.5966,526.26,505.12
25.6166,525.41,505.3
25.6367,524.93,505.24
25.6567,525.14,506.19
25.6766,524.31,506.35
25.6965,523.25,506.48
25.7165,522.2,506.38
25.7366,520.36,506.71
25.7566,519.29,506.77
25.7765,519.63,506.61
25.7965,519.9,506.69
25.8164,519.92,506.15
25.8365,520.54,506.12
25.8566,519.63,506.9
25.8765,519.3,507.72
25.8966,518.64,508.17
25.9164,518.12,508.54
25.9366,517.69,507.83
25.9563,517.35,507.67
25.9764,516.88,507.93
25.9965,516.31,508.15
26.0165,516.45,508.52
26.0374,514.76,508.21
26.0586,513,507.57
26.0785,512.2,507.46
26.0983,511.16,507.57
26.1186,511.53,508.85
26.1384,511.22,508.88
26.1587,511.98,509.11
26.1786,510.58,510.08
26.1985,509.87,509.27
26.2185,508.49,508.61
26.2385,506.99,508.69
26.2585,508.4,508.55
26.2785,507.72,509.44
26.2984,507.97,509.55
26.3185,508.38,509.64
26.3384,509.3,509.11
26.3595,509.44,508.09
26.3796,508.55,507.47
26.3996,508.84,507.38
26.4194,508.47,506.9
26.4397,507.98,507.32
26.4595,507.78,507.86
26.4795,508.43,507.69
26.4994,507.94,508.75
26.5193,507.75,508.8
26.5395,506.2,509.04
26.5599,506.76,509.83
26.5794,506.01,505.67
26.6005,505.41,493.73
26.6203,504.33,477.39
26.6404,501.26,461.71
26.6604,497.61,447.97
26.6805,495.09,434.17
26.7005,491.47,421.34
26.7206,486.98,410.47
26.7405,485.38,402.78
26.7607,484.5,398.02
26.7805,485.8,396.22
26.8006,486.04,396.37
26.8204,487.63,399.3
26.8406,488.71,404.84
26.8607,490.77,412.67
26.8803,493.01,420.94
26.9005,494.61,429.35
26.9204,496.49,436.88
26.9406,496.79,444.9
26.9606,497.83,452.32
26.9806,497.27,460.06
27.0005,498.41,466.05
27.0204,500.13,471.24
27.0415,501.9,476.59
27.0614,503.52,481.47
27.0815,504.22,485.18
27.1016,504.97,488.74
27.1216,505.98,491.99
27.1415,505.98,494.59
27.1616,506.59,496.68
27.1816,506.67,498.34
27.2015,505.94,499.87
27.2213,505.75,501.7
27.2415,505.6,502.76
27.2615,505.88,503.21
27.2816,505.7,503.77
27.3025,507.76,504.21
27.3223,509.41,504.57
27.3426,510.73,505.46
27.3625,509.98,506.16
27.3825,510.19,506.33
27.4026,510.15,505.67
27.4225,511.92,505.53
27.4426,511.34,505.83
27.4625,512.67,506.46
27.4825,514.53,506.57
27.5024,516.03,506.85
27.5224,516.22,506.48
27.5434,517.58,505.39
27.5634,517.66,505.31
27.5833,517.93,505.65
27.6037,517.74,505.92
27.6234,517.6,505.73
27.6434,517.68,505.99
27.6634,519.14,506.19
27.6833,519.31,505.95
27.7036,518.25,505.96
27.7234,518,506.57
27.7433,517,506.66
27.7634,516.4,507.12
27.7846,516.52,507.1
27.8043,517.82,506.68
27.8255,518.85,506.34
27.8455,521.48,505.27
27.8655,523.59,515.82
27.8854,525.87,539.66
27.9054,528.89,572.32
27.9254,531.72,605.86
27.9456,534.77,637.69
27.9655,537.82,660.35
27.9854,540.85,671.08
28.0054,542.08,667.46
28.0256,542.67,654.97
28.0453,541.93,639.78
28.0654,542.15,623.42
28.0855,541.32,606.74
28.1053,540.85,591.39
28.1255,539.48,579.11
28.1454,536.59,568.09
28.1653,534.47,557.07
28.1855,533.78,548.86
28.2053,532.42,541.69
28.2254,534.14,537.75
28.2456,534.51,533.6
28.2654,535.41,529.68
28.2854,536.33,526.54
28.3053,535.46,523.43
28.3254,535.37,519.95
28.3455,534.49,517.96
28.3655,533.4,516.17
28.3855,532.72,513.93
28.4053,532.77,513.95
28.4255,533.02,512.56
28.4455,531.81,512.65
28.4655,530.65,511.32
28.4855,530.52,510.45
28.5053,530.62,510.96
28.5255,531.09,510.17
28.5453,530.68,509.74
28.5655,529.94,509.59
28.5856,528.95,508.87
28.6054,528.36,509.3
28.6255,528.69,509.24
28.6455,528.15,508.59
28.6655,528.32,508.07
28.6855,527.86,508.46
28.7054,528.29,507.97
28.7256,528.43,508.17
28.7455,527.94,507.74
28.7655,527.15,507.59
28.7855,527.52,508.67
28.8054,528.22,509.14
28.8253,529.17,509.31
28.8454,528.34,509.05
28.8655,527.67,509.24
28.8855,528.14,509.39
28.9053,528.31,508.91
28.9253,530.05,508.13
28.9454,530.44,507.5
28.9653,529.95,507.8
28.9854,529.76,508.24
29.0053,530.01,509.39
29.0254,529.21,509.32
29.0455,529.77,509.45
29.0655,528.61,509.76
29.0855,528.29,509.61
29.1054,527.63,509.49
29.1253,526.51,510.19
29.1454,524.4,510.75
29.1655,524.72,509.8
29.1855,524.98,509.24
29.2054,525.98,508.79
29.2254,525.99,508.43
29.2456,526.59,508.55
29.2655,527.27,508.84
29.2855,527.22,508.47
29.3053,526.97,507.78
29.3255,525.38,503.22
29.3454,524.1,490.18
29.3655,523.68,471.54
29.3855,522.35,454.43
29.4053,519.28,438.35
29.4254,518.02,424.48
29.4455,515.42,413.78
29.4655,513.73,406.83
29.4856,511.39,402.46
29.5054,510.91,400.17
29.5253,509.73,400.93
29.5455,509.78,403.55
29.5653,511.83,408.24
29.5854,514.46,413.99
29.6065,515.17,420.59
29.6263,516.33,427.47
29.6475,517.67,434.58
29.6674,519.13,442.26
29.6873,519.51,449.21
29.7084,519.21,455.77
29.7286,517.96,462.01
29.7485,518.17,467.81
29.7684,516.54,473.65
29.7886,516.43,479.12
29.8085,515.74,482.7
29.8284,516.2,486.36
29.8486,515.76,489.69
29.8685,516.2,492.35
29.8883,515.76,494.68
29.9094,514.61,496.34
29.9295,514.49,498.27
29.9495,514.19,499.02
29.9694,513.95,500.62
29.9893,513.96,501.49
30.0095,513.17,502.19
30.0294,512.74,503.36
30.0495,513.59,504.08
30.0695,513.87,504.67
30.0895,513.9,504.93
30.1104,512.12,505.75
30.1305,510.89,506.2
30.1505,508.52,506.76
30.1704,507.61,506.81
30.1902,507.89,508.25
30.2106,507.91,508.6
30.2305,507.73,508.28
30.2505,507.38,508.02
30.2704,507.11,508.22
30.2906,506.89,508.57
30.3104,505.71,508.26
30.3305,505.17,508.81
30.3506,504.73,509.05
30.3703,504.19,509.84
30.3905,505.15,509.87
30.4105,505.12,509.5
30.4305,505.7,509.6
30.4502,504.76,509.08
30.4703,504.61,508.86
30.4903,503.48,509.29
30.5104,503.79,509.63
30.5314,503.63,510.51
30.5514,503.3,511
30.5714,503.04,511.8
30.5914,503.23,524.04
30.6115,508.59,551.63
30.6314,515.07,593.51
30.6514,521.26,645.41
30.6714,525.6,696.92
30.6914,529.68,728.74
30.7114,530.75,739.99
30.7315,529.2,737.99
30.7515,526.36,723.59
30.7712,522.29,699.88
30.7914,519.63,671.3
30.8112,516.9,642.84
30.8315,514.32,615.47
30.8513,512.06,591.78
30.8722,510.65,570.02
30.8926,508.12,553.02
30.9125,506.89,537.41
30.9324,505.52,525.73
30.9524,505.21,516.39
30.9723,504.37,509.51
30.9924,504.1,505.01
31.0125,504.48,501.61
31.0325,503.18,499.08
31.0535,503.54,497.67
31.0733,504.64,497.73
31.0933,503.11,497.79
31.1135,505.69,497.83
31.1335,507.15,498.46
31.1534,507.52,498.97
31.1737,507.82,499.38
31.1935,507.45,500.1
31.2135,508.56,500.88
31.2335,509.65,500.9
31.2536,510.32,501.12
31.2734,508.86,501.7
31.2934,507.48,502.36
31.3134,507.39,503.69
31.3334,509.71,504.35
31.3535,509.77,504.88
31.3734,508.41,505.9
31.3934,508.13,505.32
31.4135,508.31,505.66
31.4334,509.44,506.33
31.4536,510.76,506.06
31.4735,511.4,506.25
31.4935,511.12,506.4
31.5135,510.7,506.12
31.5332,510.36,506.3
31.5535,509.69,507.04
31.5735,508.95,507.63
31.5934,509.96,508.3
31.6134,511.57,508.64
31.6332,511.85,509.11
31.6537,512.08,509.89
31.6735,513.07,509.71
31.6935,514.05,509.77
31.7135,513.84,509.42
31.7332,512.87,509.33
31.7536,512.3,508.67
31.7734,513.44,507.13
31.7933,514.15,507.11
31.8133,514.32,507.29
31.8334,514.26,507.83
31.8533,513.21,507.86
31.8733,513.56,507.89
31.8936,513.85,507.51
31.9143,514.88,507.61
31.9344,515.9,507.69
31.9544,516.12,507.55
31.9745,516.3,507.44
31.9944,515.64,507.15
32.0145,515.91,506.72
32.0344,516.73,505.98
32.0542,517.58,505.78
32.0745,517.47,506.03
32.0944,517.77,506.82
32.1145,517.62,508.26
32.1344,517.49,507.41
32.1543,515.6,495.72
32.1746,514.48,480.78
32.1944,511.38,465.62
32.2143,506.51,449.9
32.2344,503.6,434.72
32.2543,501.48,421.78
32.2746,499.59,411.62
32.2945,498.87,403.7
32.3145,496.9,399.36
32.3345,496.32,398.49
32.3543,495.65,400.79
32.3744,495.92,405.03
32.3944,496.54,410.82
32.4144,497.43,417.66
32.4345,499.74,425.53
32.4542,500.6,433.42
32.4745,501.48,441.14
32.4942,503.78,447.91
32.5145,505.82,454.13
32.5344,507.86,460.7
32.5545,510.49,466.16
32.5755,512.19,471.33
32.5954,514.35,475.66
32.6155,514.68,478.93
32.6354,515.55,482.14
32.6553,516.64,485.12
32.6754,517.31,487.89
32.6954,517.45,490.31
32.7153,518.16,492.65
32.7352,518.73,494.72
32.7553,520.38,495.98
32.7754,520.5,497.18
32.7953,519.8,498.15
32.8154,520.84,499.52
32.8352,520.87,500.01
32.8556,521.7,501.01
32.8752,522.36,501.21
32.8954,522.89,501.37
32.9154,523.11,501.69
32.9354,523.09,502.75
32.9553,522.67,503.2
32.9755,522.74,503.56
32.9954,522.39,503.65
33.0154,522.31,504.12
33.0354,522.65,504.3
33.0552,522.32,504.24
33.0754,522.46,504.39
33.0954,522.36,504.51
33.1154,524.69,504.61
33.1353,524.75,505.09
33.1552,525.6,504.87
33.1755,525.88,505.1
33.1954,525.51,504.68
33.2154,525,504.34
33.2354,524.2,503.87
33.2552,525.76,514.1
33.2752,528.81,538.88
33.2954,532.45,576.1
33.3154,536.56,610.28
33.3353,541.05,637.43
33.3562,544.64,656.94
33.3764,547.31,660.95
33.3965,548.05,653.36
33.4163,547.44,640.09
33.4364,545.35,625.27
33.4562,543.48,609.42
33.4774,541.38,595.13
33.4975,539.11,583.11
33.5174,537.09,571.29
33.5374,534.87,563.03
33.5575,533.3,553.42
33.5775,532.44,546.74
33.5976,530.55,540.39
33.6173,529.44,535.91
33.6372,529.95,532.53
33.6582,530.76,529.62
33.6783,531.21,526.5
33.6983,530.77,523.4
33.7183,530.81,520.32
33.7383,529.85,518.86
33.7584,528.48,517.08
33.7782,528.58,516.87
33.7982,527.47,516.09
33.8184,527.17,515.68
33.8384,525.54,515.34
33.8584,524.83,514.47
33.8784,525.07,512.98
33.8984,524.05,513.18
33.9183,523.44,513.75
33.9382,522.55,513
33.9584,523.84,513.2
33.9784,523.47,513.16
33.9983,523.38,511.93
34.0182,523.3,511.54
34.0382,522.04,511.23
34.0586,521.03,511.59
34.0784,520.43,511.47
34.0985,520.34,511.18
34.1185,520.47,510.94
34.1384,519.58,509.75
34.1584,519.26,508.8
34.1782,519.21,508.24
34.1984,518.97,507.99
34.2184,519.57,507.59
34.2383,520.66,508.68
34.2585,520.73,508.74
34.2784,520.18,508.99
34.2985,519.35,508.99
34.3184,520.08,508.2
34.3384,520.26,507.76
34.3583,520.01,507.4
34.3784,520.01,507.72
34.3984,520.41,507.58
34.4184,520.12,507.86
34.4383,519.3,507.49
34.4583,519.64,507.19
34.4783,519.51,507.95
34.4985,519.21,507.16
34.5184,519.97,507.53
34.5382,519.57,506.82
34.5584,518.26,496.26
34.5784,517.81,479.41
34.5984,516.25,462.33
34.6183,513.2,446.86
34.6383,508.56,433.09
34.6583,504.65,421.87
34.6784,501.52,412.5
34.6984,500.01,405.6
34.7184,497.61,400.08
34.7383,494.69,398.86
34.7584,492.55,400.09
34.7784,490.84,403.47
34.7984,490.07,408.58
34.8184,489.86,414.46
34.8383,490.69,420.17
34.8584,492.35,425.34
34.8784,494.28,430.87
34.8984,496.62,436.49
34.9184,498.1,442.6
34.9384,499.28,448.08
34.9581,501.22,452.46
34.9782,502.38,456.37
34.9982,503.7,461.3
35.0183,504.16,466.04
35.0381,506.53,470.63
35.0584,506.42,475.1
35.0784,507.94,479.68
35.0983,509.15,483.55
35.1184,508.92,487.24
35.1384,508.94,489.79
35.1584,509.35,492.03
35.1781,509.28,492.63
35.1983,508.62,492.9
35.2185,509.9,493.92
35.2382,510.52,496.14
35.2585,510.42,497.31
35.2784,511.33,498.25
35.2984,511.67,499.2
35.3186,512.73,500.76
35.3381,513.39,501.61
35.3581,513.31,502.09
35.3783,512.45,502.67
35.3983,513.16,503.53
35.4186,512.33,504.63
35.4383,511.26,505.5
35.4594,509.21,507.2
35.4791,507.77,507.16
35.4995,506.41,507.13
35.5194,506.13,506.9
35.5395,505.1,507.52
35.5592,505.28,508.22
35.5794,505.63,509.77
35.5994,504.9,510.62
35.6194,505.12,512.7
35.6394,505.9,530.76
35.6593,509.12,564.41
35.6794,516.29,610.12
35.6995,524.04,666.3
35.7194,532.23,719.24
35.7396,537.98,753.99
35.7595,540.39,767.79
35.7794,539.91,759.63
35.7994,537.73,737.11
35.8195,534.58,709.29
35.8395,530.27,678.83
35.8594,525.41,649.86
35.8794,521.73,623.29
35.8994,518.38,599.43
35.9191,515.91,579.55
35.9391,513.93,563.04
35.9592,512.34,549.43
35.9791,512.87,538.14
35.9992,512.3,529.11
36.0191,510.44,522.09
36.0391,512.95,517.67
36.0593,514.16,513.34
36.0792,513.53,510.07
36.0991,514.22,507.06
36.1193,513.98,506.25
36.1395,513.78,505.2
36.1593,512.63,504.56
36.1794,512.9,504.65
36.1994,511.72,506.52
36.2193,511.18,508.41
36.2395,512.54,518.53
36.2593,516.03,547.82
36.2792,519.03,574.46
36.2991,521.02,584.57
36.3191,521.42,578.65
36.3393,518.73,565.92
36.3594,516.39,550.14
36.3795,514.51,534.91
36.3991,512.01,521.53
36.4193,509.61,508.82
36.4393,506.68,499.26
36.4594,503.55,491.61
36.4794,503.04,486.89
36.4993,502.63,484.31
36.5193,502.3,483.25
36.5393,500.84,484
36.5593,501.27,485.2
36.5794,502.02,486.96
36.5994,502.22,488.37
36.6194,501.57,489.69
36.6392,501.46,491.55
36.6595,501.57,493.44
36.6793,501.65,495.55
36.6994,502.72,497.24
36.7195,503.38,498.6
36.7394,503.9,499.88
36.7591,505.12,500.1
36.7794,505.3,501.48
36.7993,505.04,502.78
36.8194,504.63,503.63
36.8394,504.9,503.3
36.8593,504.52,502.44
36.8792,505.02,502.35
36.8993,506.02,502.28
36.9194,506.01,502.03
36.9392,505.21,501.22
36.9592,505.57,500.38
36.9793,505.85,499.7
36.9991,505.88,499.56
37.0192,506.31,499.45
37.0403,506.85,499.56
37.0603,506.48,498.25
37.0802,505.78,497.2
37.1003,505.62,497.56
37.1203,506.3,496.85
37.1402,506.24,496.08
37.1602,506.79,495.86
37.1803,506.43,496.89
37.2003,506.75,497.51
37.2202,507.6,498.61
37.2403,508.68,499.09
37.2603,508.94,499.67
37.2802,508.55,500.14
37.3003,507.44,501.11
37.3203,507.75,502.09
37.3403,508.2,504.27
37.3603,507.96,495.42
37.3803,506.17,480.33
37.4003,503.14,464.07
37.4203,501.11,447.05
37.4403,494.89,432.64
37.4603,489.71,419.51
37.4803,487.37,410.41
37.5003,483.69,404.13
37.5202,481.76,401.7
37.5403,480.8,402.16
37.5603,481.24,405.33
37.5804,481.39,411.66
37.6003,482.52,418.13
37.6203,484.61,426.7
37.6403,487.09,434.56
37.6604,488.47,443.05
37.6803,490.38,450.84
37.7003,491.7,457.87
37.7202,493.56,464.5
37.7403,496.65,470.6
37.7603,498.72,475.28
37.7804,500.98,478.82
37.8002,502.78,482.46
37.8204,505.02,485.37
37.84,507.02,488.89
37.8603,506.82,491.11
37.8801,507.45,493.09
37.9003,507.36,494.27
37.9204,507.89,496.02
37.9402,508.91,497.61
37.9603,509.93,498.49
37.9801,510.74,499.79
38.0003,510.19,501.23
38.0203,510.96,502.79
38.0403,511.36,504.43
38.0602,515.29,524.74
38.0802,519.03,560.2
38.1003,527.03,607.56
38.1201,534.82,657.05
38.1405,539.46,686.64
38.1603,541.97,697.71
38.1803,542.77,692.77
38.2003,541.62,676.01
38.2201,539.69,654.61
38.24,537.16,631.89
38.2603,533.52,610.51
38.2801,530.62,591.01
38.3001,528.1,573.41
38.32,526.68,558.73
38.3401,525.14,545.98
38.3603,524.31,535.58
38.381,524.85,529.47
38.4013,526.48,525.17
38.4215,526.18,519.74
38.4422,525.55,516.59
38.4632,526.64,513.47
38.4833,527.11,511.18
38.5042,527.69,509.34
38.5241,526.75,508.27
38.5443,526.2,508.02
38.5643,525.16,507.02
38.5841,526.33,506.21
38.6043,526.46,506.37
38.6254,527.57,506.9
38.6462,528.06,508.72
38.6662,527.44,511.37
38.6862,527.56,512.5
38.7062,525.84,514.2
38.7263,526.28,514.76
38.7462,525.22,515.01
38.7662,523.98,515.01
38.7861,522.58,514.8
38.8061,521.66,513.64
38.8261,521.13,513.71
38.8463,521.11,511.97
38.866,522.08,514.78
38.8863,522.07,518.02
38.9064,522.25,519.02
38.9263,523,520.21
38.9463,522.8,520.17
38.9662,522.84,519.54
38.9862,522.27,518.83
39.0061,522.42,518.26
39.0263,523.34,518.21
39.0463,523.27,517.17
39.0663,522.21,516.74
39.0863,520.57,514.59
39.1063,520.26,513.27
39.1262,520.01,512.02
39.1463,520.4,511.41
39.1663,520.52,510.33
39.1862,521.02,510.26
39.206,521.02,509.21
39.2263,520.81,509.57
39.2463,521.05,509.66
39.2662,520.44,510.72
39.2863,518.55,505.98
39.3064,516.64,492.98
39.3263,515.11,475.59
39.3463,514.09,459.27
39.3663,512.67,443.22
39.3862,508.74,429.97
39.4063,505.79,419.18
39.4263,502.23,409.94
39.4463,500.19,401.15
39.4662,498.95,395.72
39.4861,496.36,392.98
39.506,495.89,392.38
39.5261,496.71,394.91
39.5461,498.77,397.92
39.5662,499.41,402.34
39.5862,500.93,408.67
39.6062,501.95,416.34
39.6261,503.36,424.87
39.6462,504.08,433.7
39.6662,506.07,441.76
39.6862,507.45,449.01
39.7064,509.16,456.2
39.7263,509.93,462.36
39.7463,511.34,468.69
39.7664,512.88,473.95
39.7863,513.5,478.96
39.8064,513.8,482.97
39.8262,514.04,486.18
39.8463,515.03,489.14
39.8663,515.23,491.71
39.8863,514.98,493.57
39.9063,514.98,495.46
39.9261,515.79,496.96
39.9462,515.83,498.37
39.9662,516.66,499.3
39.9862,516.13,499.24
40.0064,516.7,499.79
40.0263,515.96,500.23
40.0462,514.37,500.79
40.0661,514.1,501.63
40.0863,514.08,502.3
40.106,514.26,503.04
40.1263,515.21,517.43
40.1462,518.37,546.75
40.1662,522.09,588.4
40.1863,527.88,631.52
40.2061,532.3,668.01
40.2262,539.04,691.81
40.2462,543.03,701.85
40.266,544.23,697.08
40.2862,543.38,682.26
40.3061,542.1,664.81
40.3263,540.68,645.45
40.3461,538.75,627.96
40.366,536,612.57
40.386,532.6,597.45
40.4061,531.28,585.16
40.4262,530.22,572.73
40.4462,531.58,563.38
40.4661,531.26,554.11
40.486,530.81,546.69
40.5061,531.05,540.35
40.5262,530.64,534.88
40.5462,529.71,529.5
40.5662,527.57,525.4
40.5863,527.05,521.92
40.6062,525.04,518.94
40.626,524.24,515.75
40.6461,522.79,514.4
40.6662,522.03,512.92
40.6861,520.42,511.74
40.7073,519.14,510.59
40.7273,517.31,510.27
40.7472,515.85,510.82
40.7672,516.08,510.65
40.7872,516.06,510.32
40.807,514.05,510.26
40.827,513.24,511.21
40.8472,513.39,512.17
40.8673,513.51,512.33
40.8871,513.81,513.07
40.9073,512.05,512.45
40.9271,510.84,512.76
40.9473,510.87,514.41
40.967,511.3,515.33
40.987,511.84,516.06
41.0072,511.67,515.85
41.0275,511.14,515.48
41.0472,510.91,515.58
41.0673,510.13,514.67
41.087,508.3,513.73
41.107,507.64,513.19
41.1273,507.51,513.35
41.1472,509.21,513.48
41.1671,509.97,513.38
41.187,509.77,512.31
41.2072,510.42,511.85
41.2273,509.94,512.28
41.2472,510.75,512.42
41.2672,509.8,511.74
41.287,509.64,511.39
41.3072,506.51,500.11
41.3272,501.61,481.29
41.3472,494.69,461.43
41.3672,488.35,443.35
41.3871,482.88,428.08
41.4073,477.3,414.46
41.4272,473.64,402.97
41.4473,470.91,394.17
41.4672,470.13,389.34
41.487,470.11,387.27
41.5072,470.68,389.42
41.5272,472.35,393.73
41.547,477.48,399.39
41.5673,480.58,406.91
41.5871,484.07,415.93
41.6082,486.65,424.54
41.6282,488.72,433.43
41.6482,491.18,441.55
41.6682,493.14,449.64
41.688,494.51,457.11
41.7083,496.61,463.49
41.7281,497.49,469.39
41.7482,498.39,474.31
41.768,500.51,479.25
41.7881,500.81,483.6
41.808,501.25,487.48
41.8282,501.4,491.38
41.8482,501.72,494.71
41.8681,502.98,496.77
41.8882,503.38,498.81
41.9082,503.9,500.45
41.9283,505.12,502.36
41.9482,505.5,503.49
41.9681,504.8,504.79
41.9882,505.24,505.83
42.0082,505.99,506.47
42.028,506.59,506.57
42.0483,505.67,506.66
42.0683,507.34,507.33
42.0882,507.07,507.86
42.108,506.66,508.29
42.128,507.93,508.63
42.1482,508.14,509.5
42.1681,507.91,509.8
42.1883,508.33,510.44
42.2083,508.66,510.15
42.2282,509.53,511.32
42.2482,509.62,511.86
42.2682,510.5,512.29
42.288,511,517.03
42.3092,514.6,538.82
42.3293,519.48,565.26
42.3494,525.58,603.21
42.3692,533.47,635.17
42.389,541.37,664.53
42.409,548.7,680.63
42.4294,553.76,684.7
42.4492,554.61,676.76
42.4693,552.89,661.81
42.4893,550.11,644.05
42.5094,545.89,627.04
42.5293,542.91,611.63
42.5492,539.73,598.7
42.5692,535.58,585.96
42.5893,532.47,575.77
42.609,529.57,567.62
42.6292,526.86,559.29
42.6492,524.49,551.43
42.6691,521.79,545.75
42.6892,521.03,540.6
42.7092,520.43,536.28
42.7292,519.14,532.22
42.7492,519.11,528.38
42.7691,517.29,525.3
42.789,515.83,522.84
42.8092,515.27,520.47
42.8292,513.21,519.18
42.8492,512.57,518.14
42.8692,512.06,516.51
42.8892,511.64,516.01
42.9093,511.12,514.21
42.9292,511.89,513.17
42.9492,511.31,512.73
42.9689,510.65,512.19
42.989,512.12,512.35
43.0091,513.5,511.88
43.0292,514.8,510.7
43.0491,513.04,510.16
43.0691,513.23,509.53
43.0893,513.58,509.62
43.1091,514.47,508.5
43.1291,513.37,508.8
43.1492,514.1,508.64
43.1692,514.68,508.71
43.1894,515.14,508.37
43.2093,514.31,508.3
43.2292,515.25,508.24
43.2492,515.6,507.99
43.2692,516.28,508.59
43.2892,516.62,508.67
43.3091,516.9,509.14
43.3292,516.32,509.11
43.3493,515.26,508.69
43.3692,515.2,508.15
43.3893,513.36,507.52
43.4089,513.49,507.22
43.4292,513.99,507.17
43.4492,515.59,507.74
43.4691,515.08,508.19
43.4893,514.26,504.55
43.509,511.61,492.64
43.5292,507.49,475.31
43.5492,501.19,458.65
43.5691,495.35,443.12
43.5892,490.88,429.7
43.6092,486.9,419.56
43.629,483.52,411.45
43.6501,482.22,406.36
43.67,481.38,402.89
43.6902,482.3,401.31
43.7099,484.44,401.25
43.7302,486.35,403.8
43.7501,488.68,406.64
43.7699,490.75,412.11
43.7899,493,419.49
43.81,495.2,425.99
43.83,497.56,433.79
43.8512,501.45,441.63
43.8712,503.96,448.31
43.8911,506.37,454.45
43.9112,507.69,460.76
43.9312,509.55,466.01
43.9512,512.04,471
43.9709,513.63,474.8
43.9913,515.71,478.44
44.011,516.97,482.75
44.0312,518.77,485.6
44.0512,520.22,488.48
44.071,520.37,490.99
44.0913,520.3,493.19
44.1112,520.64,494.75
44.1311,520.71,496.2
44.1512,520.77,497.36
44.171,520.82,498.29
44.1912,520.25,499.43
44.211,520.6,500.14
44.2311,520.68,501.32
44.2512,522.35,502.25
44.2709,523.08,503.2
44.2912,523.06,503.56
44.3112,522.65,504.25
44.3312,522.32,504
44.3512,524.06,510.6
44.371,527.64,524.68
44.3922,531.52,548.54
44.4121,536.81,583.43
44.4321,541.25,620.55
44.4522,547.2,646.04
44.4722,553.36,662.83
44.4922,560.49,670.46
44.5122,564.19,667.97
44.5322,564.35,657.78
44.5522,562.88,642.42
44.5723,560.51,627.14
44.5921,558.2,611.31
44.6122,554.96,596.25
44.6321,552.97,583.6
44.6522,550.18,571.88
44.672,547.34,562.5
44.692,545.67,554.4
44.7122,543.54,547.12
44.7322,541.03,541.1
44.7521,538.82,536.68
44.7723,537.46,533.54
44.7922,534.77,529.03
44.8122,534.01,526.03
44.8322,533.01,522.02
44.8521,532.61,520.22
44.8722,531.09,519.37
44.8921,531.07,518.7
44.9122,532.46,516.56
44.9322,531.76,515.85
44.9522,533.21,514.68
44.9719,531.77,513.74
44.9921,530.82,513.59
45.0122,529.65,512.08
45.0321,530.12,511.46
45.052,529.9,511.77
45.0722,530.32,511.01
45.0921,529.45,510.01
45.1123,529.36,510.81
45.1322,528.69,510.05
45.1521,527.95,509.84
45.1721,527.56,510.47
45.1923,527.45,510.38
45.2122,527.76,510.3
45.232,527.61,510.44
45.2523,528.49,509.75
45.2722,528.59,509.2
45.2921,527.67,509.96
45.3119,527.94,510.97
45.3321,528.95,510.58
45.3518,529.16,510.66
45.372,528.33,510.73
45.3921,527.26,510.58
45.4118,526.81,509.87
45.4321,526.65,509.89
45.4521,526.72,510.11
45.4719,525.77,510.09
45.4921,525.02,511.27
45.5122,525.42,512.02
45.532,525.53,511.21
45.5521,526.43,510.57
45.5719,526.34,511.26
45.5919,527.07,511.01
45.6121,526.26,510.2
45.6322,526.81,510.76
45.6522,528.05,511.21
45.6722,527.44,510.37
45.6922,525.55,502.7
45.7122,517.84,488.16
45.7322,511.07,471.52
45.752,503.46,455.02
45.7722,497.57,438.22
45.7919,492.85,423.17
45.8122,488.68,410.94
45.8322,484.15,402.15
45.8523,481.12,396.52
45.8722,479.09,394.42
45.8922,479.67,394.73
45.9122,483.34,397.39
45.9321,485.07,402.51
45.9522,488.26,409.61
45.9721,490.81,418.89
45.9921,494.64,427.71
46.0121,495.92,435.77
46.032,498.93,443.21
46.0522,499.95,450.37
46.0721,502.56,457.9
46.0922,505.85,464.52
46.1122,509.08,470.01
46.1321,511.66,474.41
46.1521,513.13,478.33
46.1722,514.7,481.46
46.192,514.96,484.97
46.2121,515.97,488.18
46.2321,517.18,490.74
46.2521,517.34,492.79
46.2719,517.47,495.03
46.2919,518.38,497.23
46.3119,518.3,499.38
46.332,518.44,500.91
46.3521,517.95,501.32
46.3722,518.76,502.46
46.3922,518.81,503.77
46.4121,518.05,503.61
46.4321,518.24,504.09
46.4521,518.79,507.87
46.4721,522.43,527.5
46.4921,524.95,552.4
46.5121,529.96,584.12
46.5322,537.17,616.3
46.5522,544.73,640.84
46.5723,554.59,657.47
46.5921,563.27,667.98
46.6122,569.61,669.98
46.6321,571.69,662.38
46.652,570.75,647.91
46.6722,568.8,632.53
46.6921,565.84,617.42
46.7121,561.27,602.94
46.7321,558.42,590.95
46.7521,555.34,579.56
46.7721,552.07,570.85
46.7921,548.85,561.08
46.8121,544.88,552.66
46.8321,541.91,543.13
46.8519,538.13,538.1
46.872,534.7,534.48
46.892,532.76,531.39
46.9122,530.01,528.31
46.9322,528.61,525.25
46.9521,527.09,521.8
46.9721,526.27,518.64
46.9921,525.61,515.51
47.0122,525.09,512.81
47.0318,524.27,512.25
47.0521,523.02,511.8
47.0719,522.41,510.44
47.0922,520.93,508.95
47.112,521.35,508.56
47.1322,521.68,508.05
47.1521,520.74,508.44
47.172,520.19,507.15
47.193,519.95,506.92
47.2129,519.16,506.94
47.2329,518.13,508.15
47.253,517.5,509.32
47.2729,516.8,510.06
47.2928,516.04,510.24
47.313,516.63,511.6
47.3331,516.91,512.08
47.353,516.73,511.46
47.373,516.58,511.97
47.3931,516.26,512.58
47.4128,516.01,512.86
47.433,517.21,513.29
47.4531,517.77,513.63
47.473,517.21,512.7
47.4931,515.97,512.36
47.5129,514.98,511.69
47.5329,513.18,512.55
47.553,511.75,512.64
47.5729,511.2,512.71
47.5931,510.76,512.37
47.613,509.21,512.7
47.633,509.16,512.96
47.653,509.53,512.37
47.6728,510.83,513.09
47.6931,508.46,506.27
47.7132,505.57,492.62
47.7331,501.85,475.3
47.7529,496.28,458.84
47.7732,490.23,443.07
47.7931,485.38,430.06
47.813,481.51,418.24
47.8331,478.6,411.6
47.8531,476.88,405.68
47.8731,476.91,402.94
47.8931,476.93,401.75
47.913,477.94,402.4
47.933,478.75,405.32
47.953,477.8,408.46
47.9731,477.84,414.17
47.9932,478.87,420.33
48.0131,481.1,426.87
48.0331,483.48,433.49
48.053,486.38,440.19
48.0731,489.11,446.76
48.0932,491.49,452.4
48.1132,493.19,457.52
48.1331,493.95,462.22
48.1531,495.96,467.78
48.173,496.77,472.82
48.1931,498.41,477.26
48.213,499.33,481.8
48.2331,500.07,485.84
48.253,500.45,488.88
48.273,500.56,491.9
48.2931,500.05,494.52
48.3131,500.64,497.42
48.3331,500.31,499.53
48.353,500.05,502.23
48.373,501.24,503.78
48.3931,502.19,504.02
48.4131,502.75,504.62
48.433,502.8,505.3
48.4532,503.24,507.04
48.473,502.79,507.83
48.4931,503.43,508.26
48.5132,503.35,508.01
48.5328,503.88,508.41
48.5528,503.3,508.73
48.5728,503.84,509.18
48.593,504.47,509.35
48.613,505.38,509.48
48.6331,504.3,509.38
48.653,504.24,508.7
48.6729,505.39,508.96
48.6932,506.12,518.57
48.7131,509.69,544.66
48.7329,513.95,581.13
48.753,521.76,622.3
48.7731,529.01,656.04
48.7931,537.81,675.03
48.8131,543.25,685.83
48.8328,547.2,687.46
48.8531,549.36,676.97
48.8729,549.29,661.57
48.8931,547.23,642.86
48.9132,543.78,623.49
48.9331,540.43,605.39
48.9531,536.94,588.91
48.973,534.55,575.33
48.9931,531.04,563.86
49.0131,528.23,553.89
49.0331,526.19,545.11
49.0532,523.95,537.49
49.073,521.16,532.59
49.093,519.53,527.87
49.113,516.62,524.1
49.1331,515.9,521.88
49.1531,513.92,520.3
49.173,514.93,519.04
49.193,514.75,518.03
49.213,515.2,517.23
49.2331,515.36,515.78
49.253,513.69,514.43
49.273,513.75,513.14
49.2929,513,512.51
49.313,512.4,512.61
49.3329,511.72,512.09
49.3529,512.78,511.47
49.3729,510.82,510.78
49.393,510.66,511.82
49.413,509.93,512.46
49.4329,509.34,511.97
49.4531,509.07,512.37
49.4729,508.86,511.1
49.4929,508.29,510.68
49.5131,508.43,510.54
49.5329,508.54,509.63
49.553,508.43,509.71
49.5729,507.75,510.37
49.593,507.2,510.49
49.6131,507.56,510.19
49.6329,507.05,509.16
49.653,506.84,510.12
49.673,505.67,509.5
49.6931,505.54,510.8
49.7131,504.43,512.84
49.733,505.34,521.07
49.7531,508.07,537.66
49.7729,516.26,565.73
49.7931,523.81,592.38
49.813,530.65,612.9
49.8329,533.92,619.72
49.8529,532.33,613.38
49.873,526.27,595.5
49.893,518.81,567.4
49.9129,509.45,536.92
49.933,502.56,510.34
49.953,496.85,488.07
49.9729,493.88,471.26
49.9929,491.3,460.6
50.0128,491.04,455.88
50.0328,490.83,459.31
50.0528,491.27,481.25
50.0729,496.61,518.4
50.0929,503.09,557.32
50.1129,508.27,587.45
50.133,513.62,602.96
50.1531,518.09,606.17
50.173,519.48,594.94
50.194,519.18,574.55
50.214,517.14,552.24
50.234,513.92,531.19
50.2538,511.93,514.15
50.2741,512.95,505.12
50.294,515.56,504.5
50.314,520.65,515
50.334,526.32,534.2
50.3538,531.65,559.56
50.374,536.12,580.65
50.3938,535.9,582.32
50.4139,532.52,570.05
50.4339,526.21,550.04
50.4539,520.77,528.23
50.4739,515.02,506.79
50.494,511.01,488.83
50.514,506.81,475.26
50.5339,505.65,469.01
50.5539,505.12,473.01
50.574,507.3,491.61
50.5938,511.64,520.29
50.614,513.91,535.23
50.6339,513.73,533.58
50.654,513.98,523.67
50.674,512.99,511.13
50.6939,511.79,496.11
50.7141,509.03,481.09
50.734,507.22,471.07
50.7539,505.78,464.65
50.7738,505.62,469.52
50.7939,509.3,492.22
50.814,512.44,523.78
50.8338,514.95,545.22
50.854,515.16,547.58
50.874,513.73,539.06
50.894,511.38,525.05
50.914,509.71,509.44
50.934,508.17,493.35
50.9539,507.53,480.48
50.9739,506.03,469.78
50.994,504.82,461.63
51.0139,503.66,455.9
51.034,503.33,451.72
51.0538,503.26,450.18
51.074,504.41,450.94
51.0939,506.33,452.15
51.114,507.86,454.72
51.1339,509.89,458.58
51.1538,506.11,454.26
51.1741,496.29,438.01
51.194,485.63,423.41
51.214,481.1,417.93
51.2339,479.28,418.74
51.254,479.03,419.59
51.2741,482.22,423.07
51.294,485.58,427.86
51.3142,488.46,436.49
51.334,491.37,445.99
51.3538,493.5,453.39
51.3741,495,460.11
51.394,499.2,467.09
51.4139,501.96,472.67
51.434,505.97,478.54
51.4539,509.17,482.83
51.474,510.94,486.66
51.4938,511.75,489.53
51.5139,511.2,491.23
51.5339,512.36,495.78
51.5539,514.89,497.82
51.5738,516.51,496.06
51.5941,516.61,491.45
51.614,517.09,485.56
51.634,517.67,485.65
51.6538,517.14,487.32
51.674,518.91,490.25
51.6938,520.93,489.2
51.714,519.54,491.56
51.7339,520.43,493.05
51.7539,521.55,498.04
51.7739,524.64,499.83
51.795,522.51,498.07
51.8149,522.61,501.05
51.835,527.29,505.24
51.8551,527.43,509.19
51.875,529.54,512.35
51.895,531.03,514.48
51.915,532.83,515.99
51.9349,534.46,517.39
51.955,535.77,519.11
51.975,534.42,518.69
51.995,533.33,518.15
52.015,534.47,518.72
52.035,532.17,520.18
52.0548,531.14,520.54
52.075,532.31,519.63
52.095,532.05,519.71
52.115,530.64,517.77
52.135,530.31,518.01
52.1548,528.05,515.41
52.1748,527.84,515.93
52.195,526.87,516.54
52.215,525.7,518.03
52.235,524.16,519.03
52.2549,523.93,519.62
52.2749,524.94,519.5
52.2948,524.95,520
52.3148,523.96,520.4
52.3349,528.17,520.92
52.3548,530.74,521.73
52.3759,531.79,523.59
52.396,531.63,524.07
52.4159,533.9,525.86
52.4359,533.32,524.29
52.4559,533.06,526.23
52.476,533.45,527.78
52.4958,534.56,529.03
52.516,533.65,529.82
52.536,533.32,531.26
52.556,532.45,531.81
52.576,532.16,526.84
52.5959,527.53,520.08
52.6159,524.02,514.66
52.6359,526.82,513.73
52.656,524.66,513.58
52.676,521.72,513.67
52.696,521.58,515.53
52.716,522.46,511.23
52.736,522.37,510.78
