Program Time [s],data 0,data 1
4.74002,477.42,544.31
4.75995,478.93,546.05
4.77969,478.95,547.04
4.79968,478.96,545.43
4.81974,480.37,545.95
4.84103,480.89,544.76
4.86093,480.11,545
4.88081,479.29,543.8
4.90071,478.23,542.84
4.92065,478.99,542.07
4.94064,478.19,541.06
4.96063,477.15,540.05
4.98067,475.92,539.84
5.0018,475.34,541.47
5.02177,474.27,542.38
5.04192,473.42,542.9
5.06279,472.53,542.52
5.08275,471.83,543.02
5.10282,471.46,542.21
5.12274,469.37,541.17
5.14282,470.09,540.34
5.16271,470.08,539.27
5.18279,470.26,539.02
5.20281,471.81,539.01
5.22285,472.25,537.81
5.24287,468.6,533.85
5.26377,468.28,530.68
5.28384,468.42,528.74
5.30372,468.14,526.59
5.3239,466.71,524.68
5.3438,466.57,524.14
5.3638,465.85,525.31
5.38379,466.28,527.25
5.40378,467.43,527.6
5.42398,465.14,529.48
5.44381,463.51,529.78
5.46386,462.21,531.03
5.48378,462.17,532.82
5.50383,462.33,533.26
5.52381,462.47,535.01
5.54379,463.77,534
5.56382,464.62,533.2
5.58381,465.7,532.56
5.60381,467.56,531.25
5.62389,469.45,532
5.64389,470.36,531.6
5.66383,469.88,530.48
5.68363,469.91,530.18
5.70383,469.93,528.95
5.72386,470.34,528.36
5.74381,470.07,527.89
5.76378,469.86,528.51
5.78377,469.09,529.81
5.8038,467.07,531.25
5.82398,465.66,533
5.84381,464.92,534
5.86377,464.94,535.4
5.88377,465.15,536.92
5.90375,464.72,538.73
5.92375,465.98,541.79
5.9438,466.98,543.83
5.96383,467.59,545.06
5.98381,468.67,545.85
6.0037,470.33,544.68
6.02391,470.67,543.94
6.04366,473.33,542.96
6.06376,473.47,541.36
6.08382,474.17,538.29
6.10377,473.94,535.83
6.12396,474.75,533.67
6.1438,474.8,535.33
6.16378,473.04,546.07
6.18377,471.03,559.85
6.20378,467.03,572.08
6.2239,465.82,575.67
6.24371,465.06,575.13
6.26376,464.65,571.51
6.28385,463.72,568.01
6.30384,463.17,563.6
6.32404,462.34,559.08
6.34379,462.87,554.07
6.36383,461.9,549.85
6.38394,463.52,546.88
6.40389,465.01,544.11
6.42403,465.61,541.68
6.44385,467.89,540.15
6.46385,468.11,537.32
6.48387,468.69,536.45
6.50384,468.75,535.96
6.52385,468.6,535.97
6.54374,468.88,534.58
6.5638,469.1,535.66
6.58367,468.88,535.93
6.60367,470.11,535.14
6.62363,470.89,535.51
6.64365,471.31,535.01
6.66385,470.85,534.21
6.6837,471.28,533.17
6.70376,471.42,532.73
6.72373,472.14,532.79
6.74378,471.71,532.03
6.76381,471.37,531.42
6.7837,471.09,531.34
6.80388,472.48,530.07
6.82477,471.98,529.86
6.84475,470.78,530.09
6.86472,470.43,527.07
6.88487,470.34,515.85
6.90476,471.07,499.88
6.92476,470.06,481.71
6.94478,468.65,462.97
6.96452,467.52,446.17
6.98479,466.41,434.54
7.00474,466.93,427.83
7.02484,466.55,424.46
7.04488,465.04,424.77
7.06483,463.43,429.22
7.0848,463.74,436.37
7.10493,464.19,443.7
7.12486,463.96,451.16
7.14473,464.56,459.53
7.16467,464.05,467.02
7.18472,465.44,474.22
7.20461,466.35,481.37
7.22474,467.08,488.3
7.24558,467.67,495.24
7.26555,467.73,500.79
7.28568,467.59,506.63
7.30556,468.47,511.51
7.3259,468.98,514.61
7.34586,469.38,518.28
7.36584,469.5,520.63
7.38566,469.8,523.3
7.40565,470.44,525.24
7.42587,471.75,527.39
7.44574,470,529.51
7.46589,470,532.01
7.48579,470,534.01
7.50584,470,535.61
7.52601,470.8,536.69
7.54584,470.24,537.75
7.56568,469.99,537.8
7.58579,469.39,537.64
7.60574,469.72,537.71
7.62579,470.57,536.97
7.64582,470.66,535.98
7.66568,470.93,535.18
7.68587,470.74,535.74
7.70574,470.19,535.2
7.72576,469.95,534.96
7.74578,469.96,543.57
7.76568,472.57,564.65
7.78581,475.46,600.72
7.80576,478.37,644.18
7.82575,482.29,672.94
7.84587,482.83,690.55
7.86575,481.67,693.64
7.88571,479.53,686.51
7.90572,477.23,672.41
7.92581,475.78,656.13
7.94582,473.63,638.9
7.96586,471.9,623.72
7.9858,471.52,610.78
8.00579,471.62,600.02
8.02588,471.49,590.62
8.04585,470.59,581.09
8.06576,470.28,574.08
8.08578,470.22,569.06
8.10601,470.78,563.85
8.12562,470.62,560.68
8.14578,470.3,557.94
8.16575,470.04,554.55
8.18577,469.83,553.04
8.20564,470.46,549.83
8.22673,471.37,549.47
8.24688,472.5,548.77
8.2668,472,546.62
8.28693,473,545.7
8.30658,474.6,546.16
8.32657,474.68,545.93
8.34675,473.74,546.94
8.36683,473.99,547.35
8.38676,474,546.88
8.40689,473.8,546.11
8.42657,473.24,545.48
8.44678,474.19,544.59
8.46682,473.75,545.27
8.48682,473.8,545.42
8.50689,474.04,545.73
8.52659,474.63,545.99
8.5468,475.31,546.99
8.56693,475.05,546.99
8.58686,475.04,546.59
8.60656,474.23,546.27
8.6267,474.38,546.22
8.64677,474.31,545.38
8.66675,475.05,545.3
8.68672,475.44,545.44
8.70672,475.35,543.95
8.72679,474.28,543.36
8.7466,473.82,542.89
8.76677,474.06,540.91
8.78675,474.25,540.33
8.80671,473.6,540.46
8.82675,472.68,539.77
8.84665,472.74,541.22
8.86669,472.79,534.57
8.88674,471.84,522.46
8.90665,470.07,504.57
8.92665,468.45,483.85
8.94675,465.36,462.08
8.96677,461.69,443.67
8.98677,459.75,431.33
9.0069,459.2,424.67
9.02665,459.16,421.93
9.04676,459.93,422.75
9.06674,460.34,427.4
9.08678,461.47,434.32
9.10678,463.38,443.05
9.12672,464.5,451.84
9.14677,466.2,461.27
9.16679,466.36,470.42
9.18661,467.09,478.94
9.20679,468.07,487.35
9.22673,470.26,495.08
9.24675,470.21,501.26
9.26678,471.56,507.21
9.28681,471.85,512.97
9.30691,472.28,517.37
9.32681,472.83,521.9
9.34666,472.26,525.32
9.36662,472.01,529.26
9.38662,472.61,532
9.40679,473.09,533.6
9.42671,472.87,535.48
9.44679,473.09,536.59
9.46682,472.48,538.47
9.48678,472.58,539.38
9.5068,472.86,539.9
9.52661,473.29,540.32
9.54662,473.83,541.66
9.56655,474.87,541.92
9.5868,474.09,542.14
9.60662,476.27,542.91
9.62671,477.42,546.73
9.64658,478.14,551.18
9.66779,478.71,553.95
9.68749,478.77,554.36
9.70769,477.81,554.89
9.72772,479.05,553.91
9.74776,479.64,553.53
9.76875,479.51,552.62
9.78965,479.21,561.3
9.80967,481.57,585.64
9.82966,484.65,616.71
9.84983,487.52,644.57
9.86967,489.82,669.05
9.88969,491.26,688.04
9.90955,491.2,692.23
9.92971,491.56,686.79
9.94974,490.65,674.03
9.96976,488.12,659.02
9.98972,486.7,644.82
10.0097,485.96,630.66
10.0298,485.37,618.12
10.0497,484.09,606.7
10.0696,484.27,598.36
10.0898,483.82,590.89
10.1097,482.06,583.71
10.1297,480.44,578.57
10.1498,479.16,573.65
10.1696,479.12,569.52
10.1897,478.9,565.22
10.2097,478.32,561.98
10.2296,478.26,559.58
10.2497,477.6,557.86
10.2697,476.88,556.49
10.2897,477.11,554.59
10.3099,476.29,552.07
10.3297,475.83,551.06
10.3497,474.66,549.85
10.3697,473.93,549.48
10.3896,472.94,549.18
10.4097,473.16,548.75
10.4295,473.92,548
10.4497,473.74,547.8
10.4696,473.99,547.44
10.4898,472.99,545.75
10.5096,471.79,545
10.5295,471.24,545
10.5497,471.19,545.2
10.5698,471.55,545.16
10.5897,471.04,545.13
10.6097,470.83,544.7
10.6298,470.87,543.96
10.6498,471.49,544.17
10.6697,471.59,543.94
10.6897,471.88,543.35
10.7097,472.9,542.88
10.7296,473.32,541.9
10.7496,474.26,542.12
10.7697,474.6,543.3
10.7896,475.08,547.44
10.8097,475.47,547.35
10.8296,474.97,541.28
10.8497,474.38,530.42
10.8695,471.3,515.94
10.8897,469.44,499.95
10.9098,467.75,484.96
10.9297,466.8,470.77
10.9496,464.44,458.22
10.9697,463.75,446.77
10.9895,463.2,438.42
11.0098,463.16,432.33
11.0298,462.53,429.47
11.0497,462.62,430.37
11.0697,464.1,433.7
11.0895,463.88,438.16
11.1096,465.3,443.53
11.1295,465.84,449.62
11.1496,466.47,456.9
11.1695,466.78,465.32
11.1897,467.02,473.45
11.2097,468.22,481.56
11.2297,469.18,488.65
11.2495,469.34,496.72
11.2697,468.87,502.38
11.2896,469.9,507.3
11.3097,469.12,511.64
11.3296,469.49,516.31
11.3497,470.6,520.05
11.3696,470.08,523.04
11.3896,470.86,525.83
11.4098,470.89,528.07
11.4297,470.31,530.05
11.4497,471.05,531.64
11.4697,471.44,533.11
11.4895,471.55,534.29
11.5097,472.04,535.43
11.5297,471.83,536.55
11.5497,471.67,537.64
11.5697,471.53,537.51
11.5896,471.83,538.41
11.6096,472.86,539.33
11.6296,473.49,539.86
11.6498,473.79,539.29
11.6696,474.03,539.83
11.6897,473.83,539.66
11.7097,473.06,539.93
11.7297,472.85,540.35
11.7497,471.68,540.88
11.7697,471.54,541.1
11.7898,471.03,541.28
11.8096,472.23,540.82
11.8295,472.38,542.06
11.8497,472.51,558.05
11.8697,475,584.84
11.8895,478.4,619.47
11.9095,479.52,652.78
11.9295,479.42,681.62
11.9495,479.13,703.3
11.9696,478.31,713.44
11.9897,478.25,709.75
12.0107,477.8,696.4
12.0307,477.24,677.72
12.0507,476.59,659.78
12.0706,475.27,641.02
12.0906,473.82,624.42
12.1118,471.45,611.13
12.1317,471.16,598.31
12.1516,470.33,587.65
12.1717,470.86,579.52
12.1916,470.09,573.61
12.2127,469.27,567.09
12.2324,469.42,562.27
12.2526,469.53,557.62
12.2727,468.83,553.89
12.2924,469.86,551.72
12.3125,469.69,548.77
12.3327,470.15,548.22
12.3527,470.72,546.77
12.3727,470.78,544.22
12.3929,471.22,542.78
12.4127,471.98,541.62
12.4337,473.98,539.9
12.4537,474.39,538.92
12.4737,474.91,536.33
12.4938,474.93,536.27
12.5137,474.54,536.01
12.5336,474.83,535.01
12.5537,473.07,535.01
12.5735,472.85,534.81
12.5937,472.88,534.45
12.6137,473.31,535.16
12.6337,472.44,534.93
12.6534,472.76,536.14
12.6738,471.4,535.71
12.6937,472.12,535.37
12.7137,472.3,535.7
12.7337,471.64,535.76
12.7538,471.31,535.41
12.7736,470.05,535.12
12.7946,470.64,535.5
12.8145,470.31,536.2
12.8347,470.85,536.96
12.8545,470.48,536.37
12.8746,469.98,531.09
12.8946,470.59,527.68
12.9147,469.87,525.94
12.9347,470.1,524.55
12.9546,470.08,524.04
12.9744,470.06,524.63
12.9945,470.45,527.11
13.0147,470.56,529.29
13.0347,470.45,529.63
13.0545,470.96,531.1
13.0747,471.77,532.08
13.0945,472.01,531.87
13.1147,472.61,533.09
13.1347,473.69,531.87
13.1546,474.15,526.9
13.1747,473.32,517.92
13.1947,472.46,506.94
13.2146,470.17,493.55
13.2346,468.73,479.84
13.2546,468.19,468.87
13.2747,465.95,458.9
13.2945,463.36,451.52
13.3146,461.49,445.21
13.3347,460.39,441.57
13.3546,459.91,440.06
13.3746,459.13,441.85
13.3945,459.9,444.48
13.4146,460.52,447.38
13.4345,462.22,451.7
13.4546,463.77,458.56
13.4747,466.02,465.25
13.4947,467.42,472.2
13.5147,468.93,478.96
13.5348,468.95,485.77
13.5546,468.96,492.41
13.5747,469.77,497.73
13.5946,469.61,502.99
13.6146,470.29,507.79
13.6346,470.43,511.63
13.6545,470.35,514.5
13.6746,469.48,517
13.6946,469.38,520
13.7145,469.1,522.2
13.7345,469.48,523.96
13.7546,470.59,524.37
13.7746,473.47,526.7
13.7956,474.58,528.56
13.8156,476.06,530.05
13.8357,477.45,531.64
13.8555,477.16,533.11
13.8758,477.33,534.09
13.8957,477.46,534.27
13.9155,476.57,535.22
13.9357,476.06,535.57
13.9555,474.44,536.66
13.9756,474.16,537.13
13.9964,474.32,538.3
14.0167,474.26,539.64
14.0365,474.81,540.71
14.0564,474.65,540.77
14.0764,474.72,542.62
14.0966,474.97,544.69
14.1164,474.58,544.95
14.1366,475.86,545.36
14.1567,475.49,545.69
14.1765,476.19,544.95
14.1967,476.55,543.96
14.2166,475.44,542.77
14.2366,475.35,542.02
14.2565,475.88,540.61
14.2767,475.31,540.29
14.2964,477.25,547.23
14.3166,479.6,571.19
14.3375,481.08,602.75
14.3576,481.26,634
14.3775,480.61,659.4
14.3975,480.09,675.92
14.4177,481.07,689.14
14.4377,481.26,692.71
14.4575,482,687.17
14.4775,482,673.33
14.4977,482.2,658.47
14.5177,481.56,642.57
14.5376,480.45,627.46
14.5578,478.96,613.77
14.5777,476.97,603.41
14.5976,475.97,594.53
14.6177,474.98,584.62
14.6376,474.78,578.7
14.6577,475.03,572.16
14.6775,475.42,567.53
14.6975,474.54,563.22
14.7174,477.63,560.58
14.7376,479.1,557.26
14.7576,479.48,554.81
14.7775,478.59,553.45
14.7977,478.67,550.16
14.8174,478.34,547.93
14.8376,478.47,546.54
14.8575,478.57,545.43
14.8777,479.26,544.15
14.8977,479.81,543.72
14.9186,478.25,542.57
14.9385,477,542.66
14.9587,476.4,542.13
14.9787,475.92,540.9
14.9986,475.33,541.32
15.0186,475.27,542.06
15.0386,475.41,540.65
15.0586,475.53,541.12
15.0786,474.82,542.09
15.0987,474.66,541.87
15.1186,474.93,540.7
15.1386,475.74,540.76
15.1585,475.99,540.81
15.1785,475.8,541.05
15.1988,474.84,541.24
15.2185,474.67,541.59
15.2384,474.54,541.47
15.2587,474.23,539.98
15.2785,471.78,535.58
15.2985,468.83,527.47
15.3186,464.26,516.77
15.3385,460.21,504.82
15.3586,456.57,492.25
15.3785,454.05,480.8
15.3984,451.84,470.64
15.4184,453.07,461.51
15.4386,454.26,455.01
15.4587,457.81,449.81
15.4785,460.45,445.65
15.4986,463.76,441.92
15.5184,466.01,440.93
15.5384,467.8,441.55
15.5586,471.84,443.84
15.5785,474.07,446.87
15.5985,476.26,451.1
15.6185,477.21,456.08
15.6385,478.77,462.66
15.6586,479.81,469.13
15.6785,479.65,475.7
15.6986,480.32,481.96
15.7187,479.66,488.57
15.7386,480.13,494.26
15.7586,478.5,500
15.7785,479,505.8
15.7985,478.8,510.04
15.8184,478.04,514.23
15.8386,476.63,517.39
15.8588,476.11,522.31
15.8786,475.68,527.85
15.8986,476.15,532.48
15.9186,476.32,535.58
15.9386,476.45,538.47
15.9585,476.56,539.77
15.9785,476.05,540.42
15.9986,475.04,541.53
16.0185,474.43,542.23
16.0385,474.35,541.98
16.0586,475.28,541.79
16.0786,475.62,541.03
16.0986,475.5,541.02
16.1186,476,541.02
16.1385,476.4,542.01
16.1586,475.32,543.21
16.1786,473.85,545.77
16.1986,474.88,547.22
16.2187,474.11,547.77
16.2385,473.89,548.02
16.2587,474.11,548.21
16.2786,473.89,548.57
16.2986,473.51,547.46
16.3186,472.81,546.17
16.3386,472.25,545.13
16.3587,471.8,544.11
16.3786,472.44,543.08
16.3986,472.75,542.27
16.4186,473.6,540.61
16.4385,473.88,538.69
16.4586,474.7,536.95
16.4786,473.56,535.56
16.4987,473.05,533.85
16.5186,472.24,532.88
16.5386,471.99,532.1
16.5586,471.39,532.28
16.5786,472.32,532.03
16.5987,472.25,532.42
16.6187,472.2,533.34
16.6384,471.96,534.07
16.6585,471.77,534.26
16.6784,471.82,534
16.6984,472.05,535.4
16.7186,472.64,536.32
16.7383,471.91,536.06
16.7586,471.33,536.05
16.7785,471.26,535.44
16.7985,471.61,545.35
16.8183,474.69,570.08
16.8385,476.95,605.06
16.8597,478.56,641.05
16.8796,478.65,669.04
16.8996,477.92,686.03
16.9196,477.94,687.83
16.9394,476.95,680.86
16.9597,476.36,669.09
16.9796,475.09,653.27
16.9994,474.67,639.02
17.0195,473.74,624.21
17.0393,473.59,612.57
17.0595,472.67,600.66
17.0795,472.54,590.93
17.0994,471.83,583.34
17.1194,470.66,575.67
17.1395,469.93,568.94
17.1596,469.14,561.15
17.1795,471.72,556.52
17.1995,472.97,551.62
17.2195,474.18,548.69
17.2396,473.94,545.55
17.2596,472.35,543.24
17.2796,471.88,539.99
17.2995,471.51,538.6
17.3195,471.81,538.68
17.3395,471.24,535.94
17.3603,470.2,534.55
17.3807,470.16,534.44
17.4005,469.93,534.55
17.4204,469.74,533.84
17.4414,469.39,531.27
17.4614,469.31,532.02
17.4815,469.25,531.42
17.5014,469.8,531.13
17.5214,469.64,531.11
17.5415,470.31,531.88
17.5614,470.45,533.11
17.5815,470.36,537.29
17.6015,469.69,537.23
17.6215,470.35,532.38
17.6416,470.48,522.11
17.6616,469.78,508.69
17.6815,469.63,495.15
17.7016,468.3,482.12
17.7214,468.44,471.09
17.7414,467.35,461.28
17.7615,466.48,453.22
17.7814,465.39,445.98
17.8015,464.11,440.58
17.8213,465.29,436.26
17.8416,465.63,435.01
17.8617,466.5,436.81
17.8813,468,438.65
17.9013,467,442.52
17.9214,465.8,448.21
17.9426,465.24,453.77
17.9625,464.79,461.02
17.9826,465.83,468.41
18.0025,466.47,474.93
18.0224,466.17,481.14
18.0424,466.34,486.92
18.0626,467.27,492.93
18.0826,467.22,498.55
18.1024,466.97,504.04
18.1224,467.78,508.03
18.1425,467.82,511.02
18.1623,467.66,513.82
18.1824,466.53,517.06
18.2024,466.62,519.84
18.2225,467.1,521.88
18.2426,467.68,523.7
18.2625,468.34,525.16
18.2824,468.47,526.33
18.3025,467.98,527.66
18.3225,468.98,528.73
18.3425,468.99,529.38
18.3626,468.59,530.11
18.3826,468.07,530.29
18.4025,467.66,531.43
18.4227,468.93,532.54
18.4426,468.54,532.63
18.4625,468.63,532.51
18.4825,468.51,532.81
18.5026,469.2,532.64
18.5225,469.16,533.52
18.5425,469.73,533.41
18.5625,470.58,533.73
18.5825,470.67,533.58
18.6026,470.33,533.27
18.6223,470.47,539.21
18.6426,471.57,557.97
18.6625,474.46,589.58
18.6825,476.17,621.86
18.7025,477.53,649.89
18.7226,477.83,674.71
18.7427,478.46,688.37
18.7625,479.17,697.1
18.7825,478.54,699.28
18.8025,478.23,691.82
18.8226,478.18,679.46
18.8427,478.35,662.37
18.8625,478.08,646.09
18.8825,477.46,629.27
18.9025,475.37,614.82
18.9223,473.9,602.06
18.9425,473.12,590.24
18.9625,473.49,581.4
18.9825,472.39,573.32
19.0023,471.52,566.85
19.0224,471.41,560.68
19.0426,471.33,553.15
19.0624,471.46,545.52
19.0825,470.97,540.61
19.1026,470.98,535.29
19.1222,470.38,529.03
19.1425,470.31,525.83
19.1624,470.04,522.86
19.1823,469.64,521.49
19.2025,469.51,520.99
19.2223,470.41,520.99
19.2423,470.73,521.19
19.2625,471.98,520.76
19.2825,471.78,521.6
19.3025,472.83,523.08
19.3224,473.26,524.47
19.3426,472.81,525.97
19.3625,472.05,526.98
19.3825,471.04,527.98
19.4023,470.03,528.79
19.4224,470.62,529.83
19.4425,470.3,530.46
19.4625,470.84,530.57
19.4825,470.67,531.26
19.5025,470.14,530.81
19.5224,470.31,531.64
19.5425,470.05,532.52
19.5625,469.64,533.61
19.5825,472.11,528.29
19.6025,473.09,518.23
19.6223,474.47,505.99
19.6425,475.78,492.59
19.6625,476.22,479.27
19.6826,477.58,467.22
19.7025,478.46,456.37
19.7224,478.57,447.7
19.7426,477.46,442.56
19.7626,476.76,438.65
19.7826,476.01,435.72
19.8025,474.61,433.97
19.8224,473.89,434.78
19.8425,471.71,436.82
19.8625,470.37,439.86
19.8824,468.49,444.09
19.9025,467.2,448.47
19.9226,467.16,453.38
19.9425,467.13,459.1
19.9626,466.3,466.28
19.9826,465.44,473.42
20.0025,465.35,480.14
20.0226,464.88,486.91
20.0422,466.11,493.13
20.0625,467.08,498.9
20.0823,468.27,504.32
20.1026,469.21,510.06
20.1224,469.57,514.65
20.1425,469.86,518.72
20.1624,470.49,521.97
20.1825,470.79,526.78
20.2023,470.63,530.42
20.2235,470.7,533.74
20.2434,470.36,536.39
20.2635,471.09,539.11
20.2835,471.67,540.89
20.3035,471.14,541.11
20.3236,470.71,541.29
20.3445,471.37,540.83
20.3645,471.29,540.47
20.3843,471.64,540.57
20.4043,472.11,540.86
20.4246,473.29,540.49
20.4445,473.63,540.59
20.4645,474.3,541.07
20.4845,475.24,541.26
20.5044,476.99,541.01
20.5245,475.8,541.2
20.5445,475.84,540.96
20.5646,474.47,540.97
20.5846,474.98,540.58
20.6043,474.18,540.26
20.6245,474.94,540.81
20.6445,474.76,555.45
20.6645,475.6,586.76
20.6845,477.08,632.21
20.7044,479.07,672.36
20.7243,481.45,703.69
20.7443,482.36,715.15
20.7645,482.29,721.12
20.7844,482.23,714.7
20.8044,480.99,701.56
20.8245,480.19,684.45
20.8445,478.15,664.76
20.8646,475.92,645.61
20.8846,474.74,627.88
20.9046,473.99,612.31
20.9245,473.19,599.85
20.9445,473.55,587.68
20.9643,473.64,579.74
20.9845,474.51,571.79
21.0043,473.81,566.03
21.0245,474.05,562.03
21.0443,473.24,557.42
21.0645,474.99,552.94
21.0845,475.79,548.75
21.1044,477.03,545.6
21.1245,477.43,544.08
21.1445,477.74,541.86
21.1645,477.79,542.09
21.1843,477.23,541.27
21.2045,476.79,540.62
21.2245,476.43,541.69
21.2444,476.54,541.96
21.2645,476.04,540.96
21.2845,475.83,542.37
21.3043,476.26,543.5
21.3243,476.41,544
21.3443,475.93,543.2
21.3643,477.74,542.76
21.3845,477.19,542.01
21.4044,476.56,542.61
21.4246,475.24,543.28
21.4445,474.4,544.03
21.4644,474.32,543.42
21.4844,473.45,542.94
21.5044,472.56,541.15
21.5246,473.45,540.52
21.5443,473.56,540.22
21.5645,473.45,539.57
21.5845,473.76,540.06
21.6045,473.61,541.45
21.6245,472.69,543.56
21.6445,472.55,540.85
21.6645,473.04,533.88
21.6846,473.83,521.5
21.7044,473.66,505.8
21.7245,473.13,489.44
21.7445,471.51,475.75
21.7645,470.8,463.2
21.7845,468.84,452.56
21.8043,468.07,444.85
21.8245,466.06,438.68
21.8445,465.05,435.94
21.8643,464.64,434.95
21.8845,465.51,436.16
21.9045,466.41,439.33
21.9245,467.73,443.66
21.9445,466.78,450.13
21.9645,468.03,456.71
21.9845,468.22,463.36
22.0043,470.18,470.89
22.0246,470.74,478.11
22.0445,471.99,485.29
22.0645,472.59,491.43
22.0845,472.48,496.75
22.1044,472.18,501.8
22.1245,472.74,506.44
22.1445,474.6,511.35
22.1645,474.68,515.68
22.1845,474.94,519.34
22.2044,474.15,522.48
22.2245,474.12,523.98
22.2445,474.1,525.78
22.2643,474.88,527.23
22.2844,474.3,528.98
22.3043,474.24,529.99
22.3246,474.39,531.99
22.3445,474.51,533.39
22.3645,475.21,534.31
22.3842,474.37,535.25
22.4042,475.1,536
22.4242,473.68,537.4
22.4442,473.74,540.12
22.4644,472.79,541.9
22.4843,472.83,543.12
22.5042,472.47,543.89
22.5244,471.97,544.31
22.5445,471.58,543.65
22.5644,472.06,542.72
22.5843,472.45,542.38
22.6043,471.96,542.3
22.6244,472.17,542.04
22.6445,471.73,540.63
22.6645,471.19,539.71
22.6844,470.15,539.37
22.7044,470.72,557.49
22.7243,471.58,587.79
22.7444,471.46,622.43
22.7644,472.57,653.55
22.7845,473.45,675.44
22.8043,474.36,694.35
22.8245,475.49,698.48
22.8445,475.99,693.98
22.8644,475.79,681.79
22.8844,475.64,667.23
22.9044,475.51,650.78
22.9244,475.41,635.23
22.9445,474.93,621.18
22.9655,473.74,607.55
22.9854,472.19,596.04
23.0055,471.35,586.63
23.0254,471.08,577.7
23.0453,471.67,571.56
23.0651,471.53,565.65
23.0852,470.83,560.92
23.1054,472.06,557.14
23.1262,472.65,554.11
23.1465,472.52,551.49
23.1664,470.62,547.39
23.1864,470.29,544.91
23.2062,469.63,542.93
23.2263,470.31,541.54
23.2475,470.45,541.03
23.2674,470.16,539.03
23.2875,470.73,538.62
23.3074,470.78,536.9
23.3274,470.42,536.72
23.3474,469.94,537.17
23.3674,469.35,536.54
23.3873,469.08,533.83
23.4073,468.46,534.67
23.4274,467.97,535.13
23.4474,467.78,535.71
23.4674,468.22,535.16
23.4875,468.98,535.93
23.5075,468.38,534.75
23.5273,468.91,535
23.5474,468.52,534.2
23.5674,467.42,533.36
23.5875,467.34,533.89
23.6074,467.87,534.51
23.6273,468.29,535.41
23.6474,468.24,532.33
23.6672,466.99,527.06
23.6876,465.99,517.45
23.7073,463.79,504.56
23.7274,462.23,491.05
23.7474,460.39,475.84
23.7674,460.11,462.67
23.7876,460.29,451.14
23.8071,459.23,440.11
23.8275,459.18,432.29
23.8474,460.95,427.43
23.8674,463.96,425.94
23.8874,465.57,426.75
23.9073,467.45,430.4
23.9274,468.96,435.92
23.9473,470.17,443.14
23.9674,469.94,450.71
23.9875,469.15,458.97
24.0074,468.52,466.77
24.0274,468.62,475.22
24.0473,469.49,482.38
24.0674,470.19,489.1
24.0875,469.55,495.08
24.1074,469.44,501.26
24.1273,470.56,505.81
24.1474,471.24,510.45
24.1674,472.2,514.56
24.1874,472.56,517.65
24.2073,472.85,520.72
24.2275,472.68,523.17
24.2475,473.34,524.94
24.2673,472.47,526.35
24.2875,472.78,527.28
24.3074,472.02,528.83
24.3276,472.02,529.66
24.3475,472.41,530.33
24.3674,471.13,532.06
24.3874,469.51,533.05
24.4074,469.2,533.24
24.4274,469.16,532.59
24.4473,469.93,532.27
24.4674,470.14,531.82
24.4873,469.12,532.66
24.5074,468.49,533.32
24.5274,469.39,534.06
24.5474,469.52,534.65
24.5674,470.41,534.92
24.5873,470.13,534.73
24.6074,470.1,535.39
24.6272,469.68,534.51
24.6474,469.75,534.21
24.6673,470,534.77
24.6873,470.2,535.41
24.7083,470.96,535.73
24.7283,472.17,550.98
24.7483,475.13,584.59
24.7685,477.11,625.27
24.7882,478.29,659.42
24.8083,479.03,687.33
24.8284,479.82,700.87
24.8484,480.86,701.09
24.8684,480.89,690.67
24.8881,480.11,673.94
24.9085,478.89,656.95
24.9281,477.71,640.36
24.9484,476.77,625.29
24.9682,475.41,611.83
24.9882,474.93,601.07
25.0085,474.75,590.85
25.0283,474.2,580.28
25.0483,472.76,574.23
25.0684,472.01,567.78
25.0883,472.4,561.22
25.1085,472.32,557.38
25.1283,471.26,554.1
25.1483,471.21,550.48
25.1682,469.57,546.39
25.1882,469.85,543.91
25.2085,469.88,542.53
25.2284,469.71,541.02
25.2484,469.16,540.42
25.2684,469.53,539.13
25.2883,470.23,538.71
25.3083,469.78,539.17
25.3285,469.82,538.53
25.3484,469.66,538.03
25.3683,469.73,538.62
25.3883,469.58,537.9
25.4091,471.07,536.32
25.4294,471.05,536.85
25.4494,472.44,536.88
25.4694,473.35,536.91
25.4891,473.68,536.93
25.5092,473.95,537.14
25.5293,473.76,537.91
25.5493,473.01,538.13
25.5693,472.2,538.3
25.5893,471.76,538.64
25.6094,472.01,538.51
25.6293,472.21,539.81
25.6492,472.37,538.65
25.6694,473.09,537.12
25.6894,473.47,537.1
25.7094,472.58,537.28
25.7294,473.46,538.22
25.7493,472.57,539.98
25.7693,472.86,538.78
25.7892,471.29,534.23
25.8092,469.63,523.18
25.8293,467.1,509.54
25.8493,464.08,494.84
25.8693,460.67,482.47
25.8891,459.93,470.57
25.9093,460.35,460.26
25.9294,460.68,452.81
25.9493,460.34,447.45
25.9692,461.47,442.96
25.9891,463.78,440.17
26.0091,465.22,439.73
26.0293,467.58,441.19
26.0493,469.46,445.15
26.0693,471.37,449.12
26.0893,472.7,455.1
26.1093,474.56,462.28
26.1291,475.05,469.42
26.1493,475.04,475.74
26.1693,475.03,481.79
26.1892,474.82,488.63
26.2093,474.66,494.51
26.2293,473.93,500
26.2493,474.94,505.2
26.2692,475.75,508.76
26.2894,477.6,512.01
26.3092,477.88,515.41
26.3293,478.11,518.53
26.3494,478.88,521.42
26.3694,478.11,523.74
26.3893,477.09,525.79
26.4093,477.47,528.23
26.4292,476.78,529.99
26.4494,476.82,531.59
26.4694,476.66,532.47
26.4892,476.12,533.38
26.5093,475.7,534.7
26.5293,474.16,535.36
26.5493,473.33,535.89
26.5692,471.86,536.31
26.5893,471.69,536.85
26.6092,470.75,536.88
26.6293,471.6,537.1
26.6493,471.08,537.28
26.6693,473.07,537.43
26.6893,473.25,537.14
26.7092,473.4,537.31
26.7293,473.52,537.25
26.7493,473.02,536.6
26.7693,473.61,536.48
26.7894,472.29,533.78
26.8093,472.03,550.83
26.8293,474.23,581.06
26.8493,477.18,617.25
26.8692,479.54,648
26.8892,482.24,673
26.9092,482.59,686.8
26.9292,483.87,692.44
26.9492,484.5,685.75
26.9692,483.2,673.8
26.9891,483.36,657.64
27.0094,482.49,643.11
27.0293,480.79,627.29
27.0492,481.03,613.63
27.0694,479.02,601.71
27.0892,477.62,592.16
27.1093,477.3,585.13
27.1293,475.04,576.31
27.1493,474.83,569.64
27.1693,473.86,564.92
27.1891,473.29,560.33
27.2091,473.43,556.47
27.2293,474.15,551.77
27.2493,473.72,548.62
27.2693,473.77,545.49
27.2893,473.22,544
27.3093,472.78,544.2
27.3294,471.42,547.96
27.3494,472.14,555.37
27.3694,472.31,558.49
27.3893,471.05,560.39
27.4095,470.44,560.12
27.4293,470.75,558.09
27.4494,470.8,557.27
27.4693,470.84,555.42
27.4895,470.87,553.34
27.5093,470.9,550.87
27.5293,471.52,550.09
27.5494,472.21,548.28
27.5693,471.97,547.02
27.5893,471.78,545.02
27.6092,472.42,545.01
27.6292,472.94,544.61
27.6491,472.95,542.29
27.6693,472.56,541.43
27.6891,472.85,539.34
27.7091,471.88,538.08
27.7294,471.7,537.26
27.7494,471.36,539.21
27.7693,471.09,544.17
27.7894,471.67,548.53
27.8093,472.94,554.83
27.8293,474.15,557.86
27.8492,476.52,554.89
27.8693,477.62,548.51
27.8893,476.09,540.21
27.9093,474.07,529.97
27.9294,472.26,516.97
27.9495,470.21,500.98
27.9693,468.57,485.18
27.9891,468.25,470.75
28.0091,468.4,457.2
28.0293,468.72,446.76
28.0492,468.78,438.61
28.0692,468.62,434.48
28.0892,468.5,433.39
28.1093,469,434.91
28.1292,468.2,438.53
28.1493,468.56,443.22
28.1692,468.65,449.98
28.1892,468.72,457.78
28.2103,468.97,465.83
28.2302,469.98,472.86
28.2502,470.58,479.29
28.2703,470.27,485.23
28.2901,472.41,491.58
28.3101,472.53,497.07
28.3303,473.82,501.45
28.3501,474.66,505.96
28.3702,474.93,509.97
28.3903,475.74,514.58
28.4102,474.79,518.26
28.4303,473.83,521.21
28.4502,473.47,524.17
28.4701,473.37,526.73
28.4901,473.7,528.99
28.5103,473.76,531.39
28.5303,472.81,533.51
28.5503,472.85,536.01
28.5703,473.28,537.21
28.5903,473.62,538.17
28.6103,473.3,538.73
28.6303,474.44,540.39
28.6503,474.35,540.11
28.6703,474.48,540.49
28.6903,473.98,540.39
28.7103,474.19,539.71
28.7304,473.95,539.57
28.7503,474.16,539.46
28.7703,473.93,539.76
28.7904,472.94,538.61
28.8103,473.15,554.29
28.8301,472.32,582.83
28.8502,473.66,615.27
28.8702,474.73,649.41
28.8901,475.58,675.53
28.9102,476.27,690.82
28.9303,476.81,694.66
28.9503,478.05,692.13
28.9702,478.04,683.1
28.9901,478.63,669.08
29.0103,477.51,653.47
29.0303,476,637.57
29.0502,475.6,622.26
29.0703,474.68,610.61
29.0904,475.95,600.68
29.1103,476.16,590.55
29.1302,475.73,583.04
29.1502,474.98,573.83
29.1702,474.38,568.26
29.1901,474.91,564.01
29.2101,474.53,558.81
29.2302,475.02,555.25
29.2503,474.42,551.8
29.2702,473.53,548.84
29.2902,474.43,545.67
29.3103,474.54,541.54
29.3302,476.03,539.23
29.3503,477.83,537.58
29.3703,477.66,536.47
29.3902,477.93,535.77
29.4102,477.94,535.42
29.4302,477.75,534.33
29.4503,477.6,534.87
29.4701,477.08,535.29
29.4902,477.27,535.24
29.5101,476.61,534.79
29.5303,475.09,535.83
29.5502,474.67,536.46
29.5702,474.34,537.57
29.5902,473.87,536.66
29.6103,473.5,536.93
29.6303,473.4,536.94
29.6502,472.72,537.75
29.6703,473.57,537.6
29.6904,473.66,537.88
29.7103,473.93,537.91
29.7303,473.94,537.32
29.7503,474.15,536.66
29.7703,473.92,537.53
29.7902,473.34,537.62
29.8103,473.27,538.3
29.8303,473.42,535.84
29.8502,473.93,525.47
29.8703,473.95,510.58
29.8903,475.36,494.66
29.9103,474.89,481.13
29.9303,474.31,468.5
29.9503,474.45,457
29.9703,473.76,449
29.9904,471.61,444
30.0102,470.68,441.4
30.0302,469.15,440.52
30.0502,467.52,441.82
30.0703,467.21,446.45
30.0902,467.37,452.96
30.1102,468.3,459.57
30.1302,468.64,467.06
30.1502,468.91,473.84
30.1702,468.53,479.08
30.1903,468.82,481.46
30.2102,469.66,483.77
30.2302,470.53,486.81
30.2502,471.22,491.25
30.2703,470.98,495.2
30.2903,471.38,499.36
30.3103,471.11,502.69
30.3301,471.68,506.55
30.3503,471.35,510.24
30.3703,471.88,512.99
30.39,471.3,516.19
30.4102,470.84,518.76
30.4303,471.27,521
30.4503,471.02,523
30.4702,471.02,525.2
30.4904,471.21,526.76
30.5103,471.77,527.61
30.5302,472.42,528.49
30.5502,471.73,529.39
30.5703,471.79,529.71
30.5901,470.83,530.37
30.6103,470.46,531.3
30.6301,470.77,531.84
30.6501,470.82,532.47
30.6701,469.85,532.98
30.6901,470.68,533.38
30.7103,470.55,533.3
30.7301,471.44,533.64
30.7502,471.35,544.51
30.7702,470.08,569.41
30.7904,467.66,607.93
30.81,465.93,644.14
30.8302,465.34,679.31
30.8502,466.48,701.45
30.8701,468.78,712.76
30.8903,471.22,716.41
30.9103,473.98,709.73
30.9302,474.78,696.18
30.9502,474.63,678.15
30.9701,473.7,659.72
30.9901,472.56,643.17
31.0102,471.45,627.14
31.0302,473.76,612.51
31.0501,476.81,597.41
31.0703,477.25,584.93
31.09,477.6,574.34
31.1102,477.48,566.07
31.1301,477.58,559.46
31.1502,476.27,552.77
31.1702,476.01,549.01
31.1902,476.41,546.21
31.2103,475.93,543.37
31.2303,475.74,540.89
31.2502,475.19,538.72
31.2702,474.56,537.77
31.2902,473.04,537.02
31.3103,474.04,534.21
31.3302,473.83,531.77
31.3502,473.66,530.62
31.3703,473.53,529.89
31.3901,473.42,529.92
31.4101,472.74,529.13
31.4301,472.19,529.31
31.4502,472.55,530.04
31.4702,470.64,530.84
31.4903,470.91,531.47
31.5102,469.73,531.57
31.5302,470.38,533.06
31.5502,470.31,533.25
31.5701,470.45,534
31.5902,469.76,533
31.6102,469.81,533.4
31.6302,469.64,533.32
31.6502,469.72,534.26
31.6703,469.57,537.2
31.6903,468.66,532.96
31.7101,466.33,522.57
31.7302,464.06,509.06
31.7503,461.65,495.45
31.7702,460.12,482.56
31.7902,459.1,470.84
31.8102,458.48,459.48
31.8303,458.58,448.78
31.8502,459.26,439.62
31.8704,460.81,432.7
31.8902,462.65,429.96
31.9102,463.52,428.77
31.9302,464.62,430.61
31.95,465.29,434.29
31.9702,467.03,440.83
31.9903,468.03,448.87
32.0102,468.62,456.29
32.0301,469.9,465.03
32.0502,471.72,474.83
32.0703,472.57,483.26
32.0901,473.46,490.81
32.1102,473.97,497.05
32.1302,473.97,502.04
32.1501,474.78,506.63
32.1702,474.62,509.7
32.1902,474.7,513.16
32.2101,475.16,515.73
32.2302,474.73,518.58
32.2501,473.58,519.87
32.2702,473.47,521.09
32.2904,472.57,521.88
32.3102,471.86,522.7
32.3303,472.09,523.36
32.3502,472.07,524.09
32.3704,472.46,524.67
32.3902,472.76,525.54
32.4102,472.01,526.83
32.4302,472.21,528.06
32.4502,470.37,529.05
32.4703,470.49,530.04
32.4902,470.2,530.83
32.5102,470.76,531.67
32.5302,471,532.53
32.5502,470.6,532.63
32.5702,470.88,532.5
32.5902,470.91,532.2
32.6102,470.73,532.16
32.6301,471.18,533.13
32.6502,471.34,533.1
32.6702,470.08,532.48
32.6901,470.86,532.19
32.7102,471.29,531.15
32.7302,470.83,529.32
32.7503,469.86,539.06
32.7702,469.89,564.44
32.7901,469.91,596.16
32.8103,471.13,635.12
32.8303,472.7,667.9
32.8502,475.56,691.92
32.8701,477.05,704.14
32.8903,479.04,703.11
32.9103,479.83,690.09
32.9302,480.27,673.27
32.9501,480.41,655.22
32.9711,479.13,636.97
32.9921,478.3,621.38
33.012,477.84,607.3
33.0332,477.27,596.44
33.053,477.22,585.55
33.0733,475.38,578.64
33.0932,474.1,571.11
33.1131,473.28,566.09
33.1331,473.62,561.27
33.1531,473.9,557.22
33.1733,473.52,551.77
33.1932,473.82,548.02
33.2133,473.25,545.82
33.2332,472.6,542.85
33.2532,471.88,541.28
33.2732,471.71,538.23
33.2929,470.76,537.38
33.3129,469.61,536.7
33.3332,469.69,535.76
33.3533,469.95,536.41
33.3732,470.56,537.13
33.3933,471.05,536.7
33.4132,471.64,536.56
33.4333,472.11,537.05
33.4531,472.69,537.24
33.4732,473.15,536.99
33.4931,473.52,537.19
33.5132,473.62,537.35
33.5331,473.09,538.88
33.554,471.87,538.31
33.5743,470.7,538.05
33.5942,470.36,537.84
33.6142,470.49,538.87
33.6341,470.59,538.5
33.654,470.27,539
33.6739,471.62,539
33.6942,471.69,538.2
33.7139,472.56,538.76
33.7343,472.84,537.61
33.7544,472.68,538.29
33.7743,472.34,537.83
33.7941,472.07,538.66
33.8141,472.26,538.53
33.8341,472.61,539.02
33.8541,472.68,539.82
33.8742,472.35,539.86
33.8942,472.88,540.48
33.9142,472.3,542.59
33.9341,473.64,546.47
33.9539,473.71,543.18
33.9742,473.97,533.54
33.9941,473.18,519.03
34.0141,472.74,502.03
34.0342,471.19,486.82
34.054,470.15,472.26
34.0739,469.32,458.81
34.0939,467.66,448.44
34.114,466.73,440.36
34.135,466.78,436.28
34.1551,467.23,433.43
34.1759,468.38,433.74
34.1961,467.9,436.79
34.217,468.12,441.23
34.237,469.1,446.99
34.2571,469.88,454.59
34.2772,470.9,460.67
34.2972,471.32,467.94
34.317,472.66,475.75
34.337,472.93,483.4
34.3571,473.94,491.52
34.3769,473.75,498.42
34.3969,474.2,504.53
34.418,473.56,510.03
34.4381,473.25,514.82
34.459,473.2,519.26
34.4789,473.56,522.41
34.499,470.85,526.32
34.519,470.88,528.86
34.5401,470.9,531.29
34.5609,470.72,532.83
34.582,469.78,533.26
34.602,469.62,533.61
34.622,469.1,534.29
34.6421,467.48,535.43
34.6622,467.58,535.74
34.6821,468.07,536.6
34.7021,468.85,537.28
34.7223,469.48,538.42
34.7423,469.19,538.94
34.7621,469.95,538.95
34.782,468.96,538.76
34.8021,469.57,538.61
34.8231,470.45,537.69
34.8431,470.36,537.35
34.863,470.29,537.28
34.883,470.03,536.82
34.9031,469.23,536.06
34.9231,469.98,534.25
34.943,469.38,533.2
34.964,469.71,531.96
34.984,469.37,530.17
35.004,469.29,529.13
35.024,469.63,528.71
35.0451,469.91,528.77
35.0659,469.93,528.41
35.086,470.54,528.73
35.1069,470.03,532.38
35.1271,470.23,548.71
35.147,470.38,575.77
35.1671,470.7,609.61
35.1871,472.76,639.29
35.2071,476.01,662.23
35.2271,477.81,678.79
35.2471,480.05,689.03
35.2671,482.04,696.42
35.2871,481.63,694.54
35.307,481.5,684.23
35.327,479.4,670.38
35.3471,477.52,654.31
35.367,476.62,638.25
35.3879,476.09,622.2
35.4082,475.68,606.96
35.4281,475.94,595.37
35.4482,475.55,584.89
35.4681,475.24,575.71
35.4881,473.79,570.37
35.508,472.83,564.1
35.5281,471.87,559.08
35.5481,471.09,551.86
35.5681,471.08,549.29
35.5881,471.66,545.43
35.6079,471.13,542.15
35.6281,470.7,540.32
35.6479,470.36,536.85
35.6681,469.69,535.88
35.688,470.15,535.11
35.7082,469.92,535.08
35.7281,470.54,534.27
35.7481,469.83,533.61
35.768,469.06,533.69
35.7881,468.85,534.15
35.8081,469.48,532.52
35.8281,469.78,533.62
35.8481,469.43,533.69
35.8681,469.34,533.76
35.8879,468.87,533.6
35.9081,469.7,533.68
35.9281,470.36,534.35
35.9481,471.89,535.08
35.969,471.91,535.46
35.9889,473.13,536.37
36.0092,473.3,535.5
36.0291,473.04,535.4
36.049,473.03,535.92
36.069,473.43,536.33
36.0889,473.14,535.67
36.1091,473.51,535.33
36.1291,473.01,534.27
36.1491,473.41,534.81
36.1691,473.53,535.25
36.1891,473.82,535
36.2092,473.46,534.2
36.2291,473.57,535.56
36.2492,473.25,535.65
36.269,473.6,537.12
36.2901,473.48,539.89
36.3102,473.79,546.92
36.3301,473.03,554.93
36.3501,473.82,560.15
36.3701,473.26,560.52
36.3898,472.21,555.81
36.4101,469.77,545.25
36.43,467.61,529.2
36.45,465.49,508.76
36.4701,464.99,485.81
36.4901,462.59,464.45
36.51,461.47,446.36
36.53,462.18,432.49
36.5502,461.74,423.59
36.57,462,420.07
36.59,462.8,421.06
36.6101,464.04,424.65
36.6301,465.23,430.72
36.6499,465.78,438.57
36.6699,466.43,448.06
36.6899,467.94,457.45
36.7099,469.95,466.96
36.7309,470.56,476.17
36.7508,471.45,484.53
36.7709,472.56,491.03
36.7909,472.65,498.02
36.8109,472.72,503.62
36.8308,473.17,508.69
36.8509,474.94,512.95
36.8709,476.15,516.56
36.892,477.12,519.65
36.912,477.5,523.12
36.9329,478.4,525.3
36.9539,477.12,526.44
36.9738,476.69,528.35
36.9939,476.16,530.08
37.0138,475.52,530.66
37.0338,475.22,531.73
37.0538,473.98,532.78
37.0739,473.78,534.23
37.0938,473.02,535.78
37.1139,473.22,536.43
37.1339,473.38,537.54
37.1538,473.3,537.83
37.1738,473.84,538.07
37.1941,473.67,538.05
37.2141,472.54,538.24
37.234,473.03,537.99
37.2539,473.62,537.2
37.274,472.5,536.76
37.294,472,534.8
37.314,471.6,533.84
37.3341,470.68,531.88
37.3539,470.54,531.5
37.3739,469.84,547.2
37.3941,470.67,581.96
37.4141,471.33,617.17
37.434,471.47,649.33
37.4538,473.97,674.47
37.4739,474.98,689.57
37.494,477.18,693.66
37.514,477.55,688.93
37.534,477.64,673.54
37.554,478.71,659.23
37.5739,477.57,643.79
37.5938,476.45,629.23
37.6141,475.36,614.38
37.634,474.29,602.51
37.6539,475.03,591.61
37.6739,474.23,582.08
37.6941,473.18,575.67
37.714,471.94,568.53
37.7339,471.76,564.03
37.7538,471.6,559.62
37.774,472.88,555.3
37.794,473.31,552.64
37.814,473.25,549.51
37.8339,473.2,546.41
37.8541,472.16,544.13
37.8739,471.53,542.1
37.8941,470.42,540.48
37.9141,469.94,539.38
37.9341,469.35,539.11
37.9538,469.08,538.29
37.9738,468.86,537.43
37.994,470.09,537.74
38.014,470.07,537.59
38.034,469.86,537.08
38.0539,470.09,536.46
38.0742,469.27,536.57
38.094,470.22,536.45
38.1141,469.97,535.16
38.1341,468.98,536.13
38.154,469.18,536.3
38.1738,468.55,536.64
38.194,468.64,535.32
38.2138,468.11,534.25
38.2338,468.29,534.8
38.254,467.83,535.44
38.2749,468.86,533.55
38.2951,469.29,533.64
38.3148,468.83,527.11
38.3351,467.27,515.49
38.3551,466.01,499.19
38.3751,465.01,483.55
38.395,464.21,470.44
38.415,462.77,459.35
38.4352,462.01,448.88
38.4548,461.41,439.31
38.4748,459.93,431.85
38.4948,458.74,426.28
38.5149,460.39,424.42
38.5351,460.72,425.54
38.555,461.57,429.03
38.5749,463.26,436.22
38.5949,463.81,443.78
38.6149,464.05,453.02
38.635,463.64,462.02
38.6558,464.11,470.81
38.6758,464.49,478.85
38.697,466.19,486.28
38.7169,467.95,493.03
38.7379,467.76,497.42
38.7579,468.61,503.14
38.7778,470.09,507.51
38.7989,470.67,512.41
38.819,471.94,515.73
38.8389,472.15,517.98
38.8591,472.32,520.98
38.8791,471.86,523.59
38.8991,470.68,525.67
38.9191,470.55,527.74
38.9391,471.04,529.79
38.959,471.43,530.63
38.9791,471.54,531.5
38.9989,471.24,532.6
39.0199,470.99,534.48
39.0409,470.99,535.39
39.0609,470.59,535.11
39.0818,471.07,535.49
39.1018,471.46,535.99
39.1219,471.77,538.79
39.1419,471.01,540.63
39.1618,471.01,541.51
39.1819,469.81,541.61
39.2028,469.65,541.88
39.223,469.92,541.51
39.243,470.53,540.81
39.263,470.43,540.44
39.283,471.74,539.76
39.303,471.99,539.2
39.3229,472.99,538.76
39.3429,472.6,537.21
39.3638,472.88,536.77
39.3838,472.9,534.82
39.4039,473.32,533.65
39.4237,472.86,532.92
39.4439,472.29,532.74
39.4639,472.43,532.19
39.4838,472.74,532.15
39.5038,471.99,531.32
39.5238,471.4,531.06
39.5439,470.92,531.85
39.5638,472.13,549.28
39.5848,473.91,581.22
39.6058,476.53,614.98
39.6257,479.22,649.38
39.6458,480.38,674.71
39.6658,481.3,690.16
39.6859,482.24,694.13
39.7069,482.19,686.71
39.7278,480.75,674.36
39.7489,478.8,658.49
39.7698,476.04,641.79
39.7898,474.43,627.23
39.811,473.35,613.99
39.8308,472.28,601.19
39.8508,472.02,589.95
39.8708,471.62,581.16
39.8908,470.29,572.93
39.9109,470.24,566.74
39.9308,469.99,560.19
39.9507,470.19,555.36
39.9709,469.55,552.08
39.9911,468.84,549.07
40.0108,468.27,546.25
40.0308,467.62,543
40.0519,467.5,541.4
40.0729,466.6,540.52
40.0941,466.88,539.22
40.114,468.1,538.97
40.134,467.08,538.58
40.1539,467.46,540.46
40.1749,466.57,541.57
40.1949,465.86,542.46
40.215,465.69,542.37
40.235,465.95,540.89
40.255,465.36,538.91
40.2751,464.09,537.73
40.295,463.07,536.98
40.315,462.46,535.79
40.335,462.56,535.43
40.3548,463.65,534.34
40.375,464.72,534.48
40.395,465.18,534.38
40.4148,466.14,533.5
40.435,468.11,533.4
40.4548,468.69,534.32
40.4749,470.15,533.66
40.4949,470.92,531.93
40.515,470.34,531.94
40.535,470.27,531.35
40.5549,470.42,532.68
40.575,471.73,532.95
40.5952,472.79,533.96
40.615,472.63,538.77
40.6359,472.9,541.41
40.6562,472.12,538.33
40.676,472.3,526.26
40.696,472.04,509.21
40.7161,471.43,488.37
40.7361,471.54,468.5
40.7561,470.64,451.2
40.7758,469.11,438.76
40.7957,466.89,429.81
40.816,467.31,425.04
40.8361,467.25,423.04
40.8561,467,423.63
40.8758,467.8,427.3
40.8958,468.04,433.24
40.9158,467.83,440.79
40.9369,468.86,449.43
40.9569,468.49,459.15
40.9778,468.39,468.32
40.9978,468.71,477.45
41.0177,469.77,484.76
41.0378,470.42,492.21
41.0577,470.53,498.77
41.0778,471.83,504.22
41.0988,473.86,508.37
41.1198,473.29,512.1
41.1408,473.23,515.68
41.161,471.99,518.54
41.1811,471.79,521.43
41.2008,471.63,523.35
41.2208,470.7,526.28
41.2421,470.76,528.42
41.262,470.61,530.94
41.2824,470.49,533.35
41.302,470.99,534.88
41.3218,470.59,535.7
41.3419,471.47,536.56
41.362,472.38,537.25
41.3821,473.3,538.2
41.4021,474.24,538.56
41.423,473.39,539.05
41.4441,472.12,539.44
41.4649,471.49,539.35
41.4848,470.99,539.08
41.505,471,538.66
41.525,470.8,538.53
41.5448,470.24,537.83
41.5658,469.59,538.06
41.5859,469.67,538.05
41.6061,469.94,538.04
41.6259,469.15,538.63
41.646,469.12,538.7
41.666,469.3,538.96
41.6859,470.24,539.17
41.7059,470.59,538.34
41.7258,470.27,537.87
41.7458,470.82,537.7
41.7668,469.65,536.76
41.7878,468.92,536.21
41.8089,468.34,535.76
41.8299,468.07,535.21
41.851,467.06,537.97
41.8707,467.85,561.18
41.8909,469.68,604.34
41.9118,473.94,660.67
41.9318,478.75,711.54
41.9518,482.4,744.63
41.9717,484.72,758.5
41.9919,485.38,759.8
42.012,485.9,750.04
42.0318,485.52,732.23
42.0528,484.22,709.99
42.0727,481.77,683.79
42.0929,479.42,654.83
42.113,476.94,628.07
42.1329,473.75,603.45
42.153,472.4,582.16
42.1727,468.92,565.33
42.1928,466.74,550.06
42.2127,465.79,538.85
42.2327,466.63,531.48
42.2527,467.3,524.18
42.273,468.04,519.35
42.2927,467.03,516.28
42.3127,467.03,516.42
42.3327,467.02,516.34
42.3529,467.62,516.07
42.373,466.69,514.66
42.3928,465.96,513.73
42.4128,466.56,514.58
42.4327,466.25,516.66
42.4527,466,518.73
42.4727,467,519.59
42.493,467.8,521.07
42.5129,467.64,522.85
42.5329,467.51,522.28
42.5529,467.61,524.23
42.5728,467.29,524.78
42.5928,467.83,528.03
42.6128,468.86,529.42
42.6328,469.09,530.14
42.6527,468.47,531.31
42.6728,468.58,533.45
42.6929,468.26,534.16
42.7128,468.01,534.93
42.7327,467.81,534.74
42.7529,467.85,535.79
42.7729,468.08,534.83
42.7929,468.06,535.47
42.8129,468.45,535.77
42.8329,468.96,533.82
42.8529,469.57,535.06
42.873,470.45,536.04
42.8929,470.96,535.64
42.9127,472.37,536.31
42.9327,473.5,536.85
42.9528,473.4,538.08
42.9728,472.92,533.06
42.9927,471.93,522.25
43.0128,470.15,509.2
43.0328,466.52,494.96
43.053,464.21,481.37
43.073,462.57,468.09
43.0929,462.46,455.88
43.1129,461.57,446.9
43.1328,460.85,440.52
43.1528,460.28,437.22
43.173,460.83,436.57
43.1931,460.46,438.46
43.2129,461.57,442.37
43.2329,462.25,447.89
43.2529,463,454.71
43.2731,465.4,461.77
43.2929,466.72,470.22
43.313,468.38,477.97
43.333,469.3,486.38
43.3529,470.04,493.3
43.3729,470.63,499.44
43.3928,471.71,504.95
43.4127,471.57,509.96
43.4328,471.45,513.97
43.4537,473.76,516.18
43.4738,475.81,517.34
43.4939,477.45,518.47
43.514,477.56,519.38
43.5348,477.45,521.5
43.5557,476.96,523.6
43.5757,476.37,525.48
43.5957,476.49,527.19
43.6157,475.99,529.15
43.6358,475.8,530.92
43.6567,474.84,532.93
43.677,474.47,533.75
43.697,473.98,534.6
43.7168,473.58,534.88
43.7371,473.66,535.5
43.757,473.93,536.2
43.7771,473.35,536.56
43.797,473.68,537.05
43.8169,473.94,538.04
43.837,473.75,538.03
43.8568,473.8,538.03
43.878,473.84,538.02
43.8981,473.87,538.22
43.9179,472.5,537.37
43.9378,472,537.7
43.9579,470.6,537.76
43.9777,471.08,549.01
43.9979,471.26,571.61
44.0179,471.41,601.08
44.0377,470.73,629.27
44.058,470.58,651.81
44.078,470.67,672.05
44.0981,473.13,685.84
44.118,475.31,691.67
44.1377,477.05,690.54
44.158,478.04,681.43
44.1782,479.43,667.94
44.1978,478.34,652.36
44.2188,477.27,635.68
44.239,476.42,620.35
44.2598,474.34,605.68
44.2807,472.67,593.54
44.3008,471.53,584.43
44.3218,471.23,575.15
44.343,469.98,566.12
44.3639,470.39,559.29
44.3838,470.51,552.64
44.4038,471.01,549.11
44.4238,470.41,544.69
44.4447,470.72,541.15
44.4649,470.98,537.52
44.4847,470.78,536.22
44.5049,470.83,535.17
44.5257,468.66,534.94
44.5459,468.73,533.35
44.5669,469.78,531.28
44.5868,470.63,528.62
44.6068,470.3,528.7
44.6267,469.44,528.96
44.6468,467.75,529.17
44.6677,468.8,530.93
44.6877,469.44,532.35
44.7078,469.55,532.28
44.7279,469.44,532.22
44.7479,468.75,532.58
44.7678,469.2,533.46
44.7877,467.36,531.37
44.8077,467.89,531.5
44.8279,467.31,531.2
44.8479,467.85,532.36
44.8679,467.48,532.29
44.888,467.18,531.23
44.9079,466.75,531.98
44.928,467,533.19
44.9478,468.2,533.55
44.9678,468.76,533.84
44.9878,469.01,534.67
45.0078,469.61,535.34
45.0278,469.68,536.67
45.0478,469.75,536.74
45.0677,471.2,536.79
45.0877,471.36,536.83
45.1087,472.69,534.06
45.1289,472.75,525.25
45.1488,473.2,512.4
45.1689,473.56,495.92
45.1887,473.05,480.54
45.2087,472.64,466.43
45.2289,470.31,451.74
45.2488,469.25,438.59
45.2687,467.8,430.08
45.2888,465.44,425.06
45.3087,463.95,423.45
45.3287,463.36,424.76
45.3499,462.29,429.61
45.37,463.63,436.09
45.3897,465.1,444.47
45.4097,466.08,453.57
45.4299,465.47,463.06
45.4497,466.17,472.25
45.4698,465.14,481.4
45.4902,465.11,488.72
45.5097,464.49,495.17
45.5299,465.39,500.94
45.5498,466.71,507.15
45.57,468.97,513.12
45.5898,469.98,517.9
45.6097,471.58,522.32
45.6307,471.86,526.25
45.6507,473.09,529.2
45.6717,473.47,531.36
45.6917,473.98,533.49
45.7117,474.18,534.39
45.7318,472.55,535.11
45.7516,473.64,536.49
45.7719,473.71,538.19
45.7922,473.77,538.95
45.8116,473.61,539.56
45.8317,475.29,540.05
45.8517,475.23,540.44
45.872,474.39,540.95
45.8917,474.11,541.76
45.9118,473.69,542.41
45.9327,471.55,542.13
45.9529,471.24,542.1
45.9729,470.79,542.08
45.9929,470.63,541.07
46.0128,471.11,540.65
46.0328,470.29,542.72
46.0527,469.43,542.78
46.0726,468.14,543.22
46.0926,467.91,543.98
46.1127,468.13,542.98
46.1327,468.91,541.79
46.1526,469.72,540.63
46.1727,469.58,540.3
46.1938,469.66,539.64
46.2147,469.53,538.31
46.2347,468.82,543.25
46.2559,470.46,564.8
46.2759,472.97,596.84
46.2957,475.17,633.27
46.3159,477.34,664.02
46.3357,478.07,687.01
46.356,479.46,701.61
46.3758,479.97,706.69
46.3958,479.77,705.15
46.4159,479.42,694.12
46.4359,478.13,678.5
46.456,476.51,661
46.4758,476.01,645.4
46.4957,473.4,630.92
46.5158,471.92,616.53
46.5357,471.34,605.03
46.5557,469.67,593.62
46.5758,469.54,584.9
46.5967,469.43,574.92
46.6176,469.34,567.33
46.6376,468.07,560.67
46.6577,467.66,554.53
46.6787,467.73,549.83
46.6987,467.98,546.46
46.7197,466.99,543.17
46.7407,466.79,541.74
46.7606,467.03,540.79
46.7807,467.82,540.63
46.8007,468.06,540.9
46.8207,468.25,540.52
46.8407,467.8,538.82
46.8606,468.04,539.66
46.881,467.03,538.52
46.9008,466.02,539.82
46.9207,466.42,539.66
46.9409,466.34,539.92
46.9609,466.87,539.54
46.9807,467.69,539.43
47.0008,468.76,538.95
47.0207,469,538.16
47.0408,468.8,537.52
47.0608,469.24,537.82
47.0809,470.39,538.46
47.101,469.92,538.56
47.1208,469.13,539.45
47.1408,467.11,541.56
47.1609,466.08,532.25
47.1809,464.67,512.8
47.2007,463.13,491.04
47.2208,461.31,471.03
47.2409,460.45,454.03
47.2608,459.96,439.62
47.2808,458.97,429.7
47.3008,457.17,423.56
47.3209,455.14,421.05
47.3408,455.11,421.44
47.3609,456.69,425.15
47.3809,458.75,431.12
47.4009,460.2,439.1
47.4206,461.96,446.88
47.4406,463.17,455.9
47.4606,463.53,463.72
47.4806,464.23,471.38
47.5006,465.38,479.9
47.5206,465.51,487.12
47.5406,464.8,493.5
47.5606,465.24,498.6
47.5806,465.79,503.08
47.6007,467.44,507.06
47.6206,468.55,511.65
47.6407,468.24,515.32
47.6606,468.59,518.06
47.6806,468.47,520.64
47.7009,467.98,522.52
47.7206,467.78,524.61
47.7406,468.03,526.69
47.7606,468.82,528.75
47.7806,469.26,530.8
47.8006,468.81,532.04
47.8207,469.04,533.23
47.8406,469.44,534.19
47.8606,468.95,535.15
47.8806,468.96,535.92
47.9006,468.37,536.94
47.9207,467.69,537.55
47.9406,468.55,537.84
47.9606,468.44,538.27
47.9808,468.16,538.42
48.0006,468.12,539.33
48.0206,468.5,539.47
48.0409,468.2,539.37
48.0606,467.76,539.7
48.0806,468.01,539.56
48.1006,468.61,539.25
48.1208,468.08,539
48.1406,467.87,539.6
48.1606,468.29,540.28
48.1806,469.24,540.22
48.2008,469.39,540.58
48.2206,469.51,540.86
48.2406,469.21,541.09
48.2609,470.17,540.47
48.2808,470.13,540.18
48.3007,470.11,539.94
48.3216,470.29,539.95
48.3416,470.03,539.76
48.3616,470.62,540.01
48.3816,469.7,540.41
48.4016,470.36,540.73
48.4216,468.89,540.78
48.4416,468.91,541.03
48.4618,468.33,540.62
48.4818,468.66,539.1
48.5017,469.53,557.88
48.5216,470.62,589.1
48.542,471.3,624.08
48.5617,474.04,656.86
48.5817,476.63,678.09
48.6016,476.91,684.47
48.6217,476.72,678.98
48.6426,476.18,669.78
48.6627,475.54,656.03
48.6827,474.43,642.22
48.7027,473.95,627.18
48.7229,473.76,615.14
48.7426,473.61,601.91
48.7628,473.29,592.53
48.7828,473.43,585.42
48.8028,473.54,579.54
48.8227,473.23,573.03
48.8436,473.59,570.83
48.8636,474.07,570.06
48.8838,474.06,568.45
48.9046,473.64,567.36
48.9249,473.32,564.09
48.9448,472.65,562.27
48.9649,471.52,559.82
48.9848,471.02,558.65
49.0045,470.61,558.32
49.025,470.49,556.66
49.0449,469.99,556.33
49.0649,470.19,555.26
49.1326,469.76,553.61
49.1326,469.6,552.09
49.1326,469.68,551.87
49.1446,469.15,550.5
49.1647,469.52,549.6
49.1845,469.61,549.68
49.2046,469.69,549.94
49.2246,468.75,549.75
49.2447,468.4,549.8
49.2647,468.72,549.04
49.2846,468.98,548.23
49.3047,469.38,547.79
49.3248,469.71,547.63
49.3447,470.76,547.5
49.3648,471.21,545.4
49.3848,470.77,545.72
49.4047,471.42,545.18
49.4248,471.73,544.54
49.4446,472.19,543.83
49.4655,472.55,545.07
49.4857,472.04,544.65
49.5065,470.83,542.92
49.5266,470.46,541.74
49.5466,470.17,541.99
49.5667,469.54,540.59
49.5867,468.83,540.27
49.6067,468.86,540.62
49.6268,469.29,540.5
49.6468,469.43,540.2
49.6668,469.35,540.56
49.6867,469.68,541.05
49.7077,468.34,543.04
49.7276,469.27,544.43
49.7476,469.62,541.34
49.7677,467.49,531.07
49.7886,464.6,513.46
49.8096,461.08,494.37
49.8298,459.46,475.89
49.8499,458.77,460.92
49.8698,457.42,449.73
49.8898,457.73,440.39
49.9098,460.39,435.91
49.9297,461.31,434.93
49.9497,462.45,436.94
49.9698,462.96,440.95
49.9897,464.97,446.16
50.0095,464.37,453.53
50.0295,466.1,461.42
50.0496,466.68,468.74
50.0695,467.74,476.19
50.0899,467.39,482.75
50.1096,467.72,489.4
50.1298,467.57,495.32
50.1497,468.26,501.06
50.1696,469.41,507.05
50.1897,470.33,512.24
50.2099,471.06,515.79
50.2296,471.05,518.83
50.2498,470.64,521.87
50.27,469.51,524.49
50.2896,469.61,526.99
50.3098,468.69,529.4
50.3295,468.35,530.32
50.3495,467.28,531.25
50.3697,467.22,532.4
50.3895,466.38,533.32
50.4096,465.1,534.26
50.4297,465.68,534.81
50.4505,465.75,535.24
50.4706,466.6,539
50.4906,467.48,541.4
50.5105,467.18,543.32
50.5305,467.55,544.05
50.5505,466.44,545.04
50.5706,467.55,545.43
50.5907,468.44,544.75
50.6116,469.55,544.8
50.6327,469.24,544.24
50.6528,469.59,543.99
50.6726,469.87,542.99
50.6926,469.1,542.79
50.7126,468.68,542.04
50.7325,468.94,541.23
50.7527,468.75,540.38
50.7735,468.8,540.11
50.7936,468.64,540.08
50.8136,468.71,540.47
50.8346,467.17,540.17
50.8556,467.54,539.74
50.8766,468.43,539.59
50.8966,469.14,539.07
50.9178,470.92,545.66
50.9375,471.73,563.53
50.9579,472.99,590.62
50.9778,473.99,621.3
50.9978,475.79,647.64
51.0177,476.03,658.51
51.0376,475.83,656.61
51.0575,476.86,648.49
51.0778,475.89,638.39
51.0977,475.71,626.11
51.1176,474.97,615.49
51.1376,475.38,607.99
51.1576,476.7,612.19
51.1776,478.76,613.35
51.1975,480.21,610.28
51.2176,479.97,604.23
51.2385,480.57,597.98
51.2587,479.46,591.79
51.2785,478.57,584.43
51.2985,477.25,579.14
51.3186,476.6,572.71
51.3385,476.68,568.37
51.3585,475.95,564.7
51.3786,475.56,561.56
51.3986,475.85,560.05
51.4196,475.88,556.64
51.4406,475.5,554.71
51.4615,475.2,552.17
51.4816,475.16,550.73
51.5018,474.93,548.19
51.5217,474.54,547.15
51.5425,473.43,546.12
51.5627,473.35,544.7
51.5827,472.88,543.96
51.6027,472.1,542.97
51.6228,471.68,541.97
51.6425,472.15,540.98
51.6627,472.52,540.98
51.6827,472.61,539.99
51.7027,472.89,540.19
51.7225,470.91,540.35
51.7427,469.13,540.68
51.7626,467.9,543.74
51.7837,468.52,545
51.8045,469.82,545.4
51.8245,469.65,544.92
51.8447,470.32,544.93
51.8647,470.46,544.55
51.8848,469.97,542.84
51.9049,469.57,541.87
51.9246,469.66,541.1
51.9447,468.93,539.88
51.9647,468.74,539.3
51.9847,468.39,539.04
52.0046,467.71,537.63
52.0246,467.17,535.91
52.0447,467.14,535.53
52.0647,467.11,535.02
52.0847,466.69,535.02
52.1045,466.75,535.41
52.1247,467.6,536.13
52.1447,468.08,536.5
52.1645,469.46,524.8
52.1847,468.57,506.84
52.2045,468.06,495.27
52.2247,468.45,489.62
52.2447,468.36,488.1
52.2648,468.69,488.48
52.2845,469.15,490.58
52.3046,469.32,495.06
52.3246,470.25,499.65
52.3447,470.2,503.32
52.3645,469.16,507.86
52.3855,469.13,511.29
52.4068,467.9,514.03
52.4265,467.92,517.02
52.4476,468.14,520.22
52.4677,468.11,522.77
52.4876,468.29,524.62
52.5078,468.43,526.5
52.5276,469.34,527.4
52.5478,469.68,528.32
52.5677,469.74,528.85
52.5877,468.99,529.68
52.6088,468.59,531.35
52.6287,468.88,532.28
52.6487,469.1,532.02
52.6686,469.48,532.62
52.6888,468.98,532.09
52.7085,469.19,534.68
52.7285,470.55,536.74
52.7485,469.84,537.39
52.7687,469.87,538.31
52.7887,469.1,538.85
52.8086,467.88,539.68
52.8285,468.1,540.94
52.8485,468.28,541.76
52.8685,468.63,542.6
52.8885,468.9,542.68
52.9088,468.52,543.95
52.9287,468.62,544.96
52.9487,468.49,546.97
52.9687,468.59,557.57
52.9885,470.48,576.26
53.0085,470.18,593.41
53.0286,472.34,603.93
53.0485,473.08,605.34
53.0685,471.86,599.47
53.0886,472.09,593.78
53.1085,472.07,588.22
53.1285,471.26,581.98
53.1487,471.61,576.38
53.1687,470.88,570.31
53.1885,470.51,564.04
53.2087,471.01,558.24
53.2285,469,551.99
53.2487,467,548.99
53.2687,467.2,545.19
53.2888,467.76,543.35
53.3089,469.01,542.08
53.3287,466.61,540.67
53.3487,466.89,539.13
53.3687,465.71,537.31
53.3887,464.77,538.05
53.4087,463.61,537.44
53.4287,464.29,536.95
53.4487,464.03,537.96
53.4687,466.83,535.77
53.4885,471.06,526.41
53.5085,474.85,515.53
53.5285,476.28,509.42
53.5486,478.22,507.74
53.5695,479.38,507.19
53.5895,478.5,506.95
53.6095,476.8,509.96
53.6295,475.04,513.17
53.6497,475.23,516.54
53.6697,474.39,519.43
53.6898,474.11,523.14
53.7097,474.69,525.91
53.7295,474.35,527.73
53.7495,476.28,529.79
53.7695,475.02,531.63
53.7895,475.42,533.5
53.8096,474.34,535.2
53.8295,477.67,532.76
53.8496,485.93,529.01
53.8695,493.95,527.01
53.8896,497.96,527.41
53.9105,497.37,521.72
53.9315,491.29,504.98
53.9515,483.03,485.58
53.9725,475.83,465.47
53.9926,467.26,447.57
54.0129,460.01,434.66
54.0327,454.21,426.93
54.0527,450.37,423.54
54.0726,447.69,424.03
54.0926,445.95,429.03
54.1127,445.36,436.62
54.1325,445.49,446.1
54.1525,447.79,455.68
54.1724,448.03,465.14
54.1925,449.23,472.71
54.2126,451.58,481.37
54.2326,453.67,489.5
54.2527,455.33,496.2
54.2728,455.87,501.96
54.2924,457.09,507.37
54.3127,458.87,512.29
54.3327,460.1,516.43
54.3527,462.28,519.75
54.3736,463.82,523
54.3938,464.26,525.2
54.4136,464.01,529.36
54.4337,463.61,535.09
54.4537,464.68,540.67
54.4734,463.55,544.94
54.4937,464.04,546.95
54.5137,465.03,548.56
54.5336,464.62,548.65
54.5534,465.5,549.32
54.5738,467.4,549.05
54.5937,468.12,549.04
54.6136,471.1,554.03
54.6337,475.68,559.23
54.6535,477.54,560.98
54.6737,478.63,561.99
54.6937,479.71,561.99
54.7137,480.17,561.19
54.7337,478.73,559.75
54.7534,478.39,557.6
54.7735,477.31,555.48
54.7936,475.85,553.79
54.8144,474.28,552.63
54.8344,473.02,551.1
54.8545,471.82,549.88
54.8745,472.05,548.11
54.8945,472.24,547.08
54.9144,471.79,545.67
54.9344,471.44,544.53
54.9545,470.35,544.03
54.9755,470.68,543.02
54.9967,468.74,541.62
55.0165,467.59,540.49
55.0365,466.48,538.8
55.0567,466.18,536.44
55.0765,465.34,534.35
55.0976,464.08,542.28
55.1185,462.86,563.82
55.1386,462.49,597.06
55.1594,463.79,631.25
55.1794,466.43,661.4
55.1995,468.15,674.32
55.2194,469.32,675.25
55.2396,469.45,667.2
55.2596,469.56,654.36
55.2797,469.45,641.49
55.2997,469.56,627.99
55.3196,469.05,615.59
55.3404,469.04,604.88
55.3605,469.43,595.3
55.3805,469.94,585.84
55.4015,469.76,578.87
55.4215,469.8,571.7
55.4415,469.24,566.56
55.4626,468.79,561.05
55.4826,468.04,558.24
55.5027,468.43,555.99
55.5224,468.14,553.79
55.5425,467.51,552.23
55.5625,466.21,549.39
55.5825,465.97,547.11
55.6025,465.18,545.49
55.6224,464.54,544.59
55.6425,465.23,544.07
55.6624,466.19,542.66
55.6824,465.55,540.73
55.7026,465.84,540.18
55.7235,466.47,539.94
55.7434,465.58,539.96
55.7634,465.06,539.16
55.7835,465.45,538.13
55.8034,466.16,539.11
55.8234,466.33,538.88
55.8436,467.26,538.71
55.8645,467.61,539.57
55.8845,467.89,539.65
55.9045,467.91,540.32
55.9257,467.73,539.66
55.9455,468.98,539.13
55.9666,469.19,537.9
55.9867,469.95,537.92
56.0074,469.56,538.34
56.0274,469.25,538.47
56.0475,470,538.58
56.0685,470.6,538.06
56.0894,470.28,537.85
56.1096,469.62,537.68
56.1305,470.7,538.54
56.1516,470.56,538.43
56.1724,470.25,538.15
56.1925,469.8,537.92
56.2126,470.64,536.13
56.2326,471.31,535.91
56.2525,471.25,535.73
56.2726,470.8,535.78
56.2924,470.04,536.62
56.3126,470.23,536.7
56.3326,470.78,536.96
56.3526,471.23,536.77
56.3726,471.58,537.81
56.3926,471.07,537.25
56.4126,470.45,536.2
56.4324,469.56,536.76
56.4526,469.65,539.21
56.4724,469.72,535.37
56.4927,468.18,525.09
56.5125,465.14,508.47
56.5326,462.51,488.98
56.5526,459.21,471.38
56.5726,456.77,454.51
56.5924,456.01,441.21
56.6125,457.21,430.76
56.6326,457.77,425.01
56.6526,458.82,423.41
56.6727,460.45,424.93
56.6924,461.76,429.94
56.7126,462.61,437.35
56.7325,463.49,444.48
56.7534,464.59,452.59
56.7746,465.07,461.47
56.7943,466.26,469.58
56.8144,466.81,476.66
56.8343,467.64,483.53
56.8543,468.52,490.82
56.8744,470.01,499.46
56.8943,471.61,506.37
56.9144,471.69,512.29
56.9355,471.35,516.63
56.9555,474.28,520.51
56.9763,477.02,523.81
56.9964,478.02,525.44
57.0174,479.02,526.96
57.0375,478.61,527.36
57.0584,478.69,529.29
57.0785,477.95,530.63
57.0986,478.16,531.91
57.1185,476.33,532.33
57.1384,474.46,533.26
57.1585,473.17,534.01
57.1786,473.14,535.21
57.1985,471.11,535.17
57.2186,470.09,535.33
57.2385,469.27,536.07
57.2585,467.82,535.65
57.2784,467.85,536.12
57.2984,468.08,536.5
57.3186,468.27,537.4
57.3385,468.01,537.72
57.3584,468.01,537.57
57.3797,468.21,537.06
57.3983,467.17,537.25
57.4184,466.13,537.4
57.4396,466.11,537.32
57.4594,466.09,536.65
57.4795,465.27,536.12
57.4995,466.41,536.5
57.5195,466.13,536.6
57.5395,465.91,536.28
57.5594,466.52,536.02
57.5794,466.82,536.22
57.5993,467.26,536.58
57.6193,467,536.86
57.6396,467,536.89
57.6595,466.2,536.91
57.6795,465.36,536.53
57.6995,464.69,536.02
57.7194,464.75,535.42
57.7396,464.8,535.13
57.7595,465.04,533.51
57.7794,464.03,532.81
57.7995,463.43,531.84
57.8196,464.14,530.08
57.8394,464.31,529.66
57.8594,463.85,529.33
57.8794,463.08,528.86
57.8994,463.66,529.69
57.9194,463.93,530.55
57.9393,464.95,529.04
57.9595,465.16,538.63
57.9795,466.12,560.31
57.9995,468.3,594.45
58.0196,471.24,628.76
58.0394,474.39,657.61
58.0594,477.11,673.08
58.0795,477.49,675.87
58.0995,478.19,669.49
58.1196,477.55,659
58.1395,476.84,646
58.1594,477.27,632.8
58.1795,477.02,619.64
58.1995,476.82,608.91
58.2196,476.05,599.53
58.2397,476.24,589.62
58.2594,476.39,581.9
58.2794,475.91,576.12
58.2993,474.53,570.29
58.3195,474.23,565.44
58.3394,473.38,560.55
58.3594,472.1,557.44
58.3794,472.08,554.95
58.3993,471.87,551.96
58.4196,472.89,549.37
58.4396,472.11,537.69
58.4593,470.29,526.56
58.4795,469.63,519.04
58.4995,469.51,515.24
58.5194,469.21,512.19
58.5395,470.16,512.75
58.5593,470.93,513.8
58.5794,470.75,516.44
58.5993,471,518.15
58.6194,471.6,520.52
58.6393,471.88,523.22
58.6594,471.9,525.57
58.6794,472.12,528.06
58.6993,472.5,530.25
58.7196,472.6,532.8
58.7395,472.48,534.04
58.7594,472.98,534.83
58.7793,472.39,535.66
58.7994,472.71,535.33
58.8193,472.37,536.07
58.8395,472.29,537.85
58.8595,472.23,539.88
58.8795,472.59,541.51
58.8996,473.47,547.2
58.9198,472.78,558.96
58.9395,465.82,576.37
58.9595,454.86,593.3
58.9795,448.29,597.44
58.9993,445.83,591.35
59.0196,445.86,580.68
59.0394,446.09,568.54
59.0606,447.47,556.84
59.0806,449.78,546.87
59.1005,453.02,537.49
59.1204,454.42,530.2
59.1415,456.13,524.56
59.1615,458.31,521.05
59.1815,459.85,518.84
59.2016,462.08,518.27
59.2213,462.86,518.22
59.2413,465.89,518.17
59.2615,469.11,519.14
59.2814,471.09,521.51
59.3014,472.07,524.01
59.3216,472.66,525.21
59.3413,473.53,526.77
59.3616,474.22,528.21
59.3815,474.18,528.77
59.4016,473.94,532.02
59.4214,473.75,534.01
59.4416,474.4,536.61
59.4614,474.52,537.89
59.4813,475.22,540.31
59.5014,478.17,536.45
59.5214,485.74,527.56
59.5424,492.19,519.05
59.5622,495.55,514.84
59.5823,496.84,515.27
59.6026,496.07,516.62
59.6224,494.26,518.49
59.6426,493.21,520.59
59.6624,491.57,521.48
59.6834,489.85,523.18
59.7043,488.28,524.34
59.7254,488.03,522.68
59.7463,485.02,524.94
59.7667,484.62,526.15
59.7865,482.69,527.32
59.8064,482.55,528.06
59.8266,481.04,531.45
59.8465,478.03,531.76
59.8664,478.23,536.61
59.8864,477.38,540.88
59.9066,476.71,541.31
59.9265,475.16,543.85
59.9465,471.73,544.28
59.9666,471.39,545.42
59.9864,470.31,545.34
