Program Time [s],data 0,data 1
6.94661,507.61,481.43
6.96655,507.09,483.14
6.98649,507.67,486.51
7.00656,508.94,491.21
7.02648,509.15,493.17
7.04645,508.32,495.93
7.06657,507.26,499.95
7.08643,506.2,501.16
7.10638,504.96,503.53
7.12651,505.17,503.02
7.14663,505.34,505.42
7.16661,503.27,505.33
7.1864,502.42,506.27
7.20655,502.53,508.41
7.22657,503.23,508.33
7.24658,504.58,510.26
7.26666,505.06,511.81
7.28674,505.65,513.45
7.30661,506.52,514.16
7.32668,507.42,515.93
7.34662,506.93,517.34
7.36642,507.15,518.27
7.3865,506.52,519.82
7.40659,505.21,518.86
7.42659,506.37,519.48
7.44652,506.3,521.39
7.46642,505.44,519.91
7.48659,505.15,521.13
7.5065,504.92,521.3
7.52659,504.14,521.04
7.54659,505.11,521.03
7.56634,505.49,521.23
7.58666,505.59,522.18
7.60661,506.27,523.95
7.62659,505.62,523.56
7.64657,505.29,525.64
7.66641,505.24,525.52
7.6865,505.99,525.41
7.70661,505.19,524.13
7.72633,504.95,524.3
7.74661,503.36,524.04
7.7664,502.49,523.83
7.78662,501.99,522.67
7.80662,502.19,521.13
7.82658,502.15,519.11
7.84659,502.52,522.89
7.86645,501.62,525.71
7.88657,501.9,526.97
7.90665,501.92,527.57
7.92657,503.53,528.66
7.94655,503.23,528.13
7.96642,503.18,528.3
7.98664,502.74,529.64
8.00659,501.6,530.31
8.02649,501.88,531.25
8.0466,502.7,531.6
8.0666,504.16,532.68
8.08661,504.73,531.94
8.1066,505.18,531.96
8.12659,506.15,531.56
8.14659,506.92,529.85
8.16631,506.13,528.88
8.18654,505.51,528.9
8.20648,505.61,528.92
8.22652,505.88,527.74
8.24656,505.91,527.19
8.26636,505.73,527.75
8.28644,504.98,527
8.30659,503.78,528.2
8.32652,502.43,528.56
8.34659,502.74,528.65
8.36646,502.79,529.12
8.38659,504.84,529.9
8.40654,505.67,530.72
8.42661,504.93,526.17
8.44661,504.35,509.94
8.46651,501.48,485.95
8.4865,498.78,459.36
8.50639,496.23,434.29
8.52651,494.38,414.83
8.54659,492.1,400.06
8.56651,489.88,389.45
8.58683,489.31,384.96
8.60649,489.65,383.97
8.62653,489.92,386.78
8.64655,489.13,393.42
8.66656,490.91,402.74
8.68639,491.73,412.99
8.70658,492.38,422.79
8.72661,493.9,433.83
8.74658,495.92,444.47
8.76643,496.94,453.77
8.7867,498.75,462.42
8.8066,500.4,470.93
8.82659,500.52,477.15
8.84652,500.42,482.72
8.86648,500.53,488.17
8.88633,501.83,493.34
8.9064,501.26,499.07
8.9266,500.81,502.86
8.94647,501.25,506.89
8.96655,502.8,510.11
8.98657,503.24,513.49
9.00646,503.59,515.99
9.02629,503.27,518.79
9.04633,503.62,521.03
9.06641,505.69,522.63
9.08647,505.76,523.3
9.10646,506,523.24
9.12635,506.8,523.19
9.14627,507.44,523.35
9.16628,507.15,523.48
9.18635,505.72,522.79
9.2063,505.78,522.83
9.22631,506.02,522.46
9.24657,504.62,523.77
9.26652,504.89,523.62
9.28635,503.92,523.49
9.30642,503.73,524.19
9.32635,503.39,523.96
9.34647,504.11,524.16
9.36647,504.09,533.33
9.38656,504.27,562.27
9.40654,508.02,610.21
9.42637,510.81,659.17
9.4466,514.45,697.34
9.46643,516.96,719.87
9.48639,518.77,717.29
9.5065,518.81,706.84
9.5265,518.05,689.67
9.54624,517.84,672.14
9.56651,516.07,653.91
9.58636,514.06,637.93
9.60644,513.85,622.54
9.62652,512.68,608.03
9.64657,512.14,597.23
9.66639,510.91,587.18
9.68661,510.13,578.74
9.7065,509.1,572
9.72655,505.88,564.4
9.74651,504.91,558.72
9.76662,503.93,552.37
9.78627,504.54,547.7
9.80646,504.23,544.56
9.82643,503.79,541.05
9.84644,502.43,537.64
9.86653,500.74,535.51
9.88641,501.19,535.21
9.90756,501.56,533.97
9.92753,502.24,532.57
9.94753,501.6,531.26
9.96776,501.88,531.01
9.98755,502.5,532.01
10.0074,503,531
10.0275,502.6,530.8
10.0475,503.28,531.24
10.0676,502.62,531.19
10.0874,502.1,530.76
10.1074,501.88,530.6
10.1285,501.1,529.08
10.1483,502.48,529.47
10.1686,503.79,528.77
10.1886,503.23,528.22
10.2083,502.98,528.37
10.2284,502.59,526.9
10.2495,501.47,526.92
10.2696,500.98,526.54
10.2895,501.38,526.63
10.3094,502.7,527.3
10.3294,503.56,527.44
10.3492,503.85,527.75
10.3696,504.08,528.2
10.3896,504.06,529.36
10.4096,502.85,528.09
10.4296,502.08,529.67
10.4493,502.47,529.54
10.4694,502.17,528.63
10.4894,502.34,528.7
10.5095,502.67,529.36
10.5295,502.14,528.69
10.5493,501.31,528.75
10.5696,500.85,528.2
10.5896,501.28,528.36
10.6095,501.22,528.49
10.6296,500.98,528.99
10.6496,500.78,527.79
10.6697,501.23,528.03
10.6895,501.38,528.83
10.7095,501.5,529.46
10.7294,501.4,529.57
10.7494,501.32,530.46
10.7695,500.26,529.76
10.7896,500.61,529.21
10.8096,501.29,529.37
10.8294,501.83,529.7
10.8496,501.06,528.76
10.8693,500.85,528.01
10.8896,501.88,527.8
10.9094,502.1,527.44
10.9293,502.08,528.75
10.9493,501.87,529
10.9695,502.29,529.4
10.9894,503.43,529.72
11.0096,503.95,529.18
11.0296,503.36,528.74
11.0494,504.09,528.79
11.0696,504.27,528.44
11.0895,503.22,527.75
11.1095,503.57,528.2
11.1296,502.46,527.96
11.1496,502.17,528.57
11.1696,502.73,529.85
11.1895,501.99,529.28
11.2092,502.19,529.23
11.2294,503.35,529.78
11.2493,502.88,529.62
11.2695,502.5,528.7
11.2896,503.4,528.96
11.3095,504.32,528.57
11.3293,505.66,527.85
11.3493,506.53,528.08
11.3694,505.42,527.47
11.3894,504.74,526.97
11.4094,504.99,522.98
11.4294,504.79,511.98
11.4493,503.83,495.59
11.4693,502.47,476.87
11.4893,496.57,456.3
11.5093,492.06,437.24
11.5293,487.45,420.59
11.5492,485.36,408.27
11.5696,484.09,401.42
11.5893,483.87,400.93
11.6094,483.9,404.75
11.6293,484.92,411.2
11.6493,485.13,419.36
11.6694,486.91,428.89
11.6895,488.53,438.11
11.7095,490.82,447.09
11.7294,492.86,455.47
11.7495,493.08,463.78
11.7695,493.47,491.22
11.7894,494.57,538.38
11.8094,495.86,582.5
11.8295,498.09,619.2
11.8495,501.47,638.16
11.8694,504.78,645.93
11.8895,507.42,642.14
11.9092,508.74,633.51
11.9297,508.19,623.01
11.9493,506.75,611.21
11.9696,506,599.57
11.9895,506,589.25
12.0095,505.2,580.6
12.0295,504.36,572.48
12.0495,504.89,566.39
12.0695,506.51,561.11
12.0894,506.21,556.29
12.1095,506.57,553.43
12.1305,505.85,550.54
12.1503,506.48,549.03
12.1705,506.59,546.63
12.1905,505.87,544.3
12.2105,505.9,543.04
12.2306,505.32,541.23
12.2507,504.45,539.79
12.2704,503.56,538.03
12.2905,502.65,537.42
12.3105,502.72,536.34
12.3305,502.78,535.27
12.3507,502.62,534.42
12.3703,503.3,532.73
12.3903,503.24,531.59
12.4103,503.59,530.67
12.4303,503.27,528.94
12.4506,503.82,527.35
12.4706,503.25,526.68
12.4904,503.2,526.34
12.5104,502.56,525.47
12.5303,502.25,524.18
12.5504,501.2,523.54
12.5704,500.96,524.83
12.5902,502.37,525.27
12.6104,503.29,526.21
12.6304,504.04,526.17
12.6505,504.43,526.14
12.6704,504.74,526.91
12.6904,503.99,526.73
12.7104,502.8,527.78
12.7304,501.64,527.63
12.7503,501.31,527.9
12.7705,500.85,527.32
12.7904,501.08,528.26
12.8105,501.06,528.01
12.8304,501.25,527.6
12.8503,500,528.88
12.8704,500.2,528.51
12.8905,499.76,529.01
12.9104,500.21,529.6
12.9304,499.97,529.08
12.9508,500.37,528.67
12.9705,500.3,528.93
12.9905,500.44,527.75
13.0105,501.55,527.6
13.0305,502.24,526.28
13.0504,501.79,525.62
13.0704,501.03,525.7
13.0905,501.03,524.96
13.1104,501.42,524.57
13.1303,501.34,524.25
13.1504,501.67,524.6
13.1705,500.34,525.48
13.1905,501.27,525.39
13.2102,501.42,524.71
13.2305,501.93,524.57
13.2508,501.75,524.85
13.2704,502,525.28
13.2904,502,525.03
13.3105,502.2,524.82
13.3305,501.96,525.06
13.3506,502.17,526.05
13.3703,502.93,526.44
13.3905,503.15,525.75
13.4104,502.92,525
13.4305,502.53,525
13.4503,502.63,525.2
13.4704,502.5,526.16
13.4904,502.6,526.33
13.5103,501.48,525.66
13.5304,501.18,525.93
13.5506,501.35,525.74
13.5703,501.28,525.8
13.5904,501.42,525.84
13.6104,501.34,525.87
13.6303,501.87,526.5
13.6504,502.3,525.8
13.6703,502.44,526.04
13.6904,501.35,525.23
13.7103,500.68,524.38
13.7302,499.54,523.91
13.7503,499.24,523.53
13.7704,499.19,524.02
13.7903,500.75,524.62
13.8102,501.6,524.49
13.8302,500.28,524.59
13.8503,500.42,524.28
13.8705,501.34,523.22
13.8904,503.07,523.18
13.9102,503.46,523.14
13.9302,503.17,523.71
13.9504,502.73,524.37
13.9705,502.59,524.5
13.9904,503.07,523.8
14.0104,502.06,523.24
14.0305,501.84,522.99
14.0507,502.28,523.59
14.0703,502.22,524.27
14.0904,500.78,515.82
14.1103,499.42,501.86
14.1304,496.74,483.48
14.1506,493.59,463.19
14.1704,489.87,443.55
14.1902,484.9,425.84
14.2104,481.92,411.87
14.2304,480.73,400.9
14.2504,480.19,392.92
14.2704,480.55,390.13
14.2903,479.04,390.91
14.3104,480.23,394.33
14.3304,482.19,400.46
14.3504,483.35,408.77
14.3703,484.28,418.01
14.3904,484.62,428.41
14.4103,485.9,438.33
14.4315,486.12,448.66
14.4514,489.09,457.53
14.4714,490.88,464.82
14.4915,492.7,472.06
14.5113,493.16,478.05
14.5316,493.33,484.04
14.5515,494.26,489.03
14.5714,495.21,493.42
14.5914,495.57,497.74
14.6114,495.85,502.39
14.6314,496.28,505.31
14.6514,496.63,507.85
14.6714,497.9,509.88
14.6914,498.32,512.7
14.7113,499.86,514.76
14.7314,500.49,517.21
14.7515,501.59,518.57
14.7714,501.67,521.05
14.7914,503.94,541.04
14.8116,507.55,579.24
14.8314,512.84,623.79
14.8513,519.27,663.03
14.8715,523.62,694.42
14.8914,525.89,710.14
14.9114,527.72,710.71
14.9314,527.97,698.77
14.9515,525.18,681.82
14.9713,523.54,663.45
14.9914,520.83,645.56
15.0114,518.07,628.85
15.0314,517.05,614.08
15.0514,515.24,600.86
15.0714,513.19,588.49
15.0914,511.76,577.59
15.1114,510,568.47
15.1314,507.6,561.38
15.1512,506.28,555.3
15.1713,506.03,551.04
15.1913,504.62,546.63
15.2113,503.9,543.11
15.2314,504.12,539.89
15.2514,503.89,537.71
15.2715,503.92,535.57
15.2924,502.93,534.65
15.3123,501.95,533.12
15.3324,501.56,531.7
15.3525,500.85,531.16
15.3724,500.08,530.73
15.3922,499.86,530.38
15.4123,498.89,529.71
15.4322,499.51,529.16
15.4534,499.41,529.13
15.4736,497.93,527.91
15.4934,497.14,526.72
15.5134,496.71,527.38
15.5334,495.97,527.1
15.5533,495.38,525.68
15.5734,496.1,526.15
15.5931,495.88,525.72
15.6134,495.5,525.77
15.6333,495,525.62
15.6533,494.8,525.9
15.6734,494.24,526.12
15.6934,494.99,525.49
15.7134,495.6,524.99
15.7332,495.28,525.8
15.7534,495.62,526.04
15.7734,496.5,526.63
15.7934,497.4,527.1
15.8135,497.92,526.88
15.8333,497.93,526.51
15.8534,497.75,525.6
15.8732,498.4,525.08
15.8934,498.32,525.47
15.9134,498.45,525.37
15.9334,497.56,525.7
15.9533,497.65,525.96
15.9733,496.92,525.97
15.9936,497.34,526.17
16.0133,498.07,525.74
16.0335,498.26,527.19
16.0535,498.2,527.55
16.0733,498.96,527.24
16.0933,498.57,526.99
16.1133,499.06,526.4
16.1336,498.85,526.12
16.1534,499.68,525.69
16.1732,499.74,525.95
16.1933,499.79,526.16
16.2133,499.43,526.13
16.2332,498.55,526.7
16.2534,497.84,527.56
16.2733,497.67,527.25
16.2934,497.34,526.8
16.3133,497.47,526.64
16.3332,497.38,526.31
16.3535,497.5,525.65
16.3734,497.6,524.72
16.3934,498.28,524.78
16.4133,498.42,524.42
16.4334,497.74,525.34
16.4534,498.19,525.67
16.4734,497.15,525.34
16.4933,497.32,525.67
16.5134,496.66,525.33
16.5334,495.73,524.87
16.5533,494.58,524.89
16.5733,495.26,524.92
16.5933,496.21,525.33
16.6133,497.37,526.07
16.6332,497.5,526.25
16.6534,497,526
16.6733,497.4,525.2
16.6934,498.12,525.16
16.7134,497.49,525.13
16.7335,496.8,525.1
16.7533,496.84,524.88
16.7734,497.47,525.91
16.7933,497.58,526.12
16.8133,497.66,525.9
16.8333,498.93,525.92
16.8533,499.14,526.34
16.8732,499.71,526.27
16.8933,500.77,526.41
16.9133,500.42,526.53
16.9332,499.73,526.43
16.9533,500.19,525.34
16.9732,500.15,525.67
16.9934,500.32,525.74
17.0134,500.26,525.99
17.0332,499.8,526.59
17.0533,500.24,526.67
17.0734,499.59,526.14
17.0932,499.88,526.11
17.1133,499.7,525.29
17.1333,499.96,524.63
17.1535,500.57,524.3
17.1734,500.85,523.64
17.1933,500.48,523.32
17.2133,500.79,523.65
17.2334,501.43,523.52
17.2533,502.34,524.22
17.2735,502.87,524.77
17.2933,502.3,525.82
17.3133,502.24,526.06
17.3333,502.19,526.84
17.3535,502.75,528.68
17.3734,501.2,528.14
17.3932,499.56,522.91
17.4136,498.45,513.73
17.4334,496.36,497.78
17.4534,493.29,479.43
17.4734,490.83,460.54
17.4934,488.06,441.03
17.5134,485.85,423.63
17.5335,483.68,408.9
17.5534,482.54,397.12
17.5734,483.04,390.9
17.5934,482.83,388.92
17.6134,483.46,389.93
17.6332,484.17,395.35
17.6534,485.14,403.68
17.6734,486.91,413.74
17.6933,487.93,424.19
17.7132,488.54,434.16
17.7335,489.63,444.32
17.7535,490.71,454.26
17.7734,492.57,463.21
17.7933,495.65,469.57
17.8133,496.52,476.85
17.8334,497.82,482.68
17.8535,498.25,488.35
17.8731,499.6,493.88
17.8933,499.28,498.9
17.9134,500.43,502.92
17.9334,500.94,507.14
17.9541,500.55,509.31
17.9745,499.84,511.45
17.9942,498.67,513.56
18.0144,497.94,515.45
18.0343,497.75,520.96
18.0544,499.2,545.17
18.0743,502.36,581.73
18.0943,506.09,629.79
18.1146,509.87,674.03
18.1343,511.5,704.42
18.1543,512.8,713.54
18.1743,511.44,708.03
18.1943,510.55,693.42
18.2144,509.44,677.14
18.2343,507.95,658.91
18.2543,506.76,641.33
18.2743,505.01,624.26
18.2943,502.81,610.41
18.3146,501.65,596.13
18.3343,500.32,586.5
18.3542,499.05,576.4
18.3744,499.04,568.72
18.3942,498.63,562.38
18.4143,500.31,558.3
18.4342,500.65,554.64
18.4543,501.92,549.71
18.4743,502.33,546.57
18.4944,501.47,541.86
18.5142,501.77,539.89
18.5344,503.22,538.11
18.5542,502.97,537.29
18.5753,501.38,535.63
18.5952,500.1,534.9
18.6153,500.28,534.72
18.6352,499.63,534.38
18.6553,498.7,534.3
18.6753,497.96,533.24
18.6953,498.17,532.99
18.7154,497.14,532.19
18.7353,498.11,531.76
18.7553,497.29,531.4
18.7754,496.03,530.52
18.7953,496.42,529.62
18.8152,497.34,529.5
18.8352,498.47,530.2
18.8553,499.38,529.96
18.8751,499.1,530.17
18.8953,499.28,529.33
18.9151,499.22,529.27
18.9354,498.18,528.81
18.9553,497.94,528.85
18.9751,497.96,528.88
18.9954,497.96,528.9
19.0151,497.97,528.32
19.0352,496.18,527.66
19.0553,495.94,527.53
19.0753,495.75,527.22
19.0953,496.2,526.78
19.1151,495.56,526.62
19.1354,495.05,526.5
19.1553,494.04,526.6
19.1753,494.03,527.08
19.1953,494.43,527.46
19.2155,495.14,527.37
19.2353,495.51,527.7
19.2553,495.01,527.56
19.2753,495.61,527.25
19.2953,495.89,527
19.3151,496.91,526.6
19.3353,495.53,526.28
19.3554,496.22,526.02
19.3753,497.18,526.62
19.3953,497.34,526.29
19.4152,498.67,525.84
19.4355,498.94,525.87
19.4553,498.75,525.89
19.4753,499.4,526.12
19.4953,500.12,525.89
19.5153,500.1,525.91
19.5354,500.28,526.73
19.5553,498.42,527.39
19.5752,497.74,527.31
19.5954,496.99,528.25
19.6153,496.59,528
19.6353,495.27,527.8
19.6551,494.82,527.64
19.6752,493.86,528.31
19.6953,493.28,528.65
19.7153,493.43,528.12
19.7353,493.14,528.3
19.7553,492.51,527.44
19.7754,492.61,527.75
19.7953,492.29,528.2
19.8153,492.63,527.76
19.8354,493.9,528.01
19.8554,493.72,528.61
19.8753,493.78,528.28
19.8951,493.82,528.63
19.9151,493.66,528.3
19.9353,492.93,528.04
19.9553,493.14,527.83
19.9752,493.11,527.47
19.9953,494.09,527.37
20.0153,494.87,527.3
20.0354,495.3,527.04
20.0552,494.64,526.83
20.0753,494.51,527.26
20.0952,494.61,526.81
20.1151,495.49,526.65
20.1352,495.39,525.92
20.1553,495.91,525.74
20.1753,495.53,525.59
20.1953,495.22,525.67
20.2152,494.78,525.14
20.2354,494.82,525.71
20.2553,495.26,526.57
20.2753,496.61,526.45
20.2951,496.89,527.16
20.3153,496.11,527.13
20.3354,496.69,526.5
20.3552,496.15,526.4
20.3753,496.32,525.52
20.3952,496.86,525.42
20.4151,497.68,525.73
20.4353,496.75,525.79
20.4553,495.2,525.83
20.4753,495.16,525.66
20.4953,494.93,525.93
20.5153,495.54,525.95
20.5354,493.83,526.36
20.5553,494.47,525.68
20.5753,493.97,525.35
20.5953,494.58,525.28
20.6153,494.46,525.62
20.6354,494.97,525.7
20.6553,494.18,525.96
20.6753,493.34,525.97
20.6952,492.67,525.77
20.7152,492.94,526.02
20.7353,494.75,525.61
20.7553,495.2,525.49
20.7753,495.56,524.59
20.7953,494.65,524.67
20.8153,495.52,524.54
20.8353,495.41,524.23
20.8553,496.93,524.79
20.875,497.35,525.03
20.8952,496.88,524.62
20.915,496.3,524.9
20.935,496.44,525.92
20.9554,496.95,526.13
20.9762,496.16,525.31
20.9962,497.33,525.25
21.0162,497.46,525.6
21.0362,497.37,528.08
21.056,496.5,529.26
21.0762,495.6,530.21
21.0963,494.48,530.17
21.1164,494.38,529.93
21.1362,493.91,529.15
21.1563,493.52,529.12
21.1763,494.42,530.29
21.1963,493.54,524.44
21.2162,490.43,513.15
21.2363,486.74,496.52
21.2561,481.99,478.61
21.2764,477.8,460.69
21.2963,473.64,444.75
21.3163,469.91,431.2
21.3362,465.13,420.56
21.3563,463.7,412.05
21.3761,463.16,407.04
21.3963,464.33,403.83
21.4163,465.86,404.07
21.4363,468.89,406.05
21.4563,472.31,410.64
21.4763,476.25,416.71
21.4963,480.4,424.37
21.5162,484.12,432.9
21.5362,487.1,442.12
21.5563,489.28,450.49
21.5763,490.42,458.6
21.5963,491.14,466.48
21.6163,492.51,473.38
21.6365,493.41,479.9
21.6563,493.73,485.32
21.6763,493.18,489.46
21.6963,492.34,492.57
21.7161,491.68,495.05
21.7364,490.74,497.84
21.7563,490.99,501.47
21.7763,490.79,504.78
21.7963,490.64,507.22
21.8161,490.11,510.38
21.8363,489.89,512.9
21.8563,489.71,517.52
21.8761,491.17,537.02
21.8964,493.13,569.21
21.916,493.51,603.77
21.9363,493.61,633.22
21.9563,495.88,659.57
21.9761,499.91,677.46
21.9963,505.13,684.77
22.0161,508.5,681.21
22.0363,510.4,670.17
22.0563,509.72,654.94
22.0763,509.78,638.95
22.0963,510.62,622.56
22.1161,511.7,608.05
22.1362,511.56,596.44
22.1562,508.65,585.75
22.1762,508.92,579
22.196,511.33,575.6
22.2161,511.87,571.48
22.2365,511.89,566.18
22.2562,512.91,560.75
22.2761,513.53,555.4
22.2964,512.03,551.52
22.3162,510.62,548.41
22.3364,508.5,545.13
22.3562,505.8,541.31
22.3762,503.24,538.24
22.3962,500.79,536.6
22.4162,499.23,535.08
22.4365,497.79,533.46
22.4562,496.83,532.77
22.4762,495.86,531.62
22.4962,495.49,532.29
22.5162,494.99,533.23
22.5362,493.39,533.19
22.5562,494.32,533.95
22.5762,494.05,533.96
22.5963,494.04,533.17
22.6163,493.23,532.53
22.6364,493.59,532.23
22.6563,492.87,532.38
22.6763,493.7,532.11
22.6962,493.96,532.68
22.716,493.77,532.55
22.7363,495.21,531.24
22.7563,495.97,530.59
22.7764,495.78,528.87
22.796,496.02,528.9
22.816,496.82,528.32
22.8362,496.05,527.85
22.8562,496.04,528.28
22.8763,495.83,527.83
22.8962,496.27,527.46
22.9161,495.61,527.17
22.9361,494.69,527.74
22.9562,492.95,527.19
22.9762,492.96,526.75
22.996,492.17,526
23.0163,491.94,526
23.0362,492.35,525.8
23.0561,492.48,526.04
23.0762,492.58,527.23
23.0962,492.87,527.19
23.116,492.49,527.55
23.1363,492.59,527.84
23.1562,492.08,528.27
23.1763,492.26,528.82
23.1962,493.61,530.85
23.217,493.69,532.28
23.2371,493.75,532.83
23.2573,493.2,532.26
23.2769,492.36,531.81
23.2973,491.49,530.45
23.3172,490.59,530.16
23.3372,490.27,529.33
23.357,490.22,528.66
23.3782,489.57,528.13
23.3981,489.86,526.9
23.4194,488.29,527.92
23.4392,488.03,528.14
23.4592,487.42,527.91
23.4792,488.14,528.33
23.499,487.51,528.46
23.5192,486.41,528.17
23.5391,485.53,527.94
23.5592,486.42,528.35
23.5792,486.34,527.28
23.5991,486.47,527.02
23.6193,486.58,526.22
23.6392,486.46,526.37
23.6592,488.17,526.5
23.6792,488.73,526.4
23.6993,488.99,525.92
23.7192,487.79,525.34
23.739,487.43,526.07
23.7592,487.15,525.85
23.7793,486.32,525.48
23.7992,484.65,525.39
23.8193,485.32,525.11
23.8392,485.46,524.29
23.8592,485.57,523.83
23.8791,486.65,523.46
23.8992,487.32,523.57
23.9191,487.46,524.66
23.9392,486.57,525.13
23.9592,486.65,525.1
23.9792,485.92,524.68
23.9992,486.94,523.94
24.019,487.15,524.36
24.0392,488.72,523.88
24.059,487.38,523.31
24.0792,486.9,524.05
24.0992,486.72,522.84
24.1194,486.58,522.87
24.1392,487.06,523.5
24.159,487.45,524.2
24.1795,487.96,524.56
24.1994,488.37,523.85
24.2194,489.29,523.08
24.2391,488.04,522.86
24.259,487.63,523.49
24.2793,487.1,523.39
24.2994,487.08,523.11
24.319,487.87,522.89
24.3392,488.09,522.51
24.3592,489.27,522.61
24.379,488.62,522.49
24.3992,489.1,522.59
24.4191,490.08,523.47
24.439,491.86,524.18
24.459,491.29,524.54
24.4791,491.03,524.23
24.4993,490.62,523.99
24.5193,489.7,523.59
24.5392,489.76,523.47
24.5593,488.41,523.78
24.5791,488.33,523.42
24.5992,487.86,523.34
24.6192,488.09,522.67
24.6392,488.27,522.34
24.6592,488.82,522.47
24.6792,489.05,522.78
24.6991,488.44,522.02
24.7191,487.75,522.02
24.7392,487.8,522.21
24.7592,486.64,522.37
24.7792,486.51,522.3
24.7993,486.21,521.64
24.8193,486.97,521.71
24.8392,487.98,521.77
24.8592,488.18,522.41
24.8792,487.94,523.13
24.8992,487.56,522.91
24.9194,488.04,523.32
24.9392,488.44,523.86
24.9592,488.95,524.49
24.9792,488.96,525.79
24.9993,488.57,525.83
25.0193,489.05,526.47
25.0392,488.24,526.37
25.0592,488.59,526.1
25.0792,488.28,525.68
25.0992,487.62,525.14
25.1193,487.7,525.51
25.1392,487.96,525.01
25.1592,488.77,524.61
25.1792,489.81,524.89
25.1992,490.45,525.11
25.2192,489.56,525.49
25.2392,489.45,526.79
25.2592,488.76,522.83
25.2793,486.81,509.67
25.2992,483.45,490.13
25.3192,479.16,469.51
25.3392,476.53,450.6
25.3592,474.22,435.48
25.379,472.18,422.19
25.3992,469.74,411.75
25.4192,467.39,403.6
25.4393,468.51,400.08
25.4592,468.41,399.06
25.4792,469.53,400.45
25.4993,470.62,404.56
25.5192,472.3,409.85
25.5392,472.84,417.88
25.559,473.47,426.7
25.5789,475.38,435.76
25.599,477.5,444.81
25.6193,479.4,453.05
25.6392,479.72,460.64
25.6592,482.78,470.31
25.6792,486.42,479.25
25.6992,487.94,486.2
25.7192,489.15,491.96
25.7389,489.52,496.57
25.7592,490.42,499.45
25.7791,490.53,502.56
25.7992,489.83,505.85
25.819,490.26,518.08
25.8393,490.21,548.26
25.8592,490.17,590.01
25.8791,493.33,634.61
25.8992,497.27,669.49
25.9193,501.01,688.79
25.9392,502.41,690.63
25.9592,502.53,682.51
25.9791,503.42,670.2
25.9992,502.54,653.96
26.0192,501.43,637.77
26.0392,498.94,623.22
26.0592,496.96,610.37
26.0792,496.36,600.1
26.0992,495.09,589.68
26.1193,494.07,580.74
26.1392,493.06,573.19
26.1591,493.45,566.96
26.1791,493.16,560.76
26.1991,491.13,554.01
26.219,489.5,549.41
26.2392,488.8,545.73
26.2592,488.24,541.78
26.2791,487.39,537.83
26.2991,487.91,536.46
26.319,488.93,535.17
26.339,489.94,533.93
26.3593,489.76,532.95
26.3791,491.2,531.76
26.3991,491.16,530.41
26.4193,491.13,529.53
26.4392,490.9,529.42
26.4589,490.72,529.54
26.4792,490.58,528.63
26.4992,491.06,528.3
26.5193,491.25,527.84
26.5392,490.4,527.27
26.5593,490.32,526.62
26.5791,490.06,527.1
26.5992,490.05,526.68
26.6192,491.04,526.54
26.6389,491.43,527.23
26.659,491.94,526.19
26.6801,491.15,526.35
26.7,489.92,526.88
26.7201,488.54,526.5
26.7402,488.03,527
26.7601,486.82,527.8
26.7802,486.66,528.24
26.8001,486.53,527.19
26.8202,486.02,526.15
26.8402,485.82,525.32
26.8602,485.85,525.26
26.8802,485.48,523.81
26.9,485.79,522.85
26.9202,484.43,521.88
26.9402,483.34,521.1
26.9602,483.47,521.08
26.9802,483.98,520.66
27.0003,483.58,520.73
27.0201,483.67,521.79
27.0401,484.73,521.83
27.0601,485.59,522.46
27.0801,485.67,522.57
27.1001,485.34,522.66
27.1199,485.67,523.32
27.1402,486.13,524.46
27.1601,486.71,525.37
27.1801,487.17,525.49
27.2002,487.73,524.8
27.2202,487.99,524.64
27.2402,487.39,524.51
27.2601,487.91,523.81
27.2802,487.73,524.05
27.3002,488.18,524.44
27.3202,488.55,524.75
27.3402,488.84,525.4
27.3602,489.27,525.52
27.3802,489.22,525.62
27.3999,488.77,525.89
27.4202,488.42,526.71
27.44,487.73,526.57
27.4602,487.79,526.46
27.4803,487.03,526.57
27.4999,485.22,526.45
27.5202,484.78,525.36
27.5401,484.02,525.29
27.5602,484.02,524.63
27.5801,484.21,524.11
27.6003,483.97,524.48
27.6203,483.98,524.19
27.6399,483.58,523.95
27.6603,483.67,523.96
27.6802,484.13,524.17
27.7003,484.51,524.53
27.72,484.2,524.23
27.7402,484.16,524.58
27.76,485.13,524.07
27.7802,486.3,524.05
27.8002,486.24,523.84
27.82,487.2,523.07
27.8402,486.76,522.66
27.8601,486.4,522.33
27.8801,486.72,521.26
27.8999,486.98,521.41
27.9199,487.38,521.33
27.94,486.91,521.86
27.96,487.13,522.69
27.98,487.7,522.95
28.0002,486.96,523.16
28.0201,487.97,523.33
28.0402,486.77,523.06
28.0601,485.62,523.45
28.08,485.7,523.96
28.1003,485.96,524.57
28.1202,486.17,524.45
28.1399,486.13,524.76
28.1601,486.31,525.21
28.18,487.04,525.37
28.2002,486.04,526.1
28.2201,486.03,526.28
28.2402,486.62,525.82
28.2602,486.7,525.26
28.2801,485.96,525.81
28.2999,486.17,525.84
28.32,485.53,526.08
28.3402,485.03,525.86
28.3599,486.02,526.69
28.3803,485.42,526.35
28.4004,485.93,526.28
28.4202,485.95,525.62
28.4402,485.96,525.5
28.4602,486.57,526.2
28.4802,486.65,525.96
28.5002,486.12,525.57
28.5201,486.3,525.65
28.5402,486.24,525.72
28.5602,486.19,525.58
28.5802,485.95,525.86
28.6004,485.36,526.29
28.6202,485.09,526.23
28.6401,484.67,526.19
28.6603,485.14,525.95
28.6801,485.31,526.76
28.7001,484.85,526.61
28.7202,485.08,527.29
28.7402,486.06,527.23
28.7602,485.65,527.58
28.7802,485.32,527.27
28.8003,485.46,526.81
28.8202,485.56,526.05
28.8399,486.25,526.04
28.86,486,526.03
28.88,486,525.83
28.9,487.4,525.66
28.9199,487.92,525.13
28.94,488.34,524.7
28.96,488.87,524.36
28.98,488.9,524.29
29.0002,488.92,524.43
29.02,488.13,524.15
29.0401,488.51,525.12
29.0602,488.21,525.09
29.0801,487.76,524.67
29.0999,486.81,524.54
29.1202,486.45,524.03
29.14,486.56,523.23
29.1601,487.45,522.18
29.1801,487.36,521.74
29.2,486.89,521
29.2202,486.51,520.8
29.2401,486.61,521.04
29.26,487.29,521.23
29.2802,488.43,521.58
29.3,488.54,522.47
29.3201,487.43,522.57
29.34,487.95,523.86
29.3602,488.16,524.09
29.3801,488.33,523.47
29.4004,487.86,523.58
29.4202,487.29,523.46
29.44,487.63,524.17
29.4601,488.9,523.73
29.4801,489.92,524.19
29.5002,489.74,524.55
29.5201,489.79,524.24
29.5401,489.63,523.79
29.5601,488.91,523.03
29.5802,487.93,523.03
29.6002,488.14,522.22
29.6201,486.31,522.78
29.64,486.25,523.02
29.66,484.4,521.82
29.68,482.52,512.45
29.6999,478.42,497.36
29.7198,475.73,478.49
29.7401,471.99,458.19
29.7602,469.99,439.95
29.7801,468.19,424.56
29.7999,466.15,411.45
29.8209,465.92,400.76
29.8411,464.94,395.01
29.8609,466.15,393.01
29.8812,467.72,394.61
29.9011,470.58,398.68
29.9209,471.86,405.15
29.941,474.69,414.32
29.961,476.15,424.05
29.981,478.12,433.64
30.0011,479.7,443.31
30.0209,480.56,452.45
30.041,480.65,460.16
30.061,482.72,467.53
30.081,483.37,475.02
30.1012,485.7,481.62
30.121,486.76,487.29
30.141,487.61,492.04
30.1611,486.69,496.83
30.1809,486.75,500.86
30.2011,487.4,504.29
30.221,488.72,506.23
30.241,490.58,507.59
30.2608,489.66,520.87
30.281,488.33,549.09
30.3008,486.46,590.08
30.3208,488.57,632.86
30.341,492.26,670.29
30.3611,496.4,698.83
30.381,498.72,703.46
30.4008,499.38,695.37
30.421,499.9,681.9
30.441,499.92,665.92
30.461,499.34,648.73
30.4811,498.27,631.79
30.5011,496.82,615.43
30.5211,494.45,602.94
30.5408,493.56,590.76
30.5611,492.85,580.8
30.5811,492.48,571.44
30.6011,491.98,563.95
30.621,491.59,557.36
30.641,491.87,552.09
30.661,489.9,547.07
30.681,488.92,543.06
30.7011,488.53,539.85
30.7211,488.43,537.88
30.7412,488.34,533.7
30.761,487.87,530.16
30.7813,486.1,528.33
30.8011,486.08,526.66
30.8211,485.46,525.53
30.8412,484.17,525.02
30.861,483.94,524.22
30.881,484.95,524.18
30.901,485.36,523.14
30.921,484.49,522.91
30.941,484.79,522.93
30.961,485.63,524.34
30.981,486.91,533.28
31.0012,490.32,549.62
31.0211,493.66,577.5
31.0411,494.73,604.2
31.061,495.38,612.76
31.0808,495.71,606.01
31.1011,493.76,591.6
31.1209,491.81,573.68
31.141,490.85,555.35
31.161,488.28,538.08
31.1808,486.42,523.46
31.2009,484.54,510.77
31.2211,483.23,500.62
31.241,482.18,494.29
31.261,482.75,490.83
31.2809,482.6,489.07
31.301,482.28,488.85
31.3211,481.62,490.48
31.3411,481.9,491.39
31.361,482.12,493.11
31.3811,483.69,495.29
31.4013,484.16,497.43
31.421,485.92,499.94
31.441,485.54,501.16
31.4612,485.43,502.32
31.4811,485.15,503.86
31.501,484.72,505.89
31.521,484.37,508.71
31.5411,483.9,510.57
31.561,482.92,511.25
31.5812,481.94,513.2
31.6012,482.55,514.16
31.6211,482.44,514.53
31.6411,482.35,516.82
31.6611,482.88,519.26
31.6811,483.1,519.61
31.7009,484.28,520.09
31.7211,484.83,520.67
31.7411,485.86,521.14
31.7609,485.29,520.51
31.7811,485.43,521.01
31.8011,484.95,521.41
31.8211,484.76,522.12
31.8411,485.8,522.1
31.861,485.84,522.48
31.8809,484.48,522.98
31.901,484.38,522.79
31.921,484.1,522.83
31.941,484.48,523.26
31.961,484.19,522.21
31.9811,484.95,521.97
32.001,485.16,521.97
32.021,486.13,521.78
32.0411,485.5,521.22
32.061,485.4,521.18
32.0809,485.92,521.74
32.1013,485.34,522.19
32.121,485.27,522.76
32.1411,485.42,523.4
32.1611,485.53,523.32
32.181,485.63,523.06
32.201,487.1,523.45
32.2211,486.68,522.16
32.241,485.14,521.93
32.2611,484.72,522.14
32.2809,484.97,521.51
32.3009,485.18,520.61
32.3208,485.34,521.09
32.3411,486.07,520.87
32.361,486.86,520.5
32.3809,487.49,520.8
32.4011,486.79,520.84
32.421,486.83,520.87
32.4411,487.27,521.3
32.4612,487.61,522.24
32.4809,487.29,522.19
32.501,486.03,522.15
32.5209,485.63,521.92
32.541,485.5,521.94
32.561,484.6,522.15
32.581,485.48,522.12
32.601,485.78,522.3
32.6209,486.63,522.04
32.6408,486.3,522.03
32.6609,486.84,522.22
32.6809,486.47,521.38
32.7009,486.18,520.5
32.7209,485.74,520.6
32.7411,485.79,520.28
32.7608,485.84,519.83
32.7811,485.27,519.46
32.801,484.41,519.77
32.8209,483.73,520.01
32.8409,483.99,519.81
32.861,484.19,520.25
32.8808,484.55,520.4
32.9011,484.04,520.72
32.9207,483.63,520.38
32.9411,483.31,520.1
32.961,483.04,519.68
32.9808,483.44,520.14
33.001,483.75,520.72
33.0208,485.2,521.17
33.041,484.96,521.34
33.061,483.57,522.27
33.0808,482.45,522.22
33.101,482.36,521.37
33.1211,481.69,521.7
33.1411,481.75,521.76
33.1608,483.2,521.81
33.1812,484.36,522.45
33.2009,484.89,522.36
33.2209,484.91,523.09
33.241,484.93,523.67
33.261,484.54,524.13
33.2809,484.83,524.31
33.301,485.67,524.45
33.3209,486.33,524.36
33.341,486.07,523.29
33.361,486.25,523.03
33.3811,485.2,522.22
33.4011,485.36,521.58
33.4208,486.09,521.06
33.4408,486.07,520.65
33.4609,486.66,520.32
33.4811,486.33,519.86
33.5009,486.26,519.88
33.521,485.41,519.71
33.541,485.33,519.77
33.5608,484.46,519.41
33.5809,484.57,519.73
33.601,483.86,519.98
33.621,482.88,520.39
33.641,482.91,520.71
33.661,483.13,520.77
33.6812,483.1,520.61
33.701,482.68,520.29
33.721,483.14,520.03
33.741,483.12,520.43
33.761,483.69,520.94
33.7809,483.75,516.55
33.8009,482,506.84
33.821,480,494.07
33.8408,475.4,478.86
33.8608,471.12,462.89
33.881,466.9,448.31
33.901,462.92,435.25
33.921,459.53,423
33.941,459.03,413.2
33.9611,459.22,406.36
33.981,461.18,401.49
34.001,464.34,400.59
34.021,468.47,401.47
34.0411,471.98,406.38
34.061,474.78,413.3
34.0811,477.03,422.24
34.101,479.02,431.39
34.1209,481.82,440.91
34.141,483.05,449.53
34.1609,484.84,457.63
34.181,484.87,465.1
34.2009,486.7,470.88
34.2209,487.56,475.5
34.2411,488.05,479.8
34.2612,487.84,483.44
34.281,488.67,487.15
34.3009,488.74,491.12
34.3209,488.39,495.5
34.341,486.91,498.2
34.3609,486.53,501.36
34.3809,486.82,502.49
34.401,486.06,503.59
34.4208,486.25,519.47
34.441,487.6,551.98
34.4609,487.68,593.58
34.481,490.54,636.87
34.5009,495.03,670.49
34.5208,497.83,691.99
34.5409,499.66,694.6
34.5609,499.93,685.68
34.5809,498.74,671.34
34.601,497.79,655.27
34.6208,497.04,638.82
34.6408,495.03,623.45
34.6619,495.02,608.76
34.6819,493.42,595.21
34.702,492.73,584.77
34.7217,491.59,575.41
34.7418,490.47,567.33
34.7619,489.78,559.87
34.7819,489.82,553.89
34.8028,489.06,548.51
34.8238,489.05,544.21
34.8448,489.04,540.77
34.8648,489.83,536.82
34.8848,490.26,533.85
34.9048,490.81,531.68
34.9259,492.45,530.55
34.9457,493.36,528.84
34.9658,494.29,528.67
34.9858,494.23,527.14
35.0057,493.78,527.11
35.0268,494.83,526.29
35.0469,495.26,525.43
35.0672,496.01,524.54
35.0869,497.01,523.83
35.1072,496.81,523.67
35.1279,498.44,523.33
35.148,497.76,524.47
35.1679,498,524.37
35.188,498,524.5
35.208,499,524.2
35.2279,499.6,523.96
35.2478,500.28,523.77
35.268,499.83,523.61
35.2889,500.26,523.09
35.3089,500.81,523.07
35.3287,501.25,522.86
35.3487,501.8,522.29
35.369,502.44,521.63
35.3889,503.75,521.9
35.409,503.8,522.32
35.429,504.24,522.46
35.4488,503.99,522.97
35.4691,504.59,523.17
35.4889,504.67,523.14
35.5089,505.14,524.11
35.5289,504.51,523.89
35.5488,503.01,524.51
35.5689,502.81,524.61
35.5887,502.85,524.89
35.6088,503.08,524.91
35.6288,502.26,524.33
35.6487,502.41,524.06
35.6687,501.73,524.25
35.6888,501.78,524
35.7089,501.63,524
35.7289,502.1,524
35.7489,501.68,525
35.769,503.34,525.8
35.7889,504.08,526.04
35.8089,503.06,525.23
35.8289,502.45,525.59
35.8489,502.36,525.27
35.8687,502.49,525.01
35.8887,501.79,525.61
35.9089,502.83,524.89
35.929,504.27,524.71
35.9487,505.61,524.77
35.9687,505.29,524.82
35.9887,505.63,524.85
36.0087,505.11,525.68
36.0287,505.28,525.95
36.0487,505.43,526.16
36.0687,505.54,526.13
36.0889,504.23,526.7
36.1089,503.99,526.36
36.1289,503.99,526.89
36.1487,503.39,526.11
36.1689,503.31,525.89
36.1889,504.05,525.71
36.2088,503.84,525.37
36.2289,503.67,525.69
36.2487,504.14,525.56
36.2687,504.91,525.44
36.2889,504.93,525.76
36.3089,503.54,526
36.3289,503.83,526.2
36.3487,503.27,525.56
36.369,503.21,525.65
36.3889,502.77,526.52
36.4089,503.42,527.02
36.4291,502.93,527.01
36.4487,503.55,526.21
36.4687,503.24,526.37
36.4887,504.39,526.29
36.5088,504.51,525.64
36.5298,505.21,526.31
36.5507,507.37,526.25
36.5707,507.69,526.6
36.5908,507.56,527.08
36.6117,507.04,526.46
36.6328,504.64,526.17
36.6538,504.11,526.94
36.6747,502.69,526.75
36.6949,500.35,526.6
36.7157,499.28,527.08
36.7357,497.42,526.06
36.7556,496.54,526.65
36.7757,495.43,526.72
36.7957,494.14,526.58
36.8167,493.12,526.26
36.8368,492.69,525.61
36.8577,490.35,524.89
36.8777,488.08,523.71
36.8977,487.87,524.17
36.9177,486.89,524.33
36.939,485.11,523.67
36.9589,484.29,522.93
36.979,484.43,523.15
36.9989,485.35,523.72
37.019,485.08,524.77
37.039,485.26,525.22
37.059,486.21,525.18
37.079,486.77,524.54
37.0989,485.81,523.83
37.119,485.85,523.67
37.1389,486.08,523.33
37.1589,485.66,523.67
37.1789,484.33,523.33
37.1986,482.87,523.47
37.2189,482.49,523.77
37.2389,483.19,524.22
37.2589,483.36,523.97
37.2787,483.08,523.58
37.2987,483.67,522.66
37.3188,484.13,522.33
37.3386,484.51,522.86
37.3587,484.01,523.49
37.3787,483,523.39
37.3989,482.2,523.11
37.4189,480.56,522.89
37.4388,480.05,522.51
37.4589,480.64,522.61
37.4799,480.91,521.69
37.4999,480.53,521.75
37.52,481.02,522
37.5399,482.02,522.2
37.5599,483.42,521.96
37.5796,484.53,521.97
37.5998,484.43,522.17
37.6198,484.54,521.94
37.6397,485.03,521.35
37.6598,483.83,520.48
37.68,483.26,519.99
37.7,483.81,519.79
37.7197,484.25,520.23
37.7399,484.8,520.38
37.7597,485.84,520.71
37.7798,486.47,520.57
37.7996,486.18,520.45
37.8198,486.14,520.16
37.8397,485.31,520.93
37.8607,485.25,521.34
37.8808,485.2,518.88
37.9018,484.56,508.9
37.9218,484.65,495.32
37.9418,485.32,479.26
37.9618,485.65,463.2
37.9818,485.72,448.36
38.0018,485.78,434.09
38.0218,484.22,421.47
38.0419,482.38,411.38
38.0618,480.5,404.3
38.0816,478.6,400.24
38.1019,478.28,399.19
38.1219,478.03,400.35
38.1419,479.02,404.88
38.1616,479.62,410.11
38.1817,480.09,417.09
38.2019,481.47,425.27
38.2218,481.78,433.41
38.2417,482.82,441.53
38.2618,482.86,450.43
38.2817,482.89,458.34
38.3017,483.31,465.67
38.3218,484.05,472.74
38.3418,485.44,478.59
38.3618,485.35,484.27
38.3818,484.68,489.62
38.4018,483.54,495.29
38.4219,483.64,503.84
38.4417,482.11,523.47
38.4618,482.69,552.17
38.4817,484.35,592.54
38.5017,487.48,629.43
38.5217,490.98,659.95
38.5427,493.99,677.96
38.5627,496.39,686.57
38.5826,497.11,680.05
38.6026,497.29,667.64
38.6226,498.03,652.11
38.6426,497.03,637.09
38.6628,494.82,621.47
38.6826,494.86,607.78
38.7029,494.48,596.22
38.7228,494.99,584.78
38.7437,495.99,575.42
38.7638,497.39,567.14
38.7838,497.51,560.71
38.8046,498.21,555.97
38.8257,498.97,551.97
38.8457,498.98,548.18
38.8668,500.38,545.34
38.8876,502.9,542.08
38.9076,503.72,539.66
38.9277,503.58,536.93
38.9477,503.86,534.74
38.9677,503.29,532.99
38.9876,503.23,530.6
39.0078,503.59,529.48
39.0276,503.27,528.38
39.0478,503.41,527.1
39.0677,504.53,526.28
39.0876,504.63,525.63
39.1078,504.7,524.9
39.1277,504.76,524.72
39.1477,503.61,524.38
39.1676,503.89,524.5
39.1878,503.51,525
39.2077,503.61,525.6
39.2277,505.09,526.48
39.2477,505.47,526.98
39.2677,504.78,526.59
39.2876,504.22,526.67
39.3078,504.38,526.74
39.3277,504.3,527.19
39.3479,504.04,527.15
39.3679,503.43,527.12
39.3877,502.95,527.5
39.4076,503.56,528
39.428,503.85,528.4
39.4476,504.88,527.92
39.4677,504.3,528.13
39.4888,504.64,527.91
39.5086,505.11,527.33
39.5286,504.69,526.86
39.5486,504.35,526.49
39.5686,504.28,526.99
39.5888,503.43,527.39
39.6087,503.14,527.11
39.6289,503.51,527.09
39.6487,503.61,528.07
39.6687,504.29,528.46
39.6886,503.63,528.97
39.7086,503.9,529.17
39.7288,504.92,529.14
39.7488,504.94,528.31
39.7688,504.95,527.45
39.7888,504.56,526.16
39.8086,504.05,526.33
39.8288,503.04,528.46
39.8488,502.23,522.37
39.8698,501.98,507.1
39.8898,501.79,486.68
39.9095,499.83,466.54
39.9295,496.66,451.23
39.9497,495.13,443.19
39.9696,494.91,441.35
39.9897,494.72,443.28
40.0097,495.18,447.22
40.0298,494.34,454.18
40.0497,496.07,461.34
40.0698,496.26,469.27
40.0896,497.61,476.42
40.1098,498.49,481.34
40.1297,498.99,489.27
40.1496,499.79,497.61
40.1697,500.23,505.09
40.1898,501.19,512.47
40.2096,502.55,522.58
40.2297,504.04,538.66
40.2496,509.43,570.73
40.2697,514.15,620.58
40.2898,519.72,669.47
40.3098,523.77,702.97
40.3298,526.62,714.98
40.35,526.09,709.38
40.3698,524.68,687.31
40.3898,519.74,659.45
40.41,512.59,628.56
40.4298,508.07,599.65
40.4497,505.86,575.52
40.4698,503.69,554.81
40.4898,501.75,538.65
40.5098,498.8,532.72
40.5296,499.64,541.98
40.5508,502.31,569.78
40.5707,506.65,591.62
40.5908,510.12,595.5
40.6108,513.7,584
40.6308,512.76,564.2
40.6508,508.81,545.16
40.6706,507.64,528.33
40.6908,507.12,519.06
40.7107,509.29,519.85
40.7319,510.63,541.88
40.7529,509.71,570.1
40.7725,509.57,589.68
40.7927,508.65,592.35
40.8127,509.52,582.08
40.8328,507.82,567.06
40.8528,506.05,554.85
40.8726,513.84,555.28
40.893,522.87,568.42
40.9126,533.9,584.14
40.9337,541.32,598.31
40.9536,548.66,611.05
40.9736,554.52,620.84
40.9938,559.02,629.87
41.0139,561.42,633.9
41.0338,562.13,636.92
41.0537,560.91,636.13
41.0736,559.32,632.31
41.0936,553.66,629.05
41.1139,547.93,622.44
41.1339,542.74,614.15
41.1538,534.99,606.72
41.1738,528.2,599.98
41.1938,520.56,593.98
41.2138,516.64,589.38
41.2336,512.72,583.91
41.2537,508.17,580.53
41.2736,504.34,576.22
41.2938,500.47,572.38
41.3138,497.38,569.3
41.3338,491.1,560.44
41.3538,479.48,540.15
41.3738,463.18,509.32
41.3937,446.15,472.66
41.4137,430.32,435.33
41.4336,420.65,405.26
41.4536,416.72,380.01
41.4736,415.58,362.41
41.4936,419.26,349.53
41.5139,423.21,344.42
41.5337,428.37,342.54
41.5538,433.29,344.03
41.5736,439.04,349.62
41.5936,443.83,355.9
41.6136,447.06,362.92
41.6336,450.05,371.54
41.6536,452.04,379.23
41.6736,453.03,385.38
41.6936,455.83,393.71
41.7136,457.86,404.36
41.7336,461.09,419.29
41.7537,464.07,442.23
41.7738,471.06,478.39
41.7937,476.85,524.11
41.8136,482.68,556.29
41.8336,484.74,562.23
41.8538,485.79,556.98
41.8737,486.43,544.99
41.8936,485.75,529.19
41.9137,484.8,513.75
41.9337,485.24,497
41.9537,484.99,483
41.9736,484.19,473.2
41.9936,485.15,465.16
42.0137,484.32,460.33
42.0337,483.86,457.66
42.0537,483.89,455.53
42.0737,484.51,454.62
42.0937,483.81,457.5
42.1138,484.85,462.4
42.1336,484.28,464.12
42.1547,484.82,469.1
42.1748,484.46,472.28
42.1947,485.37,476.82
42.2146,485.49,482.06
42.2346,486.19,485.25
42.2548,485.56,486.2
42.2748,484.24,486.76
42.2948,483.8,489.81
42.3147,483.64,490.84
42.3346,485.11,491.28
42.3547,484.29,493.42
42.3746,483.63,496.34
42.3947,483.5,498.67
42.4146,484.8,501.74
42.4346,486.44,504.39
42.4545,487.95,504.11
42.4747,488.56,506.69
42.4947,486.65,509.15
42.5148,485.72,511.72
42.5349,485.58,514.18
42.5548,486.26,515.14
42.5757,485.81,515.31
42.5957,486.85,514.85
42.6158,485.88,513.88
42.6368,485.9,513.1
42.6566,485.72,512.68
42.6777,486.38,512.15
42.6975,486.3,512.72
42.7178,487.04,513.77
42.7377,487.03,517.02
42.7577,487.63,519.42
42.7787,491.5,521.53
42.7987,492.6,524.03
42.8196,493.48,526.02
42.8396,493.38,526.02
42.8597,494.91,524.81
42.8796,494.13,524.45
42.9007,495.7,525.76
42.9216,495.76,526.61
42.9416,496.61,528.09
42.9617,495.09,528.47
42.9816,495.67,529.18
43.0016,494.74,529.14
43.0215,495.19,527.91
43.0417,493.75,526.53
43.0619,493.6,524.42
43.0828,493.88,523.34
43.1038,494.1,522.27
43.1238,495.68,522.02
43.1436,496.15,521.01
43.1638,496.52,518.81
43.1835,497.61,518.65
43.2038,496.89,516.92
43.2238,497.51,517.14
43.2448,500.01,518.11
43.2659,500.41,518.89
43.2855,500.13,519.31
43.3057,500.7,519.05
43.3256,501.16,518.64
43.3457,501.93,518.71
43.3658,502.54,518.57
43.3856,502.63,518.45
43.4056,505.91,519.56
43.4257,509.33,519.25
43.4457,510.46,519.4
43.4657,511.77,519.32
43.4855,512.21,517.46
43.5057,513.37,517.77
43.5256,513.9,518.01
43.5455,514.12,515.81
43.5657,515.09,515.65
43.5858,515.08,515.32
43.6058,513.66,515.85
43.6258,513.73,516.48
43.6457,512.38,515.19
43.6657,511.31,514.95
