Program Time [s],data 0,data 1
69.9602,494.66,514.47
69.9803,495.73,514.98
70.0002,496.38,515.58
70.0203,499.11,516.06
70.0401,500.49,515.85
70.0601,502.19,516.48
70.0802,501.95,516.98
70.1001,503.56,516.59
70.1201,504.05,515.47
70.1401,504.64,515.58
70.1602,505.11,514.46
70.1802,503.89,514.97
70.2001,503.31,515.38
70.22,503.25,515.3
70.2403,504.6,515.64
70.2602,505.08,514.71
70.2801,505.06,514.97
70.3,505.65,516.18
70.3202,505.12,515.74
70.3402,505.9,513.79
70.3601,505.32,514.03
70.38,504.25,513.43
70.4001,504,514.14
70.4201,504.6,514.71
70.4401,503.48,515.37
70.4601,505.39,515.7
70.4802,505.31,516.16
70.5,506.85,515.73
70.5202,506.48,514.58
70.5402,506.78,515.26
70.5602,506.23,515.01
70.58,506.78,515.21
70.6001,506.22,514.97
70.6202,506.18,514.77
70.6401,506.14,514.82
70.6602,506.91,515.66
70.68,507.33,516.32
70.7001,507.67,516.46
70.7201,508.13,516.37
70.7402,507.31,516.29
70.76,507.64,516.64
70.7802,506.52,517.11
70.8001,505.81,516.89
70.8201,503.65,516.31
70.84,504.52,516.45
70.8601,504.82,516.36
70.88,504.25,516.49
70.9001,503.8,515.99
70.9201,503.24,516.59
70.94,502.99,516.07
70.9601,502.99,516.66
70.9801,502.6,516.73
71.0004,502.88,517.18
71.0201,502.1,517.75
71.04,502.88,517.4
71.0601,502.1,516.72
71.0801,501.48,516.57
71.1001,501.59,515.86
71.1201,501.07,515.89
71.1401,502.06,516.31
71.16,501.84,516.45
71.1801,502.88,516.96
71.2,503.5,516.57
71.2202,503.8,517.05
71.2401,504.04,516.64
71.2602,503.43,516.91
71.2801,502.35,517.33
71.3,502.88,517.66
71.32,503.1,517.53
71.3401,503.48,516.83
71.3602,502.98,516.26
71.3801,502.39,515.21
71.4001,501.51,515.57
71.42,501.81,515.25
71.4402,501.85,515
71.4601,501.08,516.6
71.4801,501.66,519.68
71.501,500.93,513.15
71.5211,500.94,499.52
71.5419,498.95,480.01
71.5619,496.36,458.41
71.582,492.49,436.13
71.603,487.19,417.7
71.623,483.15,400.16
71.643,480.52,386.53
71.663,478.82,377.02
71.683,478.46,371.02
71.7029,480.56,369.82
71.7231,481.85,372.25
71.743,481.88,377.4
71.7642,482.3,384.72
71.7842,483.04,393.98
71.8041,483.84,405.18
71.8241,485.27,416.55
71.8441,486.81,427.84
71.864,487.65,437.87
71.8843,487.92,446.9
71.9041,487.54,455.32
71.924,488.23,462.45
71.9439,488.98,469.76
71.9639,487.99,475.61
71.9841,488.59,479.89
72.0041,489.27,484.31
72.0241,489.22,488.45
72.0441,489.97,491.56
72.0641,489.18,493.65
72.0839,488.94,495.52
72.1042,488.35,497.41
72.1241,488.48,499.13
72.1441,489.79,501.1
72.1642,489.63,502.28
72.1842,489.9,503.43
72.2041,489.32,504.54
72.2241,487.66,505.63
72.2439,487.73,506.51
72.2639,490.58,507.41
72.2839,493.67,522.32
72.3041,496.93,551.06
72.3241,499.35,586.65
72.3441,500.68,621.12
72.3639,503.34,647.09
72.3842,506.47,669.48
72.404,510.58,681.78
72.4241,512.26,679.62
72.4441,514.01,668.9
72.464,513.21,654.32
72.4841,512.17,638.06
72.5041,510.53,621.84
72.5239,508.23,606.48
72.5441,507.78,593.58
72.5641,507.02,581.86
72.5841,504.22,571.69
72.6041,501.38,564.15
72.6241,499.3,557.32
72.6439,497.24,550.26
72.664,496.19,545.81
72.6841,494.35,540.45
72.7041,493.68,536.36
72.7241,492.55,532.68
72.7441,493.44,530.35
72.764,492.75,528.28
72.7841,492.8,526.22
72.8042,492.64,523.78
72.8239,492.91,522.02
72.8442,492.33,520.42
72.8639,492.06,519.13
72.8841,491.45,518.31
72.9039,490.96,517.45
72.924,492.17,515.76
72.9439,492.33,514.61
72.9641,491.27,514.48
72.984,491.21,514.39
73.0039,491.57,513.51
73.0241,492.26,513.01
73.0441,493.21,512.41
73.0639,491.96,512.73
73.084,490.97,512.98
73.1041,488.98,512.58
73.1241,488.38,513.27
73.1441,488.11,513.21
73.1639,488.48,514.17
73.1841,489.19,512.74
73.2041,488.95,512.19
73.2241,489.76,513.15
73.2442,489.81,513.12
73.2639,491.45,513.3
73.2839,491.56,513.84
73.304,492.05,514.27
73.3241,492.64,514.02
73.3441,494.31,514.01
73.3639,494.45,513.81
73.3839,492.96,512.85
73.4041,493.17,512.28
73.4241,493.33,512.62
73.444,493.27,511.9
73.4641,491.81,511.12
73.484,491.65,510.69
73.504,490.52,511.16
73.5239,491.82,510.92
73.5441,492.05,511.74
73.5639,491.24,511.19
73.584,491.19,510.35
73.6041,490.16,510.08
73.6242,489.32,510.67
73.644,488.66,511.33
73.6641,488.93,510.87
73.6851,489.34,510.09
73.705,487.67,509.47
73.7251,485.94,508.78
73.745,485.15,508.22
73.765,484.72,507.78
73.7852,483.38,508.42
73.8052,482.1,509.34
73.8251,481.28,508.87
73.8452,480.82,508.9
73.865,482.86,509.72
73.8851,484.29,509.77
73.9049,486.23,510.62
73.9249,487.78,509.9
73.946,489.23,509.12
73.9669,489.78,508.49
73.9869,489.43,507.19
74.0071,490.34,507.16
74.0271,489.67,506.72
74.0472,489.14,506.58
74.0672,488.31,505.86
74.0871,488.85,504.89
74.107,487.88,505.11
74.127,487.7,504.49
74.1471,487.16,504.99
74.1671,487.13,504.59
74.187,486.1,505.27
74.2069,486.28,505.22
74.2271,487.63,506.18
74.247,487.5,506.74
74.2671,487.4,506.59
74.2869,487.12,506.47
74.3071,487.5,506.38
74.3271,487.8,505.9
74.3471,487.44,506.12
74.367,487.95,506.9
74.387,487.76,507.52
74.4079,487.41,506.81
74.4281,486.13,506.45
74.4481,484.3,506.16
74.468,483.24,505.93
74.4881,483.39,506.14
74.5081,484.51,506.31
74.5282,485.41,506.65
74.5479,486.33,506.72
74.568,485.66,506.58
74.5879,485.13,507.26
74.6079,485.9,507.01
74.628,485.72,507.61
74.6489,486.58,507.89
74.67,486.66,508.31
74.69,488.33,507.85
74.71,488.26,507.48
74.73,489.21,507.18
74.75,489.37,506.15
74.7711,489.9,506.12
74.791,488.92,505.89
74.811,488.33,506.11
74.8311,488.47,505.69
74.8509,487.57,504.95
74.8712,487.06,504.36
74.8911,486.85,504.69
74.9109,486.28,503.95
74.9309,486.42,503.36
74.951,487.14,503.89
74.9709,486.91,503.51
74.9911,486.73,502.61
75.0108,486.78,501.69
75.0309,488.03,500.15
75.0521,487.22,499.72
75.073,489.58,499.98
75.093,491.66,500.38
75.1131,491.13,500.1
75.1332,491.5,500.48
75.1532,492.2,501.39
75.173,492.36,503.31
75.1931,493.29,500.65
75.2131,492.63,493.72
75.2333,492.31,483.77
75.2531,492.44,470.62
75.2731,490.56,455.3
75.2929,489.64,440.04
75.314,486.52,424.43
75.334,484.21,412.54
75.3541,481.77,403.23
75.3741,480.42,394.39
75.3941,480.73,387.31
75.4139,481.59,383.85
75.4341,481.67,384.68
75.454,483.14,387.54
75.4739,485.31,393.43
75.4941,486.45,398.35
75.5139,488.16,404.48
75.5341,489.13,411.78
75.554,490.9,420.03
75.574,492.12,427.42
75.5942,493.3,435.94
75.6139,494.04,443.35
75.634,495.43,449.88
75.6541,496.94,457.3
75.6742,496.16,464.44
75.6938,496.72,469.95
75.7139,496.78,474.96
75.7341,497.22,479.37
75.7541,496.58,483.5
75.7741,497.66,491.8
75.7938,500.93,517.24
75.8139,502.94,553.39
75.834,460.16,599.91
75.854,472.92,639.33
75.8739,482.94,669.06
75.894,489.95,686.05
75.9138,493.16,687.64
75.9338,497.73,678.91
75.9541,500.78,664.33
75.974,502.03,648.06
75.994,502.62,630.65
76.0139,503.7,614.72
76.034,503.96,600.18
76.0539,503.97,587.54
76.0741,501.77,577.63
76.0938,502.42,567.31
76.1138,501.73,559.65
76.134,500.99,552.92
76.1541,498.59,545.93
76.1741,498.87,540.35
76.1941,498.9,536.28
76.2139,498.92,533.02
76.2339,497.73,530.82
76.254,496.79,528.25
76.274,497.03,526.2
76.2938,496.42,523.76
76.3138,494.54,521.81
76.334,493.43,520.05
76.354,492.55,517.64
76.374,492.84,517.11
76.3941,492.27,515.89
76.4138,492.42,514.31
76.434,493.33,513.25
76.4541,494.27,512.4
76.4741,494.01,512.12
76.4939,494.61,512.5
76.515,496.29,512.8
76.536,497.83,513.04
76.5562,496.86,513.23
76.5759,497.09,512.58
76.5959,498.07,513.27
76.616,498.26,513.81
76.636,497.41,513.65
76.6559,497.73,512.92
76.676,499.58,512.34
76.6959,502.26,511.47
76.7161,502.01,510.58
76.736,501.21,511.06
76.7559,501.37,510.05
76.7759,501.69,510.04
76.796,502.36,511.23
76.816,502.28,511.98
76.836,503.03,512.39
76.8561,502.42,511.71
76.8759,501.74,511.57
76.8961,501.79,511.05
76.9159,501.83,510.24
76.9359,502.07,509.39
76.9569,501.85,509.72
76.977,501.88,509.77
76.9969,504.11,511.02
77.0169,504.68,511.01
77.037,504.55,513.21
77.057,505.84,513.97
77.077,505.87,514.58
77.0969,506.1,513.66
77.1169,505.08,512.93
77.1369,505.26,513.14
77.1569,504.81,511.91
77.177,505.25,512.13
77.1969,503.8,511.71
77.2171,504.04,511.16
77.237,504.63,511.93
77.257,503.9,511.35
77.2768,503.32,511.28
77.2969,503.06,510.82
77.317,502.25,512.06
77.3372,501.6,511.65
77.3571,501.68,511.52
77.377,502.54,511.01
77.3969,502.63,510.01
77.417,503.31,510.01
77.437,501.65,510.21
77.457,500.52,510.37
77.4771,501.01,511.09
77.4968,501.01,510.67
77.5171,500.81,510.74
77.5368,500.85,511.79
77.5569,500.88,511.63
77.577,501.7,512.11
77.5969,501.96,511.29
77.6171,501.77,510.63
77.6368,501.82,510.7
77.6569,502.25,510.36
77.6769,502.2,511.09
77.6969,503.56,510.87
77.7168,503.85,511.9
77.7369,503.48,511.52
77.757,504.18,511.01
77.777,503.95,511.01
77.797,504.56,510.21
77.817,504.65,509.97
77.837,502.72,509.97
77.857,503.57,510.78
77.8771,503.66,510.42
77.8969,504.13,510.94
77.917,504.1,510.75
77.9371,504.48,510.2
77.9569,503.99,510.16
77.9768,503.99,509.53
77.9969,502.79,509.62
78.0168,503.43,509.1
78.0371,503.35,508.68
78.0568,503.88,507.94
78.077,503.5,508.15
78.097,503.8,507.92
78.117,502.64,508.14
78.137,501.91,507.71
78.157,501.53,507.37
78.1769,502.42,508.1
78.197,503.34,507.48
78.2168,502.67,507.98
78.2368,502.54,508.38
78.2569,502.23,508.11
78.277,501.98,507.89
78.2968,501.99,508.31
78.3169,501.39,507.85
78.337,501.71,508.48
78.3569,501.57,508.58
78.377,502.46,508.27
78.3969,502.96,508.21
78.417,502.77,508.37
78.437,502.82,508.1
78.4569,502.45,509.28
78.477,501.56,508.82
78.4969,501.25,509.06
78.5169,500.8,509.45
78.537,501.04,510.36
78.557,500.43,510.29
78.577,500.95,511.03
78.5969,501.76,510.62
78.6169,501.81,509.3
78.6368,499.84,508.64
78.657,497.88,508.91
78.6767,497.7,508.53
78.6969,498.56,508.42
78.7168,499.65,508.74
78.737,500.12,508.99
78.7569,499.69,508.99
78.777,499.56,509.79
78.7971,499.84,510.04
78.817,500.28,511.23
78.837,500.42,510.58
78.857,501.54,510.47
78.877,501.63,511.17
78.8968,501.7,510.34
78.917,501.36,510.07
78.937,501.49,510.86
78.957,502.19,511.49
78.977,502.75,510.59
78.9969,502.8,510.27
79.0168,501.24,509.82
79.037,500.79,509.65
79.057,500.64,509.52
79.077,502.11,508.82
79.097,502.69,508.85
79.117,493.75,509.08
79.137,495.6,508.47
79.157,498.08,507.57
79.177,500.46,507.86
79.1969,501.77,507.89
79.217,504.22,507.71
79.2367,503.77,508.17
79.257,504.82,508.53
79.2769,504.45,503.03
79.2969,505.36,491.42
79.3171,505.49,474.74
79.3368,504.59,455.59
79.3572,504.07,436.87
79.3772,502.66,419.3
79.397,501.53,404.44
79.4169,499.02,392.55
79.4369,498.22,383.04
79.4567,497.17,377.03
79.4769,496.14,373.43
79.4968,495.71,373.94
79.517,495.97,376.95
79.537,496.58,382.76
79.557,497.86,389.61
79.577,498.89,397.49
79.5969,498.91,406.39
79.6169,498.53,415.11
79.6381,499.42,424.49
79.658,500.94,434.19
79.678,501.55,443.55
79.6978,502.64,452.04
79.719,503.11,460.03
79.7389,503.69,467.83
79.759,503.75,474.26
79.7791,503.2,479.41
79.7989,502.56,483.93
79.819,502.25,488.54
79.8389,501.6,492.03
79.8591,501.28,494.63
79.879,501.62,509.9
79.8991,504.1,539.52
79.9189,504.88,577.82
79.939,506.9,617.45
79.9589,507.32,651.16
79.9788,508.06,676.53
79.999,508.65,692.22
80.0189,510.32,699.18
80.039,510.05,693.94
80.059,510.84,678.75
80.079,509.87,660.2
80.0987,509.3,639.76
80.119,507.04,620.01
80.1438,505.63,601.81
80.159,505.51,586.45
80.179,505.2,573.56
80.1991,503.96,563.05
80.22,502.97,554.84
80.24,502.98,548.07
80.2599,502.98,542.66
80.2799,502.79,537.72
80.3,503.23,532.98
80.3201,504.38,529.38
80.34,505.31,526.51
80.3601,507.04,524.01
80.3801,507.64,522
80.3997,507.91,520.2
80.4199,507.33,519.16
80.4399,507.66,518.33
80.4599,505.73,518.06
80.48,506.78,518.25
80.4999,505.03,518.2
80.52,504.42,518.36
80.54,503.54,518.49
80.56,503.23,517.99
80.58,503.98,517.99
80.5998,504.99,518.19
80.62,505.39,517.56
80.6398,506.11,517.44
80.66,507.49,517.36
80.6801,507.99,517.48
80.6999,507.19,517.99
80.7199,506.35,518.79
80.7398,505.68,518.23
80.76,504.75,517.59
80.7801,504.2,517.67
80.7997,503.96,517.73
80.8201,503.17,517.59
80.84,503.93,517.27
80.86,504.35,517.02
80.8799,504.88,516.41
80.9002,504.3,516.53
80.92,505.64,516.42
80.94,506.31,515.74
80.9598,506.85,515.19
80.9797,506.48,515.55
80.9999,506.18,515.64
81.0199,506.75,516.11
81.0397,506.2,516.29
81.06,505.36,516.43
81.0799,504.89,516.15
81.0998,504.51,516.72
81.1199,505.41,516.57
81.1399,505.53,516.86
81.1599,504.62,517.29
81.1799,504.3,518.03
81.2001,503.24,517.62
81.2199,503.59,517.1
81.2399,503.07,517.08
81.2598,503.06,517.06
81.2797,502.65,517.25
81.2999,503.32,517.4
81.3199,504.65,517.32
81.3399,503.92,517.06
81.3599,504.34,517.05
81.3801,503.47,517.04
81.3999,503.18,516.43
81.4199,504.54,516.34
81.4399,504.83,515.87
81.4599,504.07,515.7
81.4799,504.25,514.76
81.4998,504,514.41
81.5197,504.6,514.33
81.5399,505.08,514.06
81.5597,505.47,514.45
81.5799,505.57,514.76
81.5999,505.06,514.61
81.6197,504.45,514.29
81.6399,503.96,514.63
81.6597,503.57,513.5
81.6797,503.85,513.8
81.6997,504.08,513.64
81.7208,504.27,513.91
81.7408,505.41,514.33
81.7609,505.73,514.46
81.7807,505.98,514.57
81.8009,504.99,514.46
81.8209,505.39,514.97
81.8409,505.31,514.57
81.861,504.85,514.46
81.8811,504.88,513.57
81.901,504.9,514.05
81.9208,505.32,513.24
81.9409,505.66,513.79
81.961,505.53,513.84
81.9807,505.62,514.07
82.0011,505.9,514.45
82.0208,505.52,514.56
82.0409,504.81,514.65
82.061,503.65,514.52
82.0808,503.32,515.42
82.101,503.66,515.53
82.1208,502.53,515.63
82.1409,502.62,515.1
82.1619,502.7,515.68
82.1818,502.56,515.14
82.2028,503.05,514.32
82.2229,503.04,514.25
82.2429,503.43,514.4
82.2629,502.94,514.52
82.2828,502.15,513.82
82.3029,501.12,513.65
82.3229,501.3,513.72
82.3427,501.44,513.98
82.3628,501.75,513.18
82.3827,502.4,512.75
82.4029,501.72,512.4
82.4229,501.98,512.92
82.4429,501.78,513.53
82.4628,502.03,512.83
82.4829,503.22,512.46
82.5031,502.98,512.57
82.5229,503.18,512.86
82.5427,503.34,513.28
82.5627,503.08,512.83
82.5828,502.66,512.86
82.6029,501.93,513.09
82.6227,501.74,513.27
82.6429,501.99,513.82
82.6628,502,513.85
82.6828,501.8,513.68
82.7029,501.64,512.95
82.7229,502.31,511.96
82.7429,501.65,512.17
82.7628,501.32,512.53
82.783,501.65,512.83
82.8029,500.92,513.06
82.8229,501.74,513.05
82.8431,501.79,512.44
82.8628,501.83,511.75
82.8829,501.67,512.6
82.9028,501.33,512.88
82.923,501.67,513.1
82.9428,501.73,512.48
82.9629,501.99,513.19
82.9838,501.19,513.55
83.0039,500.95,513.64
83.0237,500.56,514.11
83.0437,501.45,513.09
83.0638,501.56,512.27
83.0837,501.65,511.62
83.104,501.92,510.89
83.1239,501.33,511.51
83.1439,500.47,512.41
83.1637,500.57,512.53
83.1839,500.86,512.82
83.2038,501.29,513.06
83.2239,500.63,513.05
83.2439,501.5,511.84
83.2638,501.8,510.87
83.2837,501.44,510.5
83.3038,501.35,511
83.3237,500.88,510.8
83.3438,501.11,511.24
83.3636,500.49,510.59
83.3837,500.19,510.47
83.4039,499.95,510.18
83.4239,500.56,511.14
83.4439,501.25,511.51
83.4637,500,512.01
83.4839,499.4,511.61
83.5041,499.72,503.49
83.5239,499.98,488.99
83.5439,498.58,469.99
83.5638,496.46,449.19
83.5839,495.37,429.95
83.6039,492.7,413.16
83.6238,491.96,398.13
83.6438,491.57,387.1
83.6637,490.45,379.08
83.6839,491.36,374.67
83.7039,491.89,372.73
83.7238,492.51,374.39
83.7439,492.61,379.31
83.7637,495.09,386.45
83.7838,496.47,394.96
83.8039,497.38,404.37
83.8239,497.9,414.29
83.8437,498.12,424.43
83.8637,499.3,434.35
83.8839,499.04,443.88
83.9039,499.63,452.3
83.9237,499.5,459.84
83.9438,498.6,466.67
83.9637,497.88,471.94
83.9838,499.31,477.15
84.0038,499.24,481.92
84.0238,499.6,485.34
84.0439,500.28,488.67
84.0637,501.02,491.94
84.0839,501.42,503.95
84.1037,502.93,532.16
84.1239,504.15,569.33
84.1438,505.52,614.26
84.1638,508.01,651.81
84.1848,507.61,676.85
84.2049,507.09,681.88
84.2247,506.87,676.5
84.2449,505.3,663.6
84.2646,504.04,647.88
84.2849,502.03,631.11
84.305,501.22,615.08
84.3248,499.78,600.47
84.345,499.62,587.17
84.3651,498.5,575.14
84.3848,499.2,565.51
84.4048,499.56,556.21
84.4248,498.45,548.77
84.4448,497.56,542.61
84.4648,497.65,538.29
84.4847,496.92,534.43
84.5048,497.13,531.55
84.525,497.51,528.44
84.5449,498.01,525.95
84.5648,498.6,522.96
84.5859,498.68,520.37
84.6057,497.75,519.09
84.6258,498.2,517.28
84.6457,498.36,516.42
84.666,497.29,514.94
84.6858,496.63,513.55
84.7058,495.9,512.04
84.7258,494.72,511.63
84.7459,494.38,510.91
84.7657,495.1,511.32
84.7857,495.68,511.86
84.8059,494.55,512.49
84.8258,494.24,511.99
84.8458,493.59,511.59
84.8661,493.87,511.87
84.8859,493.9,510.9
84.9059,495.52,510.92
84.9257,496.21,510.14
84.9458,495.97,509.91
84.9658,495.38,508.93
84.9858,493.9,508.74
85.0069,493.92,508.19
85.0268,493.14,507.95
85.0467,492.71,508.16
85.0669,492.37,508.53
85.0867,492.69,512.82
85.1068,492.36,515.46
85.1269,493.48,516.97
85.1469,493.39,517.37
85.1668,494.11,517.3
85.1869,493.29,515.44
85.2068,492.43,515.15
85.2266,492.94,515.32
85.2477,491.56,514.06
85.2688,489.44,513.05
85.2888,486.96,511.84
85.3089,485.96,510.87
85.3288,484.97,510.7
85.3487,484.78,509.96
85.3699,483.62,509.97
85.3897,483.9,509.57
85.4099,484.12,509.66
85.4307,482.89,508.93
85.4518,483.12,508.94
85.4718,483.49,507.95
85.492,484.59,507.16
85.5128,484.88,506.13
85.5326,484.9,506.1
85.5529,484.92,505.68
85.5728,484.34,505.15
85.5928,485.67,505.32
85.6129,486.14,505.45
85.6326,486.91,505.36
85.6528,486.73,505.29
85.6727,486.58,504.63
85.6926,487.46,503.91
85.7129,486.97,504.12
85.7327,486.38,504.1
85.7527,489.5,503.88
85.7728,490.4,502.7
85.7928,490.72,502.56
85.8128,490.18,502.05
85.8329,490.34,501.84
85.8528,490.47,501.67
85.8727,490.18,501.34
85.8928,489.34,502.07
85.9128,488.67,502.06
85.9326,488.94,502.04
85.9526,487.95,502.04
85.9726,487.76,502.63
85.9927,486.61,501.7
86.0126,486.49,501.96
86.0326,485.59,501.77
86.0526,484.07,501.42
86.0728,483.06,500.53
86.0928,483.05,500.83
86.1129,482.84,500.86
86.1331,482.67,501.09
86.1528,482.74,500.87
86.1729,482.79,500.5
86.1926,484.03,499.4
86.2127,484.22,499.32
86.2326,484.58,499.25
86.2528,484.06,499
86.2728,483.65,499
86.2928,483.32,499.8
86.3128,483.86,500.24
86.3327,483.69,498.19
86.3526,484.75,496.55
86.3726,486,496.04
86.3928,486.8,495.84
86.4128,487.24,496.07
86.433,487.19,496.25
86.4529,486.95,496
86.4728,486.36,496.2
86.4927,486.89,497.16
86.5129,486.11,497.73
86.5336,487.49,498.78
86.5538,487.79,499.83
86.5737,488.23,500.46
86.5937,488.39,500.57
86.6136,489.11,501.06
86.6336,489.29,501.04
86.6539,489.03,501.24
86.6737,489.22,500.99
86.6938,489.18,501.59
86.7136,488.94,501.47
86.7336,488.75,501.78
86.7536,489,501.62
86.7737,488.4,501.7
86.7937,488.92,502.16
86.8137,488.54,501.73
86.8347,488.23,501.18
86.8545,488.38,501.55
86.8746,488.71,502.24
86.8948,488.77,502.39
86.9146,489.61,502.91
86.9349,489.89,502.33
86.9548,489.71,502.06
86.9748,489.17,501.65
86.9947,488.14,502.52
87.0146,488.51,502.62
87.0348,488.21,502.69
87.0548,489.17,503.15
87.0749,489.13,503.52
87.0948,490.11,504.02
87.1147,490.28,504.42
87.1349,490.43,504.13
87.1548,490.74,503.91
87.1748,490.79,504.12
87.1948,489.64,503.9
87.2146,489.51,504.32
87.2357,490.41,504.06
87.2558,490.73,504.64
87.2758,492.78,505.12
87.2958,493.62,505.49
87.3156,493.5,505.59
87.3358,493,504.88
87.3556,493.8,504.7
87.3758,494.64,504.96
87.3958,495.31,505.17
87.4157,494.65,504.93
87.4357,494.72,505.15
87.4568,496.18,505.52
87.4768,496.74,505.81
87.4967,497.59,506.25
87.5166,497.87,506.6
87.5378,499.5,506.88
87.5577,499.6,506.7
87.5776,500.28,506.16
87.5978,500.62,506.13
87.6178,501.5,506.1
87.6378,501.4,506.68
87.6578,501.52,506.35
87.6778,501.42,506.28
87.6975,501.93,506.42
87.7178,502.55,508.14
87.7378,502.64,509.31
87.7577,501.71,509.65
87.7778,500.77,510.32
87.7977,500.41,510.45
87.8177,500.53,511.36
87.8378,501.62,511.89
87.8575,500.1,511.51
87.8778,499.68,511.81
87.8978,499.94,512.05
87.9178,499.96,509.64
87.9378,499.76,498.51
87.9577,498.01,482.21
87.9777,495.81,461.97
87.9977,496.05,442.97
88.0176,495.64,427.38
88.0386,496.71,414.7
88.0587,497.57,404.96
88.0786,498.65,397.97
88.0988,499.52,392.78
88.1187,500.22,389.82
88.1387,499.78,389.66
88.1587,498.82,390.53
88.1796,499.66,392.82
88.1997,501.92,397.06
88.2196,503.54,403.04
88.2398,504.83,409.64
88.2598,505.07,416.71
88.2798,504.25,423.97
88.2996,505,431.57
88.3198,504.8,439.86
88.3397,504.84,447.69
88.3597,505.27,455.15
88.3799,505.22,462.32
88.3996,505.97,468.06
88.4196,505.58,473.84
88.4398,505.86,479.48
88.4595,505.89,484.18
88.4795,507.31,488.14
88.4997,507.45,491.32
88.5197,507.36,494.65
88.5397,506.69,497.52
88.5597,506.15,500.02
88.5798,506.72,509.41
88.5997,506.78,530.33
88.6195,509.02,562.07
88.6397,510.82,599.25
88.6597,513.05,634.4
88.6798,513.84,661.72
88.6997,514.87,681.18
88.7197,513.1,690.14
88.7397,511.88,685.91
88.7597,509.9,672.33
88.7798,508.12,654.26
88.7996,507.5,636.61
88.8198,506,618.89
88.8397,505.8,602.51
88.8598,505.84,588.01
88.8799,506.07,576.41
88.8996,505.86,565.53
88.9198,504.89,556.62
88.9398,503.51,549.1
88.9597,503.81,542.68
88.9798,504.25,536.34
88.9997,504,532.07
89.0197,504.4,528.86
89.0398,503.72,526.29
89.0598,503.77,524.23
89.0796,504.02,522.58
89.0997,504.22,520.87
89.1196,504.17,519.49
89.1396,504.54,518.39
89.1598,504.83,517.52
89.1796,505.26,517.21
89.1997,505.61,517.77
89.2198,506.29,517.42
89.2398,505.83,517.73
89.2597,505.07,517.79
89.2798,505.45,517.83
89.2998,505.76,517.66
89.3197,506.01,517.53
89.3396,507.01,516.22
89.3598,508.61,515.78
89.3796,508.08,515.82
89.3997,507.27,515.46
89.4196,508.81,515.57
89.4398,508.25,515.85
89.4598,507,515.28
89.4798,506.8,515.23
89.4997,506.24,514.98
89.5198,506.19,515.18
89.5398,506.15,515.55
89.5598,506.12,515.44
89.5799,507.7,514.95
89.5997,507.36,514.76
89.6199,507.09,514.41
89.6397,506.27,514.93
89.6597,506.42,514.14
89.6797,506.13,513.11
89.6997,505.91,513.29
89.7197,504.92,512.43
89.7397,504.54,512.75
89.7598,504.83,512.2
89.7795,504.67,512.56
89.7996,504.73,512.85
89.8195,504.79,512.28
89.8399,505.23,512.82
89.8597,506.98,515.06
89.8798,507.59,516.65
89.9,506.47,517.12
89.9197,506.38,518.09
89.9397,506.9,518.27
89.9597,506.92,517.82
89.9798,508.34,517.46
89.9999,507.87,517.16
90.0197,507.9,515.73
90.0398,507.72,515.39
90.0598,507.97,515.11
90.0797,507.98,515.29
90.0997,508.18,515.43
90.1197,507.55,515.94
90.1397,506.44,515.95
90.1598,505.35,515.96
90.1798,505.08,516.17
90.1995,505.06,515.74
90.2197,504.25,515.99
90.2397,503.8,516.19
90.2597,504.84,515.75
90.2798,504.87,514.8
90.2999,504.5,515.24
90.3196,504.2,515.59
90.3397,504.56,516.27
90.3606,505.25,516.62
90.3816,504.8,516.7
90.4027,504.04,516.96
90.4237,504.03,517.57
90.4437,503.62,518.45
90.4635,503.5,518.56
90.4837,502.4,518.25
90.5035,501.52,518
90.5238,501.42,518
90.5438,501.93,517.8
90.5637,501.95,517.24
90.5837,500.96,516.79
90.6037,500.37,516.03
90.6238,499.89,515.63
90.6436,500.11,515.3
90.6636,500.49,514.44
90.6844,499.99,514.35
90.7045,500.19,514.48
90.7246,499.76,515.19
90.7444,498.8,515.95
90.7645,498.84,516.56
90.7845,498.87,516.25
90.8049,498.7,516
90.8247,499.36,515.6
90.8445,499.69,515.08
90.8645,499.35,514.06
90.8847,499.48,514.85
90.9048,497.98,515.08
90.9247,497.39,514.26
90.9448,497.51,514.41
90.9645,497.81,513.73
90.9845,498.45,513.58
91.0048,497.76,513.67
91.0247,497.21,512.93
91.0448,496.16,512.15
91.0645,495.93,511.72
91.0857,495.15,510.97
91.1055,494.92,510.78
91.1257,494.53,510.62
91.1455,495.03,510.7
91.1656,494.82,511.76
91.1857,495.66,512.41
91.2056,496.53,513.13
91.2257,496.82,513.3
91.2458,496.86,514.04
91.2658,496.49,515.03
91.2855,496.19,514.83
91.3057,496.35,513.26
91.3255,496.48,512.41
91.3455,495.78,512.53
91.3658,496.83,512.02
91.3855,495.46,511.42
91.4056,495.37,511.13
91.4257,494.9,510.91
91.4457,494.52,511.53
91.4659,494.41,511.42
91.4857,493.93,510.74
91.5056,494.74,511.19
91.5257,495.2,511.15
91.5458,495.96,511.12
91.5657,494.97,510.7
91.5857,494.77,511.36
91.6057,493.82,511.09
91.6256,493.85,510.87
91.6457,494.08,511.5
91.6658,494.27,511
91.6856,494.01,510.8
91.7057,493.41,510.44
91.7257,493.33,511.15
91.7457,492.86,510.92
91.7655,492.89,511.54
91.7858,492.31,511.03
91.8057,492.65,510.62
91.8257,492.92,510.1
91.8457,492.94,510.68
91.8656,492.95,511.94
91.8856,493.96,512.75
91.9057,491.77,508.8
91.9257,488.41,502.44
91.9457,487.33,491.95
91.9655,487.06,479.36
91.9856,484.85,467.49
92.0057,484.28,454.99
92.0257,482.03,441.99
92.0457,480.22,428.4
92.0656,479.78,415.72
92.0858,478.82,404.97
92.1058,479.26,396.18
92.1255,480.61,389.34
92.1457,482.68,385.47
92.1657,484.15,383.58
92.1855,486.12,384.26
92.2057,486.29,386.61
92.2257,486.24,391.29
92.2456,486.99,397.83
92.2658,487.19,404.46
92.2857,487.55,412.37
92.3057,486.44,420.1
92.3257,485.95,429.08
92.3457,485.96,438.06
92.3659,486.77,446.05
92.3857,487.82,454.24
92.4057,488.25,462.19
92.4257,490.2,468.55
92.4457,490.76,474.24
92.4655,491.41,479.79
92.4855,490.93,484.84
92.5057,491.54,489.47
92.5257,491.83,492.37
92.5457,491.27,498.1
92.5657,493.21,518.08
92.5858,495.77,549.46
92.6057,499.22,587.57
92.6257,503.77,623.06
92.6456,507.42,654.85
92.6654,510.53,680.48
92.6857,512.63,698.18
92.7056,513.9,699.74
92.7254,513.12,689.8
92.7456,512.5,673.84
92.7658,510.4,654.87
92.7857,507.92,636.7
92.8056,506.33,619.56
92.8258,503.87,603.25
92.8456,502.49,589.2
92.8655,501.4,576.56
92.8857,499.92,565.65
92.9057,498.73,556.32
92.9257,498.59,548.85
92.9457,497.47,542.68
92.9657,496.58,536.15
92.9854,495.06,532.72
93.0056,495.65,529.97
93.0256,495.52,527.58
93.0457,495.81,525.46
93.0657,495.45,523.57
93.0856,494.36,521.66
93.1056,494.69,520.73
93.1256,493.95,518.58
93.1456,494.76,516.46
93.1659,495.41,514.37
93.1856,495.33,512.9
93.2059,493.46,511.72
93.2257,494.17,511.37
93.2458,493.14,511.7
93.2655,494.31,511.56
93.2857,494.45,510.65
93.3055,495.16,509.52
93.3254,494.33,509.01
93.3458,493.66,510.61
93.3657,493.93,511.29
93.3857,494.74,511.23
93.4057,493.59,510.99
93.4257,492.28,510.79
93.4457,491.82,511.23
93.4657,492.06,511.18
93.4857,492.45,510.75
93.5057,492.56,510.4
93.5256,492.84,510.32
93.5455,492.68,511.05
93.5659,492.94,511.64
93.5856,493.15,511.12
93.6057,492.52,510.29
93.6257,492.22,509.63
93.6456,492.37,508.91
93.6655,491.9,509.13
93.6855,493.12,509.1
93.7057,493.5,509.08
93.7258,493,509.06
93.7455,492.6,508.65
93.7654,492.88,508.12
93.7856,492.5,507.5
93.8057,492.8,508.8
93.8257,492.64,509.24
93.8454,492.91,509.19
93.8654,493.93,510.95
93.8856,494.74,510.16
93.9057,494.8,510.93
93.9257,495.64,511.34
93.9456,496.31,511.07
93.9655,495.65,510.86
93.9856,494.72,511.89
94.0057,493.97,512.71
94.0257,492.38,513.17
94.0457,491.3,513.13
94.0654,491.04,513.51
94.0857,492.43,513.61
94.1057,492.55,513.68
94.1257,493.64,513.15
94.1457,493.31,513.52
94.1657,492.85,513.61
94.1857,491.28,513.69
94.2057,491.02,513.95
94.2256,490.22,514.56
94.2457,489.97,514.45
94.2654,489.58,514.36
94.2856,490.46,515.29
94.3057,490.77,514.83
94.3257,490.42,514.46
94.3456,489.73,513.57
94.3658,490.19,513.86
94.3856,490.55,513.29
94.4057,490.24,512.63
94.4257,490.79,512.7
94.4457,491.63,512.16
94.4657,492.11,511.93
94.4856,492.09,512.34
94.5057,491.67,513.28
94.5256,490.53,513.62
94.5456,490.43,513.7
94.5654,489.74,513.16
94.5857,490.39,513.33
94.6058,490.51,513.86
94.6257,491.41,513.89
94.6457,492.53,513.11
94.6657,492.62,512.49
94.6855,492.7,512.59
94.7057,492.96,513.67
94.7256,492.57,513.74
94.7456,492.45,514.19
94.7653,491.96,514.15
94.7856,491.77,513.52
94.8056,491.62,512.02
94.8257,491.09,511.81
94.8455,490.87,512.05
94.8653,490.7,512.44
94.8858,490.36,512.55
94.9057,490.69,512.24
94.9255,491.95,511.79
94.9456,491.76,510.44
94.9655,491.61,509.95
94.9854,491.09,509.16
95.0056,491.87,510.53
95.0255,491.5,513.02
95.0454,491.8,514.22
95.0654,491.64,515.17
95.0855,492.11,514.74
95.1055,491.69,515.39
95.1253,491.55,515.71
95.1455,491.24,515.77
95.1655,490.79,516.02
95.1854,489.43,516.21
95.2055,487.35,514.97
95.2254,487.28,513.78
95.2454,487.22,514.02
95.2655,487.98,514.22
95.2855,489.38,513.57
95.3055,489.71,512.26
95.3264,489.76,511.61
95.3466,489.81,510.49
95.3665,489.25,510.39
95.3865,488.8,510.11
95.4065,488.84,509.69
95.4266,488.87,509.75
95.4464,488.3,509.6
95.4665,487.84,509.08
95.4863,487.67,509.26
95.5065,485.94,508.41
95.5265,485.95,507.93
95.5466,485.16,507.54
95.5664,485.53,507.03
95.5865,485.82,506.63
95.6065,485.26,506.9
95.6264,484.61,508.12
95.6465,485.68,508.3
95.6665,484.95,508.44
95.6865,485.16,508.55
95.7065,484.53,508.24
95.7266,485.22,508.59
95.7464,486.18,508.87
95.7665,485.54,508.9
95.7865,485.63,508.52
95.8064,484.31,508.22
95.8266,484.05,507.77
95.8464,483.84,508.42
95.8665,483.67,508.93
95.8866,484.34,509.95
95.9064,484.67,509.96
95.9265,484.73,509.37
95.9464,484.19,508.69
95.9664,484.75,508.55
95.9865,484.2,508.84
96.0066,484.76,509.07
96.0266,485.01,508.66
96.0468,485.21,507.53
96.0665,484.37,507.42
96.0864,484.89,507.14
96.1066,484.31,507.11
96.1265,484.65,506.49
96.1464,484.92,506.59
96.1665,485.14,506.47
96.1865,484.91,506.58
96.2064,486.53,507.86
96.2266,485.42,511.49
96.2465,487.14,510.19
96.2665,486.31,504.95
96.2865,486.45,493.16
96.3064,486.36,479.53
96.3265,486.09,461.82
96.3465,484.67,443.66
96.3665,483.34,425.13
96.3875,481.27,407.9
96.4073,479.81,393.12
96.4275,478.25,381.3
96.4474,476.8,373.24
96.4674,476.24,370.39
96.4875,476.59,370.31
96.5075,478.07,372.45
96.5275,478.86,377.16
96.5476,480.29,384.53
96.5675,482.43,393.02
96.5875,484.14,402.62
96.6075,484.52,413.49
96.6275,485.01,423.4
96.6473,484.61,432.92
96.6678,484.69,442.13
96.6876,484.15,450.11
96.7076,484.12,457.69
96.7276,483.9,464.35
96.7473,483.92,470.08
96.7677,484.93,475.66
96.7875,485.15,489.93
96.8077,486.12,515.34
96.8275,488.49,547.48
96.8474,489.8,579.98
96.8674,490.84,608.58
96.8876,492.47,630.67
96.9074,491.78,649.73
96.9275,490.02,663.59
96.9473,487.62,672.47
96.9675,486.29,673.18
96.9875,483.63,662.94
97.0077,481.91,648.35
97.0274,482.53,632.88
97.0475,483.42,616.31
97.0677,481.14,601.04
97.0874,480.51,586.64
97.1076,479.01,573.71
97.1275,479.61,562.77
97.1474,479.48,553.01
97.1676,479.99,545.21
97.1875,481.99,537.97
97.2075,484.59,531.77
97.2275,485.87,525.82
97.2473,486.5,521.26
97.2676,488.2,518
97.2876,489.16,514.8
97.3074,489.33,512.24
97.3275,488.86,509.99
97.3474,489.29,508.4
97.3675,488.43,507.12
97.3876,487.35,506.29
97.4074,486.48,505.63
97.4273,484.98,504.91
97.4473,483.38,504.93
97.4673,483.11,505.14
97.4873,482.89,505.31
97.5073,483.51,504.65
97.5273,484.01,504.32
97.5473,484.21,504.46
97.5673,483.16,504.76
97.5873,484.33,505.01
97.6074,485.27,505.41
97.6274,485.41,505.33
97.6475,484.53,506.06
97.6675,485.22,506.65
97.6876,485.38,506.52
97.7075,485.3,506.62
97.7275,484.84,506.89
97.7473,484.67,507.31
97.7676,485.94,507.05
97.7876,485.95,506.84
97.8075,485.56,506.47
97.8275,485.65,506.58
97.8474,486.52,506.66
97.8675,486.42,506.73
97.8875,485.93,506.58
97.9073,484.95,506.67
97.9275,484.56,506.33
97.9477,484.45,506.07
97.9675,484.36,506.05
97.9875,483.69,505.84
98.0075,483.35,506.07
98.0275,483.68,506.26
98.0475,484.34,506.21
98.0674,484.27,505.57
98.0875,483.82,505.85
98.1075,483.46,505.88
98.1273,483.16,505.91
98.1473,482.73,505.72
98.1676,483.19,505.78
98.1877,482.75,506.02
98.2075,482.8,506.22
98.2274,483.64,505.78
98.2473,483.31,505.02
98.2675,483.85,505.22
98.2875,484.48,505.37
98.3075,484.18,504.9
98.3275,483.95,505.12
98.3473,484.16,505.49
98.3677,484.53,505.8
98.3876,484.82,505.84
98.4076,485.86,505.07
98.4275,486.69,505.26
98.4473,486.95,504.4
98.4675,486.56,504.32
98.4876,486.45,504.46
98.5075,485.56,504.97
98.5274,484.85,505.17
98.5473,485.48,505.34
98.5675,485.18,504.87
98.5875,485.15,504.9
98.6076,483.72,505.12
98.6276,482.57,505.49
98.6473,483.46,505.6
98.6674,483.37,505.88
98.6875,483.69,506.3
98.7075,483.55,505.44
98.7275,484.24,506.15
98.7475,483.19,505.92
98.7675,483.36,506.14
98.7876,482.88,506.31
98.8075,482.91,506.45
98.8275,482.13,506.36
98.8473,482.1,506.29
98.8677,482.88,506.23
98.8876,482.5,506.58
98.9075,483.2,506.87
98.9274,484.16,507.09
98.9473,484.73,507.27
98.9676,484.18,506.82
98.9875,484.75,507.46
99.0075,484.8,506.96
99.0274,485.24,506.17
99.0473,485.79,504.94
99.0675,486.03,503.55
99.0875,486.23,502.84
99.1076,486.38,502.67
99.1273,486.9,502.54
99.1473,485.92,502.43
99.1677,484.54,502.34
99.1875,484.03,501.48
99.2073,483.62,501.58
99.2275,484.5,501.66
99.2473,484.2,501.53
99.2676,483.76,501.63
99.2876,483.61,502.5
99.3075,483.49,503.4
99.3275,483.79,504.12
99.3473,484.03,504.5
99.3674,484.23,505.6
99.3874,484.78,505.68
99.4075,484.82,505.74
99.4274,485.06,505.39
99.4473,485.85,505.11
99.4675,485.88,504.69
99.4876,484.3,504.75
99.5075,483.64,504.4
99.5274,484.11,504.12
99.5473,483.89,503.7
99.5675,483.51,502.96
99.5875,483.21,502.97
99.6075,482.77,503.37
99.6275,482.41,503.9
99.6474,482.93,504.12
99.6675,483.55,504.7
99.6875,484.04,504.76
99.7075,484.63,505
99.7275,484.9,505.2
99.7473,484.72,505.56
99.7673,484.38,505.65
99.7873,484.5,506.52
99.8073,485,506.62
99.8274,485.8,506.69
99.8475,486.04,506.55
99.8674,486.03,506.44
99.8873,485.43,506.55
99.9075,485.54,506.04
99.9275,485.23,506.64
99.9473,485.59,505.91
99.9676,485.67,505.93
99.9875,485.94,505.94
100.007,486.15,505.75
100.028,485.72,505.4
100.047,485.57,504.92
100.068,485.66,504.94
100.087,485.93,504.75
100.107,485.14,505
100.127,484.71,505
100.147,484.17,505
100.167,483.94,504.6
100.188,484.35,504.68
100.207,484.68,504.14
100.227,484.94,503.92
100.247,484.15,503.73
100.267,484.72,503.39
100.287,484.78,503.31
100.307,485.02,503.25
100.327,484.62,503.4
100.348,484.89,503.32
100.368,485.32,503.85
100.388,485.05,504.48
100.407,485.64,503.99
100.427,485.71,503.59
100.447,484.77,504.27
100.468,485.22,504.82
100.488,484.77,505.65
100.508,485.02,505.32
100.527,485.82,505.06
100.547,485.85,505.05
100.567,485.88,505.04
100.587,484.31,505.23
100.607,483.64,505.58
100.628,483.52,505.47
100.647,483.81,504.97
100.667,484.05,505.18
100.687,484.24,505.54
100.708,485.19,505.63
100.728,484.35,505.91
100.747,483.28,502.73
100.768,484.23,493.18
100.787,483.98,478.54
100.807,482.98,458.44
100.827,481.79,438.55
100.847,482.63,419.44
100.868,483.1,403.15
100.887,483.68,390.32
100.908,484.15,381.06
100.927,485.12,374.85
100.947,485.09,371.68
100.967,484.68,372.14
100.987,484.54,375.11
101.008,485.03,380.49
101.027,484.43,386.59
101.047,481.54,394.27
101.067,481.63,402.42
101.087,482.11,411.14
101.107,482.08,420.91
101.127,483.07,431.33
101.147,484.45,441.86
101.167,485.56,450.49
101.187,486.65,458.19
101.207,486.72,464.55
101.227,487.38,470.04
101.247,487.3,475.43
101.268,487.64,480.15
101.288,488.11,489.12
101.307,488.49,509.49
101.327,487.19,538.6
101.347,484.75,571.88
101.368,481.4,605.9
101.387,480.52,633.92
101.407,482.42,656.54
101.427,485.93,672.23
101.447,490.15,677.98
101.468,492.52,670.59
101.487,493.01,656.67
101.508,494.01,639.54
101.527,494.21,622.23
101.547,493.37,605.58
101.567,492.69,590.87
101.587,491.56,577.49
101.607,489.84,566.19
101.627,488.68,556.96
101.647,487.74,549.16
101.667,487.99,542.33
101.687,486.79,535.87
101.708,486.23,530.69
101.727,486.19,526.35
101.747,485.35,522.28
101.768,486.88,519.23
101.787,487.7,516.58
101.807,487.36,514.66
101.827,488.29,512.93
101.847,487.03,511.35
101.867,486.83,510.48
101.887,487.66,509.38
101.907,487.33,508.9
101.927,486.86,508.32
101.947,487.49,508.46
101.967,488.19,507.97
101.987,488.15,507.37
102.007,488.32,507.1
102.027,489.26,506.68
102.047,489.01,506.54
102.067,489.01,506.63
102.087,489.2,506.71
102.107,489.16,507.17
102.127,488.73,507.53
102.147,488.58,508.63
102.167,488.67,507.9
102.187,489.13,507.92
102.207,488.11,507.54
102.227,487.49,507.43
102.247,487.79,507.14
102.267,488.83,506.31
102.287,488.86,506.25
102.307,488.89,506.8
102.327,489.31,507.44
102.348,489.85,506.95
102.367,490.28,505.96
102.387,490.02,505.77
102.407,490.82,505.22
102.427,490.66,505.57
102.447,490.92,505.66
102.467,490.14,505.73
102.487,490.31,506.18
102.507,489.45,505.94
102.528,489.36,505.36
102.547,490.29,505.68
102.568,489.63,505.55
102.587,489.3,504.64
102.607,488.04,504.91
102.627,488.63,505.73
102.647,488.11,505.78
102.667,488.49,506.03
102.687,488.19,506.42
102.707,488.15,506.54
102.727,487.72,506.43
102.747,487.58,506.74
102.767,488.06,506.59
102.787,488.05,505.28
102.807,488.64,504.62
102.827,488.11,503.9
102.847,488.69,503.92
102.867,488.75,504.73
102.887,489.2,504.99
102.907,487.96,505.19
102.927,487.77,505.15
102.947,487.41,505.12
102.967,486.93,504.3
102.987,487.55,504.04
103.007,486.64,504.23
103.027,487.31,503.98
103.047,486.65,503.59
103.067,487.32,503.07
103.087,487.25,502.86
103.107,487,503.48
103.127,487,503.59
103.147,487.2,504.47
103.167,488.56,504.58
103.187,487.45,504.26
103.207,487.76,504.41
103.227,487.21,504.93
103.247,486.57,505.34
103.267,485.45,506.47
103.287,485.96,507.38
103.307,486.97,507.7
103.327,486.98,508.16
103.347,486.18,508.53
103.368,485.94,508.82
103.387,486.76,509.06
103.407,486.8,508.65
103.427,487.44,508.32
103.447,487.95,507.65
103.467,488.16,507.32
103.487,488.33,506.86
103.507,488.26,507.29
103.527,488.01,507.03
103.547,486.81,507.22
103.567,486.65,507.38
103.587,486.72,507.9
103.607,487.17,507.72
103.627,487.14,508.38
103.647,487.91,508.7
103.667,487.33,508.36
103.687,486.86,508.09
103.707,486.69,507.67
103.727,487.15,506.74
103.747,487.12,506.19
103.767,487.5,506.15
103.788,487.4,505.92
103.807,487.92,506.14
103.827,486.93,506.11
103.847,485.95,505.69
103.867,486.16,505.55
103.887,484.73,505.04
103.907,484.18,504.63
103.927,483.75,504.31
103.947,483.8,504.44
103.967,484.44,504.76
103.987,485.55,505.2
104.007,485.04,505.36
104.027,485.03,505.69
104.047,485.83,505.15
104.067,486.26,504.92
104.087,487.01,505.14
104.107,486.81,505.31
104.127,487.45,505.65
104.147,486.76,505.32
104.167,486.8,504.65
104.187,486.64,505.12
104.207,486.52,505.3
104.227,486.21,505.24
104.247,486.17,505.59
104.267,487.34,504.87
104.287,487.07,505.1
104.307,486.25,505.28
104.327,486.2,505.82
104.347,485.96,505.46
104.367,486.17,505.37
104.387,486.34,505.29
104.407,485.07,505.23
104.427,485.26,505.19
104.447,486.2,504.55
104.467,486.76,504.24
104.487,488.01,503.79
104.507,489.01,503.23
104.527,489.41,503.39
104.547,489.53,504.11
104.567,488.82,505.09
104.587,489.26,505.27
104.607,489.21,505.22
104.627,488.76,504.57
104.647,488.01,504.46
104.667,487.61,504.97
104.687,486.29,505.17
104.707,485.63,504.34
104.727,485.5,501.67
104.747,485.8,499.94
104.767,486.84,498.55
104.787,487.67,497.84
104.807,488.14,497.07
104.827,488.71,496.86
104.847,488.17,496.69
104.867,487.94,496.35
104.887,487.75,496.08
104.907,488,496.46
104.927,487.4,496.97
104.947,487.92,497.78
104.967,488.14,498.62
104.987,488.71,499.1
105.007,488.17,499.48
105.027,488.33,500.58
105.047,488.47,501.47
105.067,488.57,502.37
105.087,489.06,503.1
105.107,489.05,503.48
105.127,488.64,503.58
105.147,487.91,503.67
105.167,488.33,503.53
105.187,488.06,503.63
105.207,488.65,503.9
105.227,488.72,504.12
105.247,488.38,505.1
105.267,487.7,506.88
105.287,488.16,504.5
105.307,490.53,496
105.327,493.02,482.6
105.347,494.42,464.48
105.367,496.73,445.78
105.387,496.39,428.43
105.407,496.11,413.34
105.427,493.29,399.27
105.447,489.43,387.02
105.468,487.74,377.82
105.488,485.2,373.25
105.508,483.96,372.6
105.528,482.97,373.88
105.548,482.17,377.71
105.568,482.54,383.56
105.588,482.43,391.25
105.608,481.34,399.8
105.628,481.68,409.64
105.648,480.74,418.71
105.668,481.99,428.37
105.688,482.79,437.7
105.708,483.03,445.16
105.728,484.23,452.73
105.748,484.78,459.58
105.768,485.63,466.46
105.788,485.7,472.17
105.808,486.36,476.54
105.828,488.69,496.83
105.848,490.95,528.26
105.868,491.56,567.01
105.888,493.65,607.61
105.908,496.32,639.09
105.928,498.06,664.27
105.948,501.04,679.62
105.968,501.84,684.69
105.988,501.07,677.55
106.008,500.45,663.24
106.028,499.96,647.19
106.049,498.17,630.96
106.068,497.54,615.16
106.088,496.23,599.73
106.108,495.38,586.39
106.128,494.51,574.91
106.148,494.61,564.73
106.168,494.68,555.58
106.188,495.55,548.27
106.208,495.04,542.21
106.228,494.03,536.77
106.249,494.62,532.62
106.268,493.5,526.89
106.29,492.8,520.51
106.308,492.84,516.41
106.328,491.27,512.93
106.348,490.62,510.74
106.368,490.29,508.99
106.388,490.24,507.6
106.408,489.39,506.48
106.428,489.71,506.18
106.448,489.57,505.34
106.468,489.85,504.68
106.488,490.68,504.34
106.508,489.55,504.47
106.528,490.04,504.78
106.548,490.23,504.82
106.568,489.38,504.86
106.588,490.31,505.09
106.608,490.45,504.67
106.629,491.16,505.54
106.649,491.13,505.83
106.669,491.7,507.46
106.689,492.36,507.77
106.709,492.69,507.42
106.729,492.95,507.13
106.749,494.36,507.91
106.769,494.29,508.13
106.789,494.83,508.7
106.809,494.66,508.76
106.829,494.33,509.81
106.849,494.07,509.65
106.869,493.85,510.72
106.889,494.68,511.37
106.909,495.15,510.9
106.929,495.52,511.52
106.949,495.81,511.82
106.969,495.45,512.25
106.989,495.76,512
107.009,495.41,512.2
107.029,495.93,512.36
107.049,494.94,512.69
107.069,495.15,512.75
107.089,495.12,512
107.109,495.5,511.6
107.129,496.2,511.88
107.149,495.56,512.3
107.169,495.45,511.64
107.189,494.36,511.11
107.209,495.09,510.49
107.229,495.47,509.99
107.249,495.38,509.99
107.269,495.9,509.8
107.289,495.52,509.64
107.309,495.42,509.71
107.329,495.13,509.37
107.349,494.51,509.49
107.369,494.61,509
107.389,493.88,508.4
107.409,493.91,507.72
107.429,493.93,507.37
107.449,494.34,507.3
107.469,494.27,506.44
107.489,494.02,505.75
107.509,494.21,505.2
107.53,494.17,504.96
107.549,495.14,505.57
107.569,494.31,505.85
107.589,494.65,505.88
107.609,494.72,506.51
107.629,495.57,507.41
107.649,496.66,507.12
107.669,496.33,507.7
107.689,496.86,508.76
107.709,497.49,509.21
107.729,497.99,508.77
107.749,497.19,508.21
107.769,497.35,508.37
107.789,496.88,507.9
107.809,495.91,507.12
107.829,495.53,506.29
107.849,495.02,506.83
107.869,495.42,506.67
107.889,493.53,506.73
107.909,493.23,506.79
107.929,492.78,506.83
107.949,494.02,507.46
107.969,494.02,507.37
107.989,494.82,507.5
108.009,494.85,507
108.029,494.68,506.8
108.049,495.15,506.64
108.069,495.92,505.91
108.089,495.53,505.13
108.109,495.03,505.1
108.129,495.02,505.48
108.149,496.22,505.39
108.169,495.97,505.71
108.189,495.78,505.77
108.209,496.02,505.61
108.229,496.62,506.49
108.249,496.09,506.59
108.269,495.88,507.47
108.289,496.3,507.18
108.309,496.84,507.74
108.329,496.27,507.59
108.349,497.02,508.28
108.369,496.21,508.62
108.389,495.97,508.1
108.41,494.78,507.68
108.429,494.62,508.14
108.449,494.5,510.11
108.469,495,509.89
108.489,495,508.71
108.509,496.2,507.97
108.529,496.56,509.18
108.549,495.85,509.54
108.569,494.88,509.23
108.589,494.9,508.39
108.609,493.92,508.11
108.629,493.34,507.89
108.649,492.67,507.91
108.669,492.94,508.13
108.689,493.95,507.9
108.709,495.16,507.72
108.729,495.13,508.18
108.749,495.5,508.34
108.769,496.6,508.07
108.789,496.68,507.86
108.809,497.74,508.29
108.829,497.4,508.03
108.849,497.52,507.82
108.869,496.81,507.26
108.889,496.25,507.21
108.909,495.8,507.37
108.929,495.44,507.69
108.949,494.75,507.35
108.969,494.6,507.48
108.989,495.28,507.39
109.009,494.03,507.31
109.029,495.02,507.85
109.049,494.22,506.88
109.069,494.37,506.7
109.089,495.1,506.56
109.109,494.88,506.25
109.129,494.9,506.2
109.149,495.72,506.16
109.169,496.78,505.93
109.189,496.02,505.74
109.209,496.42,505.99
109.229,496.93,506.2
109.249,496.55,506.16
109.269,497.84,506.12
109.289,498.67,506.7
109.309,497.94,506.96
109.329,497.75,507.57
109.349,498,508.05
109.369,498.2,509.84
109.389,498.36,507.47
109.409,497.69,498.98
109.429,496.95,484.38
109.449,496.56,468.71
109.469,497.45,453.17
109.489,497.36,438.93
109.509,497.29,425.15
109.529,496.63,412.32
109.549,495.5,401.25
109.569,493.4,392.4
109.589,492.52,385.92
109.609,490.42,383.14
109.629,490.33,382.31
109.649,491.07,385.05
109.669,490.85,389.44
109.689,490.48,395.75
109.709,490.59,403.4
109.729,490.47,412.12
109.749,491.58,421.3
109.769,491.46,430.84
109.789,491.77,440.27
109.809,492.81,448.62
109.829,492.05,456.29
109.849,494.44,463.23
109.869,495.95,469.59
109.889,498.16,475.27
109.909,498.33,480.02
109.929,499.06,484.01
109.949,499.45,487.61
109.969,499.96,490.49
109.989,499.77,492.79
110.009,500.82,494.83
110.029,501.65,497.67
110.049,502.32,517.13
110.069,503.86,551.51
110.089,506.29,593.01
110.109,508.03,633.8
110.129,508.22,664.04
110.149,508.18,683.83
110.169,507.54,690.67
110.189,507.03,683.93
110.209,505.43,668.95
110.229,503.94,651.56
110.249,502.15,632.25
110.269,500.72,615
110.289,499.58,598.8
110.309,500.46,584.44
110.329,500.57,571.95
110.349,500.66,561.76
110.369,500.12,551.21
110.389,498.9,543.97
110.409,498.12,537.97
110.429,498.7,532.98
110.449,500.16,529.18
110.469,498.73,525.15
110.489,497.58,521.92
110.509,496.06,518.73
110.529,495.85,515.39
110.549,495.28,513.11
110.569,494.82,511.09
110.589,494.66,510.27
110.609,494.73,509.82
110.629,495.38,509.85
110.649,497.31,509.68
110.669,497.64,508.55
110.689,499.12,508.84
110.709,501.09,508.87
110.729,501.27,509.1
110.749,501.22,509.28
110.769,499.38,510.62
110.789,500.1,512.9
110.809,501.28,520.32
110.829,504.82,537.65
110.849,508.86,564.92
110.869,513.49,600.34
110.889,517.19,633.07
110.909,518.15,648.86
110.929,518.12,644.09
110.949,514.1,627.47
110.969,510.68,603.97
110.989,506.34,576.58
111.009,503.67,550.26
111.029,501.54,526.01
111.049,500.23,504.21
111.069,498.38,485.97
111.089,496.91,470.97
111.109,495.93,460.38
111.129,494.54,452.9
111.149,494.23,449.12
111.169,494.99,448.3
111.189,494.79,448.44
111.209,493.63,450.35
111.229,492.7,453.28
111.249,492.36,457.22
111.269,492.69,460.98
111.289,492.95,465.38
111.309,493.56,469.11
111.329,493.85,472.69
111.35,496.08,476.75
111.37,497.66,480
111.39,498.93,483.6
111.41,499.54,488.08
111.43,499.64,491.66
111.45,500.71,494.73
111.47,501.97,496.58
111.49,501.57,499.07
111.51,501.46,501.25
111.53,500.57,502
111.55,500.85,502.8
111.57,501.48,504.24
111.59,501.39,505.19
111.61,502.31,506.15
111.631,502.85,507.12
111.651,503.28,507.7
111.671,504.02,508.16
111.691,505.22,508.53
111.711,505.17,509.02
111.731,504.34,509.82
111.751,504.07,510.45
111.771,503.66,511.16
111.791,503.53,511.93
111.811,503.82,511.54
111.831,504.06,511.44
111.851,503.65,511.15
111.871,503.72,510.92
111.891,503.97,510.14
111.911,504.38,510.11
111.931,505.5,510.69
111.951,505.6,511.15
111.971,505.48,510.72
111.991,505.79,509.98
112.011,505.43,509.78
112.031,505.34,509.62
112.051,505.67,509.5
112.071,505.54,510.2
112.091,505.83,510.96
112.111,506.07,510.57
112.131,505.05,511.25
112.151,504.64,512
112.171,504.31,512.4
112.191,504.25,511.92
112.211,503.6,512.34
112.231,503.28,512.07
112.251,503.02,511.66
112.271,503.42,511.32
112.291,504.54,511.06
112.311,504.23,511.85
112.331,502.98,512.48
112.351,503.39,512.78
112.371,503.51,512.23
112.391,504.01,511.98
112.411,504.01,512.58
112.431,503.6,512.67
112.451,502.68,512.73
112.471,502.35,511.99
112.491,502.88,512.39
112.511,503.3,512.71
112.531,503.44,512.17
112.551,502.95,512.54
112.571,503.76,513.43
112.591,504.21,513.74
112.611,504.37,513.19
112.631,504.69,512.56
112.651,504.16,512.24
112.671,503.52,512.6
112.691,502.62,512.28
112.711,502.1,512.62
112.731,502.28,512.7
112.751,502.22,512.76
112.771,501.98,512.81
112.791,501.98,512.44
112.811,501.79,511.76
112.831,503.03,511.2
112.851,503.82,511.96
112.871,504.06,512.57
112.891,503.65,513.06
112.911,503.52,513.25
112.931,503.01,513.2
112.951,503.61,512.56
112.971,504.29,513.05
112.991,504.63,513.44
113.011,504.1,513.35
113.031,503.48,513.48
113.052,503.79,514.18
113.072,503.63,514.35
113.092,504.9,515.08
113.112,504.92,514.86
113.132,506.74,515.09
113.152,506.79,515.07
113.172,508.03,515.66
113.192,508.63,516.33
113.212,508.7,515.86
113.232,507.76,516.89
113.252,507.61,518.91
113.272,508.69,524.93
113.292,508.15,534.34
113.312,511.52,549.67
113.332,513.22,568.54
113.352,515.77,585.03
113.372,516.22,595.63
113.392,515.57,597.1
113.412,513.46,589.28
113.432,510.37,571.22
113.452,506.49,547.98
113.472,502,526.58
113.492,499.8,507.27
113.512,496.24,494.41
113.532,493.39,488.73
113.552,492.31,496.38
113.572,493.65,518.51
113.592,495.52,542.41
113.612,493.42,553.52
113.632,492.33,551.02
113.652,490.07,540.82
113.672,487.85,527.25
113.692,486.08,514.2
113.712,486.67,503.56
113.732,488.13,494.65
113.752,489.91,487.92
113.772,493.12,481.14
113.792,496.3,477.51
113.812,498.44,478.81
113.832,500.15,485.05
113.852,502.92,499.84
113.872,508.34,524.47
113.892,512.07,555.38
113.912,516.86,581.7
113.932,521.88,600.76
113.952,526.11,615.21
113.972,528.49,625.17
113.992,528.59,628.53
114.012,525.87,621.03
114.033,521.5,602.22
114.053,516.6,574.38
114.073,510.88,542.9
114.093,511.5,515.52
114.114,509.8,491.82
114.135,509.24,475.85
114.155,508.39,464.88
114.175,509.51,457.31
114.195,508.21,452.45
114.215,507.97,449.56
114.235,506.58,449.84
114.255,506.26,451.48
114.275,505.41,453.58
114.295,503.93,457.66
114.315,503.14,461.93
114.335,502.71,467.35
114.355,502.17,472.08
114.375,501.54,478.86
114.395,501.03,482.89
114.415,501.02,485.31
114.435,496.62,489.05
114.455,488.69,491.24
114.475,483.36,491.19
114.495,481.28,491.95
114.515,481.23,493.76
114.535,483.18,496.01
114.555,483.95,498.61
114.575,486.16,502.09
114.595,488.73,505.87
114.615,491.58,508.3
114.635,494.26,513.04
114.655,497.21,514.63
114.675,498.17,516.7
114.695,502.14,518.76
114.715,503.91,520.01
114.735,503.33,520.41
114.755,505.46,520.33
114.775,505.77,519.66
114.795,506.42,518.93
114.816,505.73,518.54
114.836,506.39,517.83
114.856,499.51,517.47
114.876,486.81,517.37
114.896,471.85,515.7
114.916,463.28,513.36
114.936,457.22,511.09
114.956,454.98,507.67
114.976,454.98,506.74
114.996,457.79,507.99
115.016,462.23,507.39
115.036,466.78,505.91
115.056,471.63,506.53
115.076,474.9,508.02
115.096,477.92,509.22
115.116,482.74,512.78
115.136,495.59,521.42
115.156,507.27,530.54
115.176,515.02,535.23
115.196,520.21,538.78
115.216,523.77,538.83
115.236,524.42,537.86
115.256,524.13,536.89
115.276,524.71,536.91
115.296,524.77,538.93
115.316,522.81,538.54
115.336,519.65,535.23
115.356,520.32,533.39
115.376,520.26,530.11
115.396,517.6,526.09
115.416,519.08,523.47
115.436,517.27,520.38
115.456,517.41,520.1
115.476,518.93,521.48
115.496,519.94,523.78
115.516,521.76,526.03
115.536,524,526.62
115.556,524.2,525.1
115.576,527.76,523.68
115.596,530.61,522.94
115.616,531.09,522.55
115.636,518.47,528.04
115.656,503.38,535.63
115.676,492.9,537.91
115.696,487.52,536.33
115.716,484.82,528.66
115.736,487.45,523.13
115.756,490.16,513.1
115.776,493.13,506.08
115.796,495.1,503.47
115.816,498.68,499.97
115.836,502.75,496.98
115.856,505.6,492.38
115.876,507.28,491.51
115.896,509.02,509.4
115.916,511.62,529.52
115.936,511.49,539.42
115.956,511.2,545.74
115.976,511.56,544.79
115.996,510.25,541.23
116.016,508.8,539.18
116.036,506.84,534.75
116.056,505.07,530.6
116.076,503.86,526.68
116.096,502.08,523.94
116.116,501.27,521.15
116.137,502.21,518.92
116.158,499.17,506.14
116.178,493.94,483.91
116.198,488.55,461.33
116.218,483.84,449.46
116.238,481.27,439.17
116.258,480.22,435.94
116.278,480.57,440.35
116.298,482.06,443.28
116.318,480.65,449.22
116.339,480.92,459.58
116.36,481.93,473.86
116.379,483.75,502.29
116.399,477.6,543.23
116.42,464.08,586.59
116.441,453.06,611.47
116.461,435.65,626.97
116.481,419.32,624.18
116.501,403.26,609.74
116.521,394.8,597.8
116.541,389.84,579.24
116.561,389.68,555.99
116.581,389.54,526.79
116.601,392.23,486.03
116.621,401.79,455.03
116.641,407.43,419.42
116.661,416.94,415.14
116.681,429.75,393.31
116.701,442,373.05
116.721,455.2,379.04
116.741,458.16,377.03
116.761,464.53,380.42
116.781,474.82,399.74
116.801,477.46,414.19
116.822,478.17,422.15
116.842,482.73,419.92
116.862,487.39,423.54
116.882,486.71,436.63
116.902,486.37,459.9
116.922,491.29,482.52
116.942,521.24,514.22
116.962,551.99,565.78
116.982,589.39,586.62
117.002,625.51,603.5
117.022,653.41,599.8
117.042,666.93,630.44
117.062,682.54,624.15
117.082,692.83,617.32
117.102,689.47,640.86
117.122,691.37,639.48
117.143,677.7,642.99
117.163,663.36,641.79
117.183,648.89,620.63
117.203,629.51,611.11
117.223,616.21,601.88
117.244,599.97,569.91
117.264,582.57,533.73
117.285,559.26,496.18
117.306,535.81,465.14
117.326,520.45,438.32
117.346,498.56,395.85
117.366,485.05,403.48
117.386,481.24,391.99
117.406,475.19,381.39
117.426,462.95,382.31
117.446,460.36,384.45
117.466,453.29,406.56
117.486,454.43,404.85
117.506,455.14,401.68
117.526,454.12,379.14
117.546,456.69,385.31
117.566,459.75,384.65
117.586,448,375.32
117.606,439.6,367.06
117.626,433.88,374.65
117.646,426.71,367.32
117.666,427.96,398.05
117.686,432.77,411.04
117.706,439.22,414.83
117.726,443.57,424.87
117.746,451.26,418.49
117.766,447.61,452.99
117.786,448.29,453.8
117.806,456.43,459.44
117.826,462.34,464.95
117.846,463.27,463.56
117.866,471.42,479.85
117.886,472.14,479.28
117.906,472.31,504.02
117.926,478.25,529.42
117.946,481.6,552.93
