Program Time [s],data 0,data 1
5.23060,527.05,572.75
5.25112,528.08,569.87
5.27171,527.32,571.67
5.29053,528.56,575.30
5.30983,528.69,575.60
5.32996,527.52,575.11
5.35173,529.31,573.79
5.37186,528.68,574.62
5.39022,524.28,575.19
5.41060,527.19,576.86
5.43086,525.94,576.17
5.45062,524.43,575.15
5.47061,526.39,577.08
5.49184,524.53,579.20
5.51235,523.43,579.03
5.53241,522.69,577.54
5.55200,519.66,575.77
5.57274,518.90,575.55
5.59123,518.58,575.80
5.61255,518.45,574.68
5.63264,519.47,572.01
5.65310,520.72,572.12
5.67274,517.56,572.83
5.69306,519.82,570.58
5.71198,516.73,570.42
5.73207,515.01,569.79
5.75200,517.11,569.29
5.77289,515.58,570.28
5.79176,517.44,569.13
5.81257,516.85,568.37
5.83209,517.23,566.71
5.85280,519.45,565.84
5.87224,518.67,563.51
5.89248,518.18,567.20
5.91289,520.17,565.26
5.93384,518.53,564.16
5.95238,519.48,564.31
5.97222,516.14,563.39
5.99358,514.53,561.21
6.01381,517.10,561.48
6.03354,516.35,560.46
6.05267,517.98,561.13
6.07382,514.84,565.73
6.09269,516.61,588.60
6.11366,515.81,613.89
6.13308,517.74,640.54
6.15294,516.67,661.87
6.17372,521.10,672.58
6.19227,520.56,679.66
6.21367,519.85,680.39
6.23374,520.00,677.71
6.25340,518.37,665.94
6.27373,519.95,656.61
6.29322,518.36,647.38
6.31214,519.06,639.76
6.33379,518.21,635.64
6.35247,521.26,628.29
6.37314,517.53,618.16
6.39191,522.50,611.76
6.41220,521.90,607.64
6.43250,519.21,603.51
6.45285,518.59,598.48
6.47184,520.68,597.12
6.49317,520.87,593.37
6.51306,520.09,592.18
6.53225,522.08,589.55
6.55324,520.11,588.33
6.57335,523.47,584.84
6.59234,519.32,585.51
6.61226,520.13,581.90
6.63201,522.61,580.65
6.65383,519.32,580.19
6.67270,520.61,578.76
6.69242,519.93,581.32
6.71238,522.25,581.66
6.73320,520.07,581.78
6.75198,522.83,581.59
6.77339,522.80,581.96
6.79333,523.21,582.44
6.81323,523.82,575.22
6.83198,522.56,580.06
6.85241,521.24,580.60
6.87387,517.46,579.16
6.89339,518.17,575.28
6.91358,518.36,573.10
6.93270,519.04,576.09
6.95301,519.64,577.39
6.97347,518.97,576.07
6.99385,521.04,576.68
7.01229,519.95,576.18
7.03253,518.36,574.73
7.05234,518.81,574.77
7.07310,519.58,574.14
7.09195,521.84,573.46
7.11206,519.52,569.91
7.13376,518.49,558.55
7.15315,516.70,540.04
7.17232,518.78,521.57
7.19353,516.60,494.61
7.21296,520.08,478.19
7.23205,518.10,468.26
7.25320,520.22,463.67
7.27379,517.13,463.74
7.29245,519.61,467.26
7.31218,518.85,471.16
7.33249,516.34,476.37
7.35367,517.02,483.82
7.37220,517.84,492.59
7.39305,518.22,498.16
7.41230,519.87,505.63
7.43375,516.68,511.00
7.45384,517.74,518.61
7.47465,522.08,522.91
7.49546,523.75,527.33
7.51588,523.78,532.70
7.53623,525.44,541.55
7.55734,528.29,546.05
7.57787,530.33,549.24
7.59847,532.39,554.49
7.62052,534.14,557.77
7.64064,535.76,556.83
7.66015,534.84,557.90
7.68058,538.66,562.41
7.69957,540.07,565.12
7.72001,540.58,561.26
7.73897,537.53,567.11
7.76000,538.84,564.52
7.77958,541.18,562.76
7.80036,538.14,563.34
7.81931,537.67,565.52
7.84094,538.55,565.32
7.86104,537.12,566.44
7.87971,538.70,566.97
7.90053,540.02,566.68
7.91989,540.12,568.21
7.94062,542.64,568.47
7.96034,542.29,573.61
7.97975,541.62,573.00
8.00173,544.22,576.25
8.01989,542.47,575.34
8.04095,540.27,578.52
8.06120,541.54,579.04
8.08131,541.69,579.05
8.10172,542.24,577.61
8.12001,543.05,578.74
8.14148,541.80,578.77
8.16058,541.77,578.94
8.18156,543.74,577.72
8.20144,542.77,579.40
8.22186,543.36,579.73
8.24237,544.13,579.33
8.26246,543.15,576.91
8.28109,540.52,578.86
8.30085,542.19,579.21
8.32179,541.46,577.61
8.34197,543.51,579.60
8.36121,540.88,576.91
8.38229,541.63,578.57
8.40247,543.52,580.22
8.42181,542.91,577.48
8.44257,543.78,574.84
8.46262,540.53,578.98
8.48259,541.97,577.30
8.50292,538.70,578.19
8.52310,541.02,578.71
8.54351,538.54,576.35
8.56348,539.67,577.46
8.58444,537.31,577.02
8.60287,540.03,577.79
8.62346,541.50,576.35
8.64314,541.07,577.08
8.66763,540.62,577.29
8.68421,541.11,575.40
8.70458,541.04,574.88
8.72320,536.62,573.68
8.74383,538.05,573.24
8.76331,536.09,574.49
8.78329,536.68,572.78
8.80327,538.88,575.07
8.82330,540.67,572.95
8.84287,537.85,575.89
8.86324,537.71,574.94
8.88331,537.58,573.50
8.90298,536.14,574.01
8.92349,534.84,573.87
8.94395,537.50,573.15
8.96429,536.94,574.04
8.98351,536.57,572.86
9.00423,536.59,573.49
9.02454,534.11,572.58
9.04400,534.89,573.47
9.06430,537.40,573.86
9.08393,535.41,569.54
9.10339,539.06,570.27
9.12347,535.38,572.24
9.14306,537.17,568.31
9.16459,536.70,569.27
9.18304,532.97,572.60
9.20389,533.26,571.49
9.22357,535.74,569.68
9.24420,532.13,568.59
9.26334,531.15,570.07
9.28454,535.09,570.98
9.30374,534.93,572.59
9.32337,533.37,573.70
9.34464,535.08,574.19
9.36539,533.82,574.80
9.38518,531.09,572.68
9.40434,531.94,576.16
9.42547,531.50,573.19
9.44420,531.92,572.94
9.46385,534.63,573.20
9.48498,533.86,573.71
9.50561,534.38,573.31
9.52440,531.46,573.57
9.54577,530.83,571.79
9.56516,533.24,574.62
9.58575,532.81,574.13
9.60453,533.76,570.62
9.62493,533.98,572.15
9.64530,532.08,575.59
9.66572,533.20,577.56
9.68479,531.73,573.94
9.70409,533.96,571.83
9.72458,533.77,573.60
9.74504,532.29,572.38
9.76478,532.46,572.42
9.78552,534.20,573.29
9.80451,533.45,576.76
9.82535,531.24,573.20
9.84428,533.93,573.51
9.86391,530.59,576.54
9.88529,530.55,574.33
9.90453,529.54,573.54
9.92412,528.26,573.51
9.94404,530.00,573.83
9.96530,527.63,573.20
9.98417,526.59,573.62
10.00482,528.67,572.14
10.02468,526.65,570.06
10.04429,528.42,569.87
10.06415,529.04,571.83
10.08428,529.22,577.72
10.10448,527.20,596.48
10.12525,529.97,619.29
10.14479,529.60,648.58
10.16503,526.84,675.06
10.18539,527.50,699.66
10.20554,530.92,712.49
10.22497,527.88,717.94
10.24544,528.62,715.36
10.26450,528.66,705.76
10.28560,529.80,696.38
10.30455,529.75,682.71
10.32439,529.34,669.68
10.34403,529.20,653.53
10.36457,527.08,644.68
10.38543,527.73,635.04
10.40447,527.50,617.24
10.42656,530.44,611.01
10.44502,528.74,606.80
10.46684,531.28,602.77
10.48581,530.04,596.70
10.50657,528.69,593.90
10.52682,528.36,589.42
10.54773,530.15,586.44
10.56681,528.95,584.07
10.58758,523.77,581.35
10.60761,524.39,577.20
10.62749,522.97,579.71
10.64639,523.25,575.42
10.66631,521.42,577.10
10.68706,521.15,574.05
10.70643,521.01,573.41
10.72750,521.98,573.37
10.74873,519.16,577.08
10.76864,520.93,574.31
10.78718,523.62,576.17
10.80731,523.14,574.48
10.82795,520.43,574.28
10.84703,522.05,574.91
10.86743,518.22,574.25
10.88763,518.64,574.28
10.90772,520.88,571.61
10.92777,521.37,570.25
10.94774,520.47,569.92
10.96861,518.22,570.21
10.98722,520.49,568.66
11.00818,523.03,571.62
11.02770,521.56,572.28
11.04853,523.63,567.11
11.06774,521.90,563.13
11.08752,524.03,556.38
11.10879,523.51,540.45
11.12839,522.37,511.91
11.14845,521.54,485.00
11.16870,519.71,464.71
11.18894,518.20,451.68
11.20902,516.08,450.57
11.22806,515.82,451.77
11.24798,514.25,451.85
11.26891,514.67,459.58
11.28894,513.72,470.66
11.30820,513.82,477.90
11.32849,514.13,485.08
11.34854,514.80,493.53
11.36910,515.84,498.26
11.38955,515.44,505.54
11.40820,517.41,510.34
11.42966,517.20,517.35
11.44937,519.09,523.34
11.46960,517.64,528.27
11.48800,518.42,530.10
11.50774,517.73,535.47
11.52888,520.31,538.46
11.54825,519.52,541.73
11.56904,521.89,547.08
11.58858,522.76,547.69
11.60921,518.69,551.24
11.62820,518.56,554.43
11.64805,519.17,557.68
11.66796,521.68,557.04
11.68959,522.69,561.65
11.70782,520.74,563.98
11.72933,521.35,562.61
11.74802,521.78,565.35
11.76963,521.49,565.68
11.78904,519.91,567.68
11.80953,521.56,565.31
11.82892,521.62,567.63
11.84802,520.80,564.77
11.86889,519.97,565.96
11.88833,519.62,568.28
11.90852,519.96,566.11
11.92964,520.90,562.04
11.94961,520.63,564.91
11.96820,521.05,562.79
11.98951,522.75,566.85
12.00835,522.31,564.05
12.02901,518.70,567.23
12.04907,520.25,566.90
12.06874,521.90,565.87
12.08933,520.16,568.14
12.10884,522.46,570.97
12.12864,521.57,568.89
12.14913,521.98,570.14
12.16792,523.01,571.97
12.18895,522.71,568.71
12.20810,519.72,566.86
12.22878,518.93,567.23
12.24782,519.75,568.39
12.26834,523.42,567.92
12.28847,524.64,567.77
12.30760,524.14,567.43
12.32943,523.04,566.48
12.34894,522.65,565.69
12.36884,523.50,565.01
12.38943,521.83,566.32
12.40775,522.58,565.26
12.42796,523.36,566.91
12.44819,524.11,566.03
12.46915,521.54,567.84
12.48898,519.71,568.36
12.50914,522.18,570.15
12.52914,523.64,568.12
12.54893,523.21,565.60
12.56822,521.33,564.54
12.58979,521.92,567.82
12.60815,520.49,566.25
12.62905,521.86,569.10
12.64904,520.53,568.20
12.66909,520.45,565.87
12.68833,519.68,568.24
12.70928,522.66,566.28
12.72892,522.18,564.73
12.74905,523.12,565.17
12.76913,523.56,565.86
12.78953,525.74,565.98
12.80891,524.24,568.64
12.82983,524.50,568.74
12.84886,523.74,569.27
12.86861,521.49,569.06
12.88976,524.30,568.55
12.90849,522.16,565.71
12.92860,520.73,566.48
12.94813,522.21,568.42
12.96855,522.18,566.19
12.98897,522.09,569.94
13.00825,521.32,566.66
13.02896,523.56,566.95
13.04789,526.44,569.23
13.06940,524.76,570.40
13.08781,527.29,566.37
13.10898,526.38,568.90
13.12903,527.16,571.26
13.14863,526.54,571.27
13.16865,524.36,570.45
13.18962,525.01,572.64
13.20929,526.70,571.44
13.22807,525.69,570.80
13.24955,525.48,569.21
13.26805,524.01,567.28
13.28931,521.40,568.16
13.30966,524.33,566.09
13.32885,523.61,566.13
13.34873,522.71,566.96
13.36921,526.00,568.84
13.38802,523.56,568.43
13.40833,522.54,564.73
13.42893,526.21,565.68
13.44970,524.62,566.21
13.46905,523.13,567.89
13.48830,524.10,566.70
13.50876,525.60,568.19
13.52826,524.59,565.98
13.54982,525.22,569.39
13.56958,521.95,567.76
13.58867,523.42,569.51
13.60912,521.11,570.02
13.62848,524.65,568.42
13.64787,525.63,569.68
13.66984,525.01,570.26
13.68807,524.94,569.10
13.70798,522.98,569.76
13.72936,525.17,568.20
13.74912,525.16,567.36
13.76834,524.77,567.80
13.78937,527.16,569.17
13.80806,525.04,567.79
13.82889,526.65,565.52
13.84783,527.66,563.35
13.86942,527.83,562.33
13.88850,527.93,565.99
13.90866,527.15,567.19
13.92946,527.75,566.28
13.94934,528.55,568.64
13.96813,527.57,564.51
13.98902,527.90,565.90
14.00973,530.96,565.38
14.02912,530.11,567.50
14.04825,527.26,568.20
14.06804,529.79,567.22
14.08796,526.12,567.44
14.10827,527.32,572.04
14.12803,528.12,572.29
14.14921,526.00,571.44
14.16900,524.20,569.43
14.18797,525.50,570.38
14.20831,526.33,573.62
14.22879,527.49,582.81
14.24920,530.67,600.66
14.26823,528.90,620.99
14.28876,532.39,640.51
14.30913,530.89,655.21
14.32889,531.08,660.83
14.34979,530.35,659.54
14.36836,529.20,653.46
14.38939,529.08,638.69
14.40885,526.56,629.32
14.42833,529.40,620.74
14.44951,527.14,615.31
14.46913,528.76,625.42
14.48884,529.89,633.69
14.50946,534.26,643.11
14.52822,535.29,650.02
14.54810,534.02,655.68
14.56842,534.50,655.43
14.58804,534.31,649.75
14.60875,536.46,642.73
14.62910,533.75,632.73
14.64874,536.80,625.44
14.66883,533.65,618.83
14.68976,535.78,611.79
14.70916,533.43,609.19
14.72842,531.96,603.41
14.74853,531.32,599.60
14.76952,532.54,598.18
14.78920,531.30,596.52
14.80751,534.67,588.35
14.82889,530.77,585.16
14.84902,532.03,584.71
14.86868,531.17,584.20
14.88952,531.90,580.73
14.90947,530.02,581.22
14.92788,531.56,580.09
14.94929,530.16,579.48
14.96846,531.07,576.67
14.98846,532.88,573.55
15.00824,533.68,574.83
15.02956,534.08,574.55
15.04814,535.47,573.90
15.06974,531.98,573.51
15.08868,533.62,571.66
15.10838,533.69,569.34
15.12919,534.01,572.41
15.14933,534.49,571.40
15.16779,531.41,572.23
15.18850,534.75,573.77
15.20790,531.01,574.47
15.22913,530.21,560.77
15.24811,528.78,540.10
15.26888,526.21,512.71
15.28939,520.38,481.40
15.30812,520.78,455.68
15.32846,522.52,440.74
15.34881,521.92,434.60
15.36896,520.30,433.63
15.38808,521.64,436.99
15.40958,523.62,446.96
15.42922,525.49,454.95
15.44944,525.36,463.98
15.46957,528.28,473.13
15.48826,528.77,482.82
15.50816,526.51,492.80
15.52901,530.30,502.06
15.54911,529.93,508.29
15.56870,528.99,515.98
15.58800,531.84,521.27
15.60787,531.81,527.83
15.62779,534.97,537.70
15.64775,533.07,543.49
15.66802,531.90,545.71
15.68938,532.60,550.80
15.70961,532.61,555.97
15.72878,532.31,558.67
15.74833,535.75,559.35
15.76874,535.19,560.72
15.78854,535.81,563.46
15.80814,534.60,565.45
15.82848,535.58,566.25
15.84908,534.45,566.86
15.86901,535.11,567.33
15.88966,536.39,570.24
15.90873,534.64,570.41
15.92806,533.02,567.73
15.94880,536.45,570.06
15.96817,535.92,570.42
15.98834,537.46,567.34
16.00910,538.02,571.30
16.02902,534.61,568.58
16.04806,534.54,568.53
16.06783,537.25,569.70
16.08872,535.71,569.11
16.10913,533.92,571.24
16.12887,534.75,570.03
16.14928,535.20,568.92
16.16870,533.94,566.11
16.18955,535.73,569.43
16.20815,534.12,568.31
16.22822,533.08,568.51
16.24852,534.86,568.50
16.26871,536.10,569.13
16.28825,536.32,565.92
16.30799,537.08,566.80
16.32858,539.36,568.45
16.34771,538.98,568.10
16.36859,539.07,570.61
16.38962,537.73,570.36
16.40875,536.39,568.98
16.42885,538.57,568.48
16.44907,539.69,567.62
16.46839,538.99,570.55
16.48965,537.50,568.60
16.50807,535.71,571.30
16.52830,537.99,569.45
16.54923,535.86,567.87
16.56945,537.91,570.86
16.58796,537.01,571.55
16.60895,533.66,570.28
16.62849,535.98,569.86
16.64920,535.16,566.87
16.66790,534.62,570.90
16.68885,535.64,568.48
16.70783,536.34,571.36
16.72825,536.06,570.07
16.74949,535.95,571.44
16.76832,537.94,571.21
16.78777,536.16,572.57
16.80793,536.80,571.11
16.82770,540.58,574.02
16.84833,541.12,572.52
16.86810,539.65,572.97
16.88789,538.05,574.39
16.90868,541.48,572.75
16.92887,541.30,574.15
16.94918,541.59,573.30
16.96980,539.75,572.26
16.98974,539.74,573.20
17.00829,542.44,572.95
17.02800,544.18,570.69
17.04944,543.36,573.76
17.06802,540.38,573.75
17.08945,540.96,572.62
17.10921,541.67,570.11
17.12887,538.40,573.09
17.14786,540.61,572.79
17.16824,540.04,573.44
17.18834,538.40,572.65
17.20816,539.66,572.82
17.22763,538.58,570.25
17.24960,541.98,568.66
17.26943,540.31,568.17
17.28968,538.21,565.69
17.30880,539.45,565.72
17.32862,539.70,567.33
17.34792,542.35,566.70
17.36957,539.91,567.48
17.38834,540.61,568.70
17.40921,541.31,567.80
17.42912,542.94,566.51
17.44953,542.56,567.75
17.46851,544.08,566.79
17.48793,541.93,567.42
17.50929,543.20,568.48
17.52865,539.86,568.97
17.54948,541.91,570.88
17.56777,544.08,568.03
17.58815,545.17,571.08
17.60807,543.94,571.79
17.62776,543.80,569.57
17.64798,543.26,569.88
17.66888,541.39,570.76
17.68924,542.68,571.16
17.70783,545.17,569.64
17.72932,542.00,568.49
17.74855,544.00,569.97
17.76937,542.04,569.88
17.78899,542.24,570.26
17.80913,544.89,568.68
17.82860,545.01,571.35
17.84877,543.96,569.03
17.86892,544.04,568.53
17.88824,541.07,571.93
17.90780,541.66,572.72
17.92940,544.23,574.77
17.94813,542.58,574.19
17.96901,539.91,573.44
17.98773,542.84,572.53
18.00789,544.72,575.79
18.02828,546.38,570.93
18.04954,545.39,572.50
18.06833,543.76,571.39
18.08952,545.12,572.38
18.10941,545.82,570.87
18.12782,544.23,571.21
18.14916,544.68,570.84
18.16780,542.54,570.85
18.18834,539.47,580.48
18.20876,538.93,600.67
18.22967,540.96,617.37
18.24933,540.72,639.52
18.26948,542.33,652.75
18.28850,539.58,666.04
18.30904,539.92,670.34
18.32948,540.18,674.48
18.34829,543.54,669.75
18.36913,542.00,665.66
18.38805,545.14,658.12
18.40909,547.68,648.06
18.42885,544.23,639.71
18.44931,544.53,628.93
18.46869,541.91,621.16
18.53170,539.53,613.76
18.53157,540.65,608.99
18.53290,541.88,605.61
18.54921,541.44,599.28
18.56818,540.27,596.03
18.58803,538.26,592.80
18.61002,541.33,589.18
18.62855,538.95,586.47
18.64823,542.21,585.71
18.66780,544.61,582.25
18.68983,542.20,584.96
18.70801,546.23,580.85
18.72891,547.47,579.11
18.74964,546.31,578.27
18.76842,542.10,579.93
18.78911,540.04,577.70
18.80912,541.31,577.00
18.82964,540.10,577.06
18.84840,541.08,577.97
18.86794,539.63,578.57
18.88962,540.14,576.71
18.90839,539.30,576.91
18.92818,541.01,579.86
18.94945,541.30,574.88
18.96934,539.63,574.33
18.98766,539.38,577.10
19.00859,538.73,578.66
19.02945,539.88,578.33
19.04857,543.98,575.83
19.06941,542.27,573.81
19.08953,540.12,574.12
19.10943,541.28,577.71
19.12894,540.52,575.60
19.14830,540.46,577.39
19.16946,539.29,576.81
19.18805,539.77,573.67
19.20820,540.67,571.75
19.22770,542.05,574.49
19.24883,541.73,573.85
19.26816,539.92,570.66
19.28801,540.74,571.03
19.30788,541.78,573.32
19.32835,541.78,572.95
19.35038,539.54,571.55
19.37036,539.04,571.88
19.39005,538.84,572.72
19.40911,538.52,573.87
19.42905,541.84,573.71
19.45061,538.27,573.28
19.47028,541.49,576.05
19.49061,542.56,576.59
19.51000,541.96,579.34
19.53042,538.83,572.19
19.54993,535.29,552.10
19.56997,535.77,521.59
19.59074,533.42,497.08
19.60979,531.26,481.57
19.63015,533.10,472.90
19.65094,533.45,472.08
19.67036,530.83,475.36
19.69011,533.09,478.75
19.70973,532.96,485.39
19.72969,534.75,491.49
19.75078,532.94,498.12
19.77111,533.95,509.96
19.79066,534.43,515.26
19.81169,534.29,520.97
19.83118,534.53,529.73
19.85098,535.96,535.10
19.87066,536.86,539.07
19.88989,535.63,545.69
19.91133,536.58,549.86
19.93095,537.11,553.56
19.95158,536.61,558.29
19.97023,536.24,558.46
19.99027,537.07,560.94
20.01092,539.05,563.48
20.03147,537.09,567.53
20.04990,539.95,569.64
20.07070,539.48,567.69
20.09041,536.93,569.32
20.11165,538.63,566.73
20.12971,539.05,569.69
20.15125,538.05,569.46
20.17053,537.75,570.41
20.19097,539.87,570.26
20.21084,537.61,569.56
20.23116,541.28,573.13
20.25048,538.62,574.49
20.26980,540.07,574.82
20.29130,538.60,572.43
20.31086,536.58,572.38
20.33139,537.80,573.78
20.35144,539.91,573.35
20.37087,538.06,572.81
20.39079,536.61,570.38
20.41097,539.57,572.24
20.43001,536.85,571.55
20.45058,540.01,571.81
20.47144,538.60,573.43
20.49004,539.14,573.08
20.51139,536.83,574.43
20.53081,536.23,575.76
20.55112,535.24,572.94
20.57085,535.23,574.73
20.59042,535.10,574.42
20.61137,533.58,574.00
20.63045,534.87,572.02
20.65082,534.40,571.26
20.66991,534.30,571.97
20.68961,531.14,573.84
20.71065,532.98,571.14
20.72955,533.37,574.81
20.74961,532.05,570.63
20.77089,533.99,573.69
20.79056,534.66,573.38
20.81144,534.72,573.20
20.82999,534.82,570.89
20.85069,535.23,572.98
20.87159,535.73,570.62
20.89098,536.31,572.71
20.90968,538.55,570.57
20.93066,535.42,574.21
20.95082,534.54,572.82
20.97024,536.73,574.35
20.99036,534.75,573.32
21.01018,536.26,574.55
21.03061,536.28,573.99
21.05092,537.35,571.36
21.07077,534.35,572.35
21.09077,535.12,571.55
21.11056,536.61,569.83
21.13116,537.32,570.90
21.15083,533.39,568.39
21.17093,534.52,571.90
21.19150,533.72,570.39
21.20981,534.21,570.41
21.23085,531.43,570.63
21.24999,533.06,570.55
21.26966,533.98,573.76
21.29004,532.99,570.29
21.31112,534.38,572.08
21.33107,534.75,574.43
21.35114,534.24,572.61
21.36966,534.51,571.47
21.39036,534.72,571.05
21.40982,534.72,571.35
21.42990,534.46,573.08
21.45067,534.36,574.53
21.47041,531.09,570.97
21.49028,532.29,570.00
21.51110,533.18,574.04
21.53019,531.92,571.93
21.55063,529.54,571.30
21.57042,531.59,573.13
21.58989,530.34,572.97
21.60980,530.43,572.75
21.62982,532.33,575.84
21.64985,533.59,573.40
21.67102,533.24,574.10
21.69115,530.24,573.94
21.71065,531.97,576.63
21.72996,532.41,571.88
21.75130,534.47,573.99
21.77031,534.62,576.01
21.79023,534.08,574.06
21.81094,534.41,573.41
21.82948,535.49,573.43
21.85045,533.17,572.86
21.87065,532.29,570.40
21.89010,532.96,569.73
21.91090,531.19,569.82
21.93143,532.41,570.41
21.95050,530.67,571.74
21.97146,530.18,571.40
21.99071,531.82,573.17
22.01045,530.82,574.06
22.03078,530.62,572.27
22.05049,528.78,572.32
22.06969,530.30,573.05
22.08979,528.84,573.85
22.10964,530.32,572.21
22.12991,530.07,571.83
22.15103,527.87,571.41
22.17093,527.42,570.64
22.19042,526.35,571.80
22.21041,530.69,571.14
22.23074,531.42,572.60
22.24989,531.58,574.85
22.27061,531.27,572.82
22.29024,529.01,570.58
22.30979,527.91,570.58
22.33083,527.89,569.84
22.34959,528.08,572.37
22.36993,530.67,582.47
22.38959,530.45,598.56
22.41038,528.75,621.78
22.43028,530.26,641.64
22.44960,527.22,656.93
22.47012,526.85,667.63
22.49072,524.77,669.72
22.51105,523.97,670.44
22.53011,525.94,663.89
22.55053,526.51,654.77
22.57090,522.87,648.70
22.59051,524.42,640.16
22.61032,529.09,631.96
22.62983,532.11,621.42
22.65080,529.47,614.77
22.67050,531.41,610.73
22.69008,532.27,607.53
22.71026,532.51,605.10
22.73089,531.64,600.13
22.74992,528.19,595.28
22.77055,527.92,594.68
22.79120,529.09,588.33
22.80992,525.35,586.74
22.83010,527.54,588.17
22.84995,526.25,587.47
22.87015,521.96,587.49
22.88977,521.60,582.95
22.91049,521.73,580.82
22.93123,523.01,581.30
22.94959,526.20,582.88
22.97013,524.55,580.51
22.98994,525.01,583.33
23.01005,527.73,580.88
23.03103,527.67,579.75
23.05049,528.09,575.96
23.07110,525.96,578.53
23.09032,525.20,577.84
23.11036,526.26,578.91
23.13125,524.82,577.31
23.15096,526.64,578.08
23.17090,524.68,578.83
23.18993,523.64,582.83
23.21134,520.52,580.18
23.22969,521.87,580.57
23.25125,524.98,579.92
23.27107,523.09,578.53
23.29138,526.24,579.38
23.31083,524.31,575.44
23.32985,525.62,576.53
23.35112,522.69,577.64
23.37045,524.06,573.46
23.39152,526.99,577.74
23.41056,526.15,577.51
23.42969,525.50,577.36
23.45138,525.55,578.60
23.47141,526.40,576.05
23.49029,525.51,577.36
23.51131,525.02,574.83
23.53150,527.08,574.57
23.55085,524.86,573.00
23.56949,525.69,580.68
23.59088,524.46,582.05
23.61057,523.52,573.79
23.63026,520.58,560.57
23.65050,521.00,533.45
23.67071,521.43,509.78
23.69118,518.07,487.18
23.71034,518.93,470.53
23.72991,517.01,462.34
23.75075,518.95,462.87
23.77157,516.10,465.57
23.79139,517.14,468.01
23.81137,519.19,477.51
23.83114,518.42,483.83
23.85091,520.35,492.95
23.87097,518.15,498.12
23.89093,520.97,506.79
23.91050,520.99,516.54
23.93063,519.34,522.76
23.94992,519.50,528.52
23.97070,518.94,535.63
24.08099,520.91,542.15
24.07951,520.75,545.94
24.08002,521.15,550.14
24.07952,520.54,549.64
24.07950,522.19,557.67
24.09995,526.48,560.26
24.12071,526.07,562.59
24.13938,530.43,562.73
24.16016,532.04,562.56
24.17976,536.19,566.48
24.19950,537.15,564.08
24.22134,539.47,566.77
24.23940,539.65,569.20
24.26015,538.57,570.39
24.28032,540.10,570.27
24.30100,538.90,569.85
24.32060,540.61,570.19
24.33982,537.53,569.42
24.36072,537.90,570.87
24.38105,539.96,572.40
24.39961,538.29,569.53
24.42051,539.05,569.46
24.44111,542.31,569.47
24.46140,539.02,569.02
24.47960,540.76,571.43
24.50110,539.07,571.80
24.51975,537.69,572.34
24.54124,542.62,571.83
24.55956,540.11,571.74
24.58021,539.41,568.73
24.59970,543.18,571.46
24.61967,543.77,569.95
24.63980,546.05,571.49
24.66038,542.18,573.53
24.67931,542.51,572.50
24.70110,545.99,572.04
24.72089,544.66,574.32
24.74006,543.02,573.05
24.76105,545.05,573.83
24.78054,543.24,574.15
24.80049,544.35,574.07
24.82083,542.87,573.38
24.84091,542.07,575.90
24.86100,544.40,576.86
24.88007,540.42,575.69
24.89977,543.72,576.43
24.92088,541.33,574.79
24.94052,544.19,576.48
24.95966,543.79,576.63
24.97943,544.18,577.23
24.99977,543.04,576.65
25.02022,542.79,574.91
25.03996,543.91,576.78
25.06066,541.64,574.46
25.07976,540.14,574.93
25.10007,542.17,574.67
25.12137,543.41,576.85
25.14121,544.56,575.58
25.16003,545.26,575.71
25.17969,542.10,574.86
25.20058,542.43,574.14
25.21965,542.19,572.40
25.24106,545.99,574.46
25.26052,544.91,572.86
25.28060,544.55,572.72
25.30099,545.43,574.55
25.32105,545.09,574.98
25.34203,544.61,573.39
25.36109,543.32,576.08
25.38246,540.90,571.83
25.40248,543.94,574.88
25.42316,542.28,572.40
25.44529,540.84,573.52
25.46433,541.37,576.04
25.48434,537.41,573.22
25.50481,537.21,572.93
25.52551,536.69,576.96
25.54517,538.10,576.61
25.56531,537.77,573.84
25.58574,536.31,575.42
25.60553,534.81,573.35
25.62543,537.38,575.94
25.64580,536.18,575.09
25.66444,533.02,574.81
25.68458,532.52,576.71
25.70452,533.21,574.09
25.72445,531.02,575.67
25.74490,533.02,572.38
25.76529,533.28,575.67
25.78455,533.76,575.65
25.80522,530.89,576.20
25.82469,532.47,577.00
25.84541,531.95,577.10
25.86543,530.29,574.91
25.88429,532.78,576.31
25.90534,532.19,576.70
25.92601,531.51,573.39
25.94692,530.79,576.77
25.96665,531.42,573.46
25.98680,530.14,570.14
26.00559,531.97,573.78
26.02590,527.72,573.27
26.04620,526.96,570.46
26.06715,526.86,573.04
26.08665,523.72,571.99
26.10520,526.08,572.93
26.12701,527.03,571.02
26.14574,525.44,572.64
26.16602,527.57,572.86
26.18667,527.65,570.38
26.20708,525.06,570.98
26.22653,525.69,571.03
26.24758,524.68,571.61
26.26668,525.32,572.93
26.28670,527.76,571.82
26.30684,524.67,572.40
26.32803,523.45,571.38
26.34722,524.78,573.20
26.36706,521.12,569.62
26.38735,521.50,569.08
26.40658,520.68,567.36
26.42811,518.05,570.02
26.44674,521.05,571.94
26.46740,519.24,568.06
26.48712,515.67,570.29
26.50764,516.98,567.61
26.52643,519.87,570.02
26.54695,517.14,572.07
26.56772,521.10,569.21
26.58801,521.59,569.59
26.60620,519.73,568.11
26.62781,519.84,569.74
26.64784,523.27,571.20
26.66655,523.79,566.88
26.68766,523.17,565.52
26.70669,522.60,564.78
26.72649,517.99,569.83
26.74829,519.17,588.63
26.76749,520.07,612.30
26.78779,519.98,635.85
26.80638,520.47,651.29
26.82812,519.59,662.10
26.84820,518.30,664.89
26.86809,520.25,663.77
26.88702,520.91,658.85
26.90813,522.27,653.83
26.92784,522.83,646.70
26.94723,523.74,636.41
26.96674,524.26,626.93
26.98722,524.73,621.53
27.00752,524.49,614.98
27.02777,521.51,609.91
27.04652,523.40,603.17
27.06733,521.36,599.38
27.08749,523.23,594.06
27.10748,519.88,592.94
27.12685,522.92,589.48
27.14702,520.97,583.20
27.16745,520.57,584.11
27.18654,520.01,583.82
27.20785,521.61,581.67
27.22737,519.27,580.90
27.24700,519.94,580.03
27.26694,518.49,579.37
27.28784,519.18,577.87
27.30646,519.49,577.14
27.32799,519.64,577.29
27.34708,521.33,576.34
27.36662,519.76,576.06
27.38657,521.47,572.74
27.40819,519.56,572.28
27.42819,522.27,571.99
27.44745,523.47,574.33
27.46725,521.44,574.97
27.48679,521.50,571.93
27.50807,522.29,570.72
27.52727,521.00,573.19
27.54697,524.30,573.29
27.56719,521.92,571.13
27.58825,522.32,568.58
27.60771,522.18,570.52
27.62719,519.64,571.15
27.64835,522.04,570.27
27.66736,521.20,568.05
27.68720,519.82,569.64
27.70632,522.40,570.88
27.72700,523.03,571.58
27.74725,521.84,570.60
27.76690,521.91,572.13
27.78726,520.21,567.86
27.80701,518.69,550.15
27.82696,519.25,527.65
27.84686,517.43,503.75
27.86845,515.11,480.90
27.88798,512.97,469.66
27.90801,515.05,464.09
27.92772,513.97,464.44
27.94680,512.42,467.33
27.96825,514.37,471.94
27.98653,512.34,477.49
28.00713,512.33,486.63
28.02828,514.29,491.70
28.04713,517.00,500.67
28.06772,514.57,507.39
28.08709,517.03,516.74
28.10752,517.95,520.29
28.12822,521.85,526.72
28.14675,522.47,531.56
28.16652,523.81,539.94
28.18745,523.83,542.24
28.20841,522.47,546.59
28.22781,523.89,549.63
28.24695,522.11,553.16
28.26724,522.55,555.15
28.28656,521.79,558.71
28.30750,520.99,559.83
28.32833,522.79,562.64
28.34719,521.59,563.67
28.36819,523.51,563.68
28.38653,523.84,565.34
28.40689,522.57,563.15
28.42735,523.43,563.91
28.44824,522.48,565.32
28.46701,521.87,566.87
28.48671,523.64,567.52
28.50723,521.13,564.66
28.52668,519.09,567.54
28.54670,520.26,568.99
28.56730,517.33,572.49
28.58694,518.67,570.28
28.60642,518.48,569.52
28.62789,517.83,572.02
28.64796,517.80,569.90
28.66759,520.93,571.97
28.68810,521.86,570.69
28.70785,521.59,573.05
28.72853,521.98,568.78
28.74836,524.11,571.21
28.77029,523.97,570.21
28.78941,521.12,570.65
28.81015,521.05,571.38
28.82966,523.26,569.56
28.85035,525.13,569.17
28.87084,524.77,570.80
28.89032,521.83,567.34
28.91016,522.54,572.11
28.93005,523.03,571.32
28.95106,525.25,569.26
28.96936,523.75,570.64
28.99080,522.38,569.81
29.00961,522.42,568.04
29.03110,524.46,567.88
29.05030,525.38,569.82
29.06973,525.95,569.53
29.08946,524.70,570.16
29.11034,526.92,568.54
29.12972,529.71,570.02
29.15022,529.31,569.62
29.16944,527.99,568.74
29.19075,526.58,568.05
29.20979,528.13,569.47
29.23074,525.88,568.35
29.25071,526.94,568.50
29.27041,527.01,567.97
29.28934,528.67,570.25
29.30988,529.15,570.09
29.33060,527.55,569.85
29.35060,529.17,571.87
29.37264,532.42,570.37
29.39317,532.10,572.17
29.41224,535.13,572.47
29.43289,537.10,574.66
29.45278,539.08,572.57
29.47409,537.08,573.85
29.49358,536.12,571.06
29.51241,538.23,574.19
29.53229,538.02,572.48
29.55374,536.89,570.03
29.57448,539.19,571.16
29.59380,539.16,570.84
29.61402,539.23,570.01
29.63434,541.30,573.37
29.65354,541.24,573.33
29.67452,544.35,572.29
29.69526,542.13,574.66
29.71338,545.29,573.07
29.73501,542.15,572.85
29.75428,546.76,574.71
29.77500,545.03,573.87
29.79702,545.52,574.77
29.81638,542.69,576.93
29.83749,543.97,573.23
29.85841,541.76,573.10
29.87964,539.05,577.77
29.89986,540.02,578.13
29.92086,539.21,574.22
29.94117,535.32,574.82
29.96053,536.25,575.86
29.97994,534.32,576.42
30.00103,534.24,576.09
30.01973,535.12,574.84
30.03977,532.87,574.44
30.06116,534.06,575.16
30.08072,535.13,573.80
30.10022,533.47,575.63
30.11995,531.46,575.18
30.13954,531.07,576.96
30.16052,531.47,574.37
30.18120,532.74,575.81
30.19965,531.67,574.68
30.21993,533.97,573.80
30.24105,534.62,573.24
30.26179,533.43,572.74
30.28201,533.83,574.82
30.30207,532.95,573.85
30.32181,528.60,574.89
30.34293,527.58,574.71
30.36243,527.98,572.85
30.38251,525.45,575.95
30.40221,523.05,575.72
30.42222,524.13,576.44
30.44515,523.31,574.29
30.46518,522.26,574.43
30.48567,523.96,570.25
30.50567,524.04,571.34
30.52658,524.63,571.17
30.54605,521.79,570.32
30.56706,523.11,568.45
30.58560,520.16,565.83
30.60627,521.56,567.22
30.62694,519.93,564.32
30.64632,522.01,565.72
30.66634,518.87,563.25
30.68706,518.84,563.03
30.70600,522.41,563.76
30.72620,521.36,558.39
30.74554,520.43,557.76
30.76591,521.98,564.29
30.78658,519.88,584.85
30.80631,522.53,618.05
30.82704,525.77,656.41
30.84600,525.40,690.73
30.86712,530.28,717.03
30.88541,531.72,723.35
30.90589,537.17,724.76
30.92555,536.33,715.37
30.94687,535.56,700.14
30.96555,535.51,686.31
30.98649,533.43,666.08
31.00682,528.53,650.49
31.02520,527.23,632.79
31.04660,525.52,618.36
31.06538,522.48,606.87
31.08600,519.42,597.13
31.10530,519.11,592.34
31.12716,518.70,585.54
31.14688,518.19,581.29
31.16644,518.98,579.47
31.18555,519.43,576.90
31.20651,522.54,574.21
31.22638,519.78,571.36
31.24630,519.30,573.93
31.26682,521.98,573.26
31.28647,522.85,571.66
31.30687,522.69,573.50
31.32629,520.84,575.38
31.34683,520.48,573.55
31.36664,521.81,574.15
31.38654,520.19,572.68
31.40684,520.97,570.89
31.42584,520.49,575.35
31.44594,520.22,570.53
31.46569,523.54,575.17
31.48591,523.31,571.78
31.50532,522.55,575.05
31.52607,523.45,573.43
31.54689,523.22,573.66
31.56605,524.21,572.87
31.58714,525.13,566.56
31.60655,524.94,556.66
31.62703,522.07,541.58
31.64533,520.95,519.13
31.66703,520.00,493.40
31.68685,517.75,471.94
31.70630,514.74,458.52
31.72600,518.36,453.06
31.74646,516.36,449.88
31.76701,517.51,453.39
31.78568,519.03,460.10
31.80559,517.42,465.17
31.82580,518.57,474.15
31.84580,518.30,482.00
31.86566,521.74,490.37
31.88712,519.10,500.10
31.90500,518.11,505.45
31.92613,519.50,512.70
31.94722,520.96,521.63
31.96570,523.06,527.46
31.98667,522.44,529.38
32.00587,524.35,536.20
32.02521,525.46,541.87
32.04644,523.42,543.64
32.06701,524.03,546.99
32.08552,522.99,548.90
32.10626,524.03,550.73
32.12705,523.09,556.07
32.14655,523.03,557.29
32.16628,526.90,558.03
32.18596,522.81,560.60
32.20630,526.65,563.85
32.22650,527.28,560.53
32.24643,525.00,561.74
32.26663,528.86,564.14
32.28525,527.86,564.46
32.30517,526.02,560.12
32.32693,524.38,560.14
32.34547,525.38,563.08
32.36650,525.98,562.05
32.38653,527.35,564.04
32.40740,526.80,566.12
32.42812,525.77,568.37
32.44739,526.61,568.78
32.46698,529.05,571.34
32.48737,525.36,569.39
32.50744,528.35,569.29
32.52754,530.52,570.17
32.54801,530.78,569.05
32.56827,528.39,569.56
32.58745,532.21,568.98
32.60784,530.55,572.94
32.62739,528.57,572.07
32.64771,530.45,572.56
32.66780,530.72,569.88
32.68751,534.05,569.51
32.70661,534.19,570.21
32.72647,530.89,569.16
32.74688,530.54,569.44
32.76643,532.35,571.61
32.78637,531.40,570.30
32.80726,529.89,567.16
32.82712,530.14,569.77
32.84688,533.37,566.82
32.86694,531.05,570.12
32.88798,532.97,570.51
32.90787,532.26,570.55
32.92756,533.11,571.30
32.94705,531.42,571.47
32.96653,533.24,571.61
32.98790,532.84,571.40
33.00670,538.08,572.40
33.02634,535.92,572.77
33.04631,536.69,573.05
33.06666,534.86,570.37
33.08615,534.52,567.69
33.10632,536.40,568.15
33.12807,531.50,568.72
33.14743,531.11,567.98
33.16663,532.12,568.02
33.18642,532.54,571.04
33.20726,532.89,570.40
33.22618,531.97,570.47
33.24752,532.39,571.57
33.26763,533.84,569.78
33.28700,532.98,571.91
33.30679,531.08,571.03
33.32759,532.37,571.69
33.34715,534.56,572.01
33.36655,530.90,571.55
33.38795,534.29,572.68
33.40656,534.14,573.64
33.42776,532.14,572.44
33.44818,531.42,571.90
33.46722,531.61,574.18
33.48785,536.07,570.63
33.50654,532.47,569.94
33.52726,533.44,571.10
33.54652,534.03,571.83
33.56724,533.61,574.49
33.58769,534.97,570.94
33.60767,534.25,572.06
33.62782,532.30,573.47
33.64806,533.96,573.40
33.66695,535.76,571.58
33.68632,535.79,573.46
33.70702,535.11,571.55
33.72794,535.77,571.97
33.74709,534.60,574.13
33.76658,533.55,571.33
33.78672,533.36,571.82
33.80724,533.91,571.88
33.82651,533.76,570.22
33.84603,536.06,571.38
33.86725,535.00,572.02
33.88665,533.62,572.75
33.90762,535.78,572.71
33.92722,534.70,570.60
33.94644,535.19,569.83
33.96751,532.99,568.75
33.98715,531.43,569.93
34.00765,534.28,567.53
34.02704,531.51,567.92
34.04629,533.46,570.38
34.06816,531.85,568.89
34.08637,532.46,570.34
34.10714,533.76,569.21
34.12738,533.25,566.95
34.14673,532.72,569.05
34.16786,532.58,568.80
34.18641,534.03,568.72
34.20753,533.40,567.16
34.22772,533.47,569.72
34.24735,537.23,566.32
34.26746,536.78,570.80
34.28827,536.89,568.27
34.30722,538.82,570.02
34.32881,540.85,572.40
34.34773,540.51,570.98
34.36882,541.80,570.55
34.38853,540.53,569.32
34.40824,541.49,569.97
34.42759,543.45,572.31
34.44887,544.72,574.34
34.46827,542.03,573.74
34.48826,542.32,569.85
34.50895,539.40,570.12
34.52807,537.70,573.22
34.54863,539.91,569.87
34.56824,540.96,568.38
34.58772,541.33,567.83
34.60756,543.22,567.44
34.62887,543.37,568.29
34.64894,542.50,568.70
34.66822,545.25,567.12
34.68882,543.21,568.80
34.70889,542.35,565.63
34.72807,544.55,567.68
34.74844,542.50,569.18
34.76788,543.81,566.82
34.78965,542.67,568.87
34.81020,545.06,569.74
34.82976,544.98,570.91
34.85000,544.33,569.89
34.86948,544.28,571.18
34.89068,541.33,570.73
34.90986,541.29,584.91
34.92993,545.57,604.75
34.95062,543.66,630.09
34.96986,544.15,654.20
34.99054,543.70,672.79
35.01177,543.90,686.47
35.03198,544.79,690.30
35.05084,544.11,689.75
35.07002,545.94,682.33
35.09035,544.79,669.69
35.11166,545.41,658.06
35.13095,543.59,651.16
35.15169,543.61,640.06
35.17123,540.71,629.96
35.19120,539.39,622.86
35.21043,541.51,617.24
35.23089,541.44,612.18
35.25111,538.79,606.68
35.27177,537.66,602.23
35.29032,538.31,597.64
35.31091,539.96,592.69
35.33189,539.09,593.79
35.35170,537.68,591.81
35.37119,537.06,589.66
35.39123,538.72,585.26
35.41141,538.09,585.47
35.43128,540.07,582.97
35.45100,537.38,582.04
35.47177,536.83,584.66
35.49139,537.71,581.61
35.51132,538.83,581.26
35.53036,536.53,578.28
35.55146,538.86,576.64
35.57038,536.76,577.46
35.59084,538.33,580.02
35.61121,538.28,579.23
35.63112,539.19,579.46
35.65155,538.64,578.50
35.67087,539.06,577.64
35.69123,540.01,577.63
35.71172,538.16,579.25
35.73106,539.39,577.60
35.75113,539.87,575.98
35.77161,539.33,576.20
35.79188,539.95,574.48
35.81084,536.73,578.10
35.83100,535.99,577.13
35.85188,537.03,575.59
35.87111,535.27,574.76
35.89018,537.59,576.47
35.91111,538.12,575.92
35.93179,535.10,571.51
35.95170,537.00,572.58
35.97022,538.38,571.85
35.99088,537.14,574.30
36.01043,535.14,579.68
36.03159,536.38,584.02
36.05120,536.53,576.70
36.07078,541.30,559.42
36.09100,538.08,533.92
36.11136,538.65,504.20
36.13208,538.09,483.54
36.15033,536.79,467.62
36.17157,535.98,465.93
36.19037,537.72,464.27
36.21194,538.00,469.06
36.23193,533.37,471.73
36.25043,534.34,477.37
36.27121,532.41,484.94
36.29208,532.04,491.29
36.31129,533.69,500.58
36.33038,534.19,511.29
36.35173,535.99,517.87
36.37214,534.05,527.88
36.39173,533.62,532.82
36.41205,536.26,539.98
36.43099,532.64,547.06
36.45072,535.22,549.17
36.47040,534.98,553.06
36.49107,532.99,554.57
36.51123,532.97,558.74
36.53125,533.03,559.58
36.55206,535.72,564.09
36.57028,534.43,567.06
36.59135,532.36,565.29
36.61167,535.96,568.89
36.63111,536.01,569.79
36.65035,535.38,572.50
36.67219,534.24,573.60
36.69028,532.82,571.69
36.71139,535.78,573.85
36.73108,536.05,575.06
36.75205,536.64,573.61
36.77208,534.71,577.18
36.79020,534.10,577.18
36.81034,537.35,578.23
36.83184,536.31,576.84
36.85035,531.60,576.93
36.87025,531.25,575.24
36.89101,531.79,575.59
36.91090,531.70,576.59
36.93067,534.41,577.42
36.95095,534.00,575.30
36.97097,534.16,572.06
36.99198,534.18,575.59
37.01079,532.24,573.70
37.03179,531.86,574.46
37.05064,533.92,571.30
37.07110,533.92,572.23
37.09090,531.93,569.65
37.11054,534.59,570.41
37.13219,532.80,570.81
37.15032,530.66,571.12
37.17063,531.74,571.62
37.19099,533.02,573.83
37.21059,530.20,576.18
37.23063,530.26,576.03
37.25133,528.83,577.69
37.27194,530.31,573.34
37.29193,533.70,576.04
37.31043,533.72,573.60
37.33038,532.99,573.80
37.35160,530.94,573.10
37.37027,532.49,576.37
37.39100,530.84,573.41
37.41088,531.51,574.54
37.43203,531.66,571.36
37.45045,531.36,571.79
37.47157,529.55,574.59
37.49210,532.47,574.11
37.51144,531.25,575.15
37.53145,530.05,574.73
37.55207,529.92,574.68
37.57178,527.14,573.76
37.59279,524.50,576.08
37.61154,525.37,576.90
37.63299,528.48,575.21
37.65210,527.68,575.05
37.67128,526.81,575.98
37.69274,527.38,576.33
37.71228,526.85,576.29
37.73243,528.55,572.75
37.75196,527.95,571.70
37.77138,525.63,576.84
37.79192,527.62,573.73
37.81216,526.35,575.02
37.83219,524.44,574.28
37.85163,524.73,572.42
37.87213,525.15,573.10
37.89162,522.58,571.57
37.91197,524.35,574.43
37.93275,521.38,573.31
37.95154,525.19,573.55
37.97169,522.87,573.60
37.99233,526.07,571.38
38.01305,524.43,571.12
38.03190,524.63,570.36
38.05239,524.94,571.42
38.07260,524.22,570.86
38.09242,525.01,569.51
38.11168,523.68,570.10
38.13125,525.58,571.72
38.15163,523.55,570.32
38.17131,522.76,570.85
38.19299,525.91,573.05
38.21103,524.20,571.38
38.23289,524.52,572.37
38.25230,525.12,572.73
38.27182,523.33,574.19
38.29204,520.64,572.51
38.31296,519.63,571.21
38.33214,518.16,572.44
38.35226,519.79,574.56
38.37203,520.45,573.21
38.39193,520.75,574.42
38.41133,518.10,574.11
38.43253,520.56,572.11
38.45298,519.12,571.09
38.47199,520.82,572.90
38.49274,520.98,572.81
38.51106,522.02,577.04
38.53261,522.17,573.53
38.55113,520.73,572.36
38.57234,520.83,573.17
38.59101,522.34,573.66
38.61136,521.49,574.28
38.63247,522.63,571.59
38.65199,522.52,571.22
38.67215,520.48,574.15
38.69150,521.17,574.83
38.71258,521.23,573.23
38.73191,520.98,571.99
38.75119,521.02,569.08
38.77201,521.46,568.18
38.79208,522.45,570.01
38.81117,520.81,570.51
38.83143,521.29,566.11
38.85273,520.49,569.17
38.87177,517.62,566.84
38.89197,520.81,570.92
38.91118,518.35,569.77
38.93247,520.37,570.97
38.95140,523.02,570.66
38.97185,521.81,572.87
38.99329,524.59,571.09
39.01357,520.44,569.91
39.03322,519.07,568.85
39.05393,518.98,569.21
39.07334,520.74,567.85
39.09320,517.93,567.17
39.11349,515.75,567.70
39.13507,518.35,565.95
39.15390,516.58,567.95
39.17423,518.45,567.09
39.19398,517.58,568.78
39.21374,519.19,566.72
39.23388,517.59,566.36
39.25493,519.73,566.93
39.27481,518.74,562.30
39.29513,521.70,564.04
39.31408,519.82,563.31
39.33327,520.56,565.33
39.35478,519.00,563.11
39.37306,517.12,564.00
39.39429,518.89,566.01
39.41467,521.14,562.99
39.43510,518.55,560.84
39.45477,518.92,564.50
39.47315,520.97,576.66
39.49366,521.37,598.56
39.51460,524.65,624.06
39.53409,523.69,652.53
39.55392,527.69,669.28
39.57470,526.90,676.10
39.59379,523.48,677.83
39.61356,521.61,674.67
39.63473,524.66,670.36
39.65344,522.88,659.57
39.67308,524.52,647.43
39.69484,524.38,633.72
39.71464,525.01,622.17
39.73394,522.01,614.49
39.75367,521.64,610.29
39.77321,523.63,603.79
39.79353,522.78,596.81
39.81478,520.25,595.66
39.83321,516.70,591.64
39.85386,519.45,588.56
39.87439,518.63,585.07
39.89460,517.76,581.21
39.91400,516.18,579.89
39.93317,515.17,578.70
39.95322,516.42,574.23
39.97311,514.49,577.12
39.99356,517.20,574.39
40.01379,517.37,571.59
40.03475,517.45,573.29
40.05351,518.50,573.74
40.07357,520.02,573.64
40.09436,520.18,571.73
40.11395,521.94,569.53
40.13489,525.60,572.03
40.15477,522.12,569.98
40.17319,522.74,570.55
40.19356,523.26,571.27
40.21314,522.19,569.65
40.23405,521.16,570.13
40.25395,520.24,573.11
40.27489,521.09,573.05
40.29415,523.34,570.10
40.31344,522.60,568.42
40.33518,520.13,571.95
40.35358,522.86,569.16
40.37517,520.62,568.36
40.39492,523.11,570.53
40.41475,520.73,568.59
40.43381,525.19,565.90
40.45394,522.99,566.06
40.47331,523.83,565.87
40.49298,522.10,566.69
40.51404,523.32,565.28
40.53318,520.70,567.90
40.55386,520.59,568.28
40.57311,522.81,570.70
40.59416,522.33,572.93
40.61407,520.76,570.44
40.63485,522.66,570.53
40.65332,520.66,571.26
40.67441,523.36,572.34
40.69425,520.84,569.73
40.71332,521.95,570.37
40.73484,522.61,565.79
40.75311,523.53,551.66
40.77399,523.65,532.17
40.79474,524.93,509.18
40.81453,520.26,487.39
40.83519,521.51,472.14
40.85329,518.23,462.96
40.87352,520.23,461.03
40.89384,518.12,460.06
40.91347,517.54,465.45
40.93419,517.40,470.78
40.95455,520.29,479.10
40.97418,518.47,486.99
40.99319,521.41,498.01
41.01467,526.00,501.39
41.03334,524.71,508.36
41.05432,524.95,514.29
41.07484,523.74,518.18
41.09325,525.57,524.14
41.11339,525.92,527.75
41.13564,526.95,533.82
41.15432,527.35,538.10
41.17503,528.52,546.59
41.19401,530.08,547.85
41.21645,529.74,554.15
41.23591,530.37,556.78
41.25602,532.82,557.80
41.27633,533.82,560.50
41.29761,533.70,562.07
41.31756,536.29,561.86
41.33701,536.71,563.91
41.35658,538.06,567.94
41.37775,539.44,566.68
41.39797,536.74,566.92
41.41761,537.67,566.69
41.43797,540.81,567.45
41.45771,536.76,565.10
41.47710,538.30,565.47
41.49613,536.74,569.09
41.51768,536.57,565.58
41.53781,538.68,566.33
41.55918,534.72,567.37
41.57965,536.99,568.55
41.59956,538.45,573.25
41.61840,537.53,570.63
41.63821,539.08,572.79
41.65928,536.42,573.79
41.67987,536.38,572.42
41.69875,536.41,575.11
41.71984,539.03,572.58
41.73841,537.20,572.67
41.75836,537.99,570.84
41.77959,537.71,571.78
41.79854,537.00,572.36
41.81825,538.56,571.35
41.83786,538.69,573.22
41.85967,539.10,572.86
41.87821,537.87,571.91
41.89835,537.88,572.03
41.91988,538.68,572.84
41.93964,540.45,573.48
41.95901,542.09,574.89
41.97984,539.22,575.63
42.00003,542.13,573.67
42.01828,542.80,571.26
42.03905,541.23,573.21
42.05980,542.48,572.38
42.07912,542.20,571.82
42.09941,542.21,575.50
42.11919,542.03,570.36
42.14002,543.21,572.70
42.16076,539.03,574.95
42.17928,540.66,573.84
42.20066,540.97,575.65
42.21924,540.60,575.75
42.23933,541.55,576.33
42.26078,542.41,577.00
42.28081,540.17,575.40
42.30069,538.91,573.80
42.31938,540.05,573.36
42.34108,540.55,573.70
42.36039,538.15,574.34
42.38044,539.78,571.86
42.40046,541.07,573.85
42.42136,536.99,573.91
42.44065,537.66,573.49
42.46189,539.26,575.70
42.48095,537.47,572.18
42.50135,539.39,573.52
42.52076,538.33,574.59
42.54176,538.50,572.75
42.56005,540.65,579.49
42.58014,542.28,582.60
42.60142,543.98,596.63
42.62112,548.85,611.20
42.64138,551.57,627.70
42.66062,553.81,645.08
42.68169,558.74,665.46
42.70075,561.70,682.33
42.72099,562.98,689.67
42.74043,563.22,695.69
42.76130,562.68,692.59
42.78083,565.20,680.79
42.80131,562.84,662.55
42.82092,563.41,640.61
42.84220,560.65,615.28
42.86185,555.13,589.86
42.88141,552.40,564.16
42.90284,548.07,546.03
42.92100,542.82,522.94
42.94154,537.10,496.98
42.96170,530.21,480.04
42.98254,528.11,471.97
43.00290,525.13,467.31
43.02186,523.36,473.66
43.04151,525.18,496.57
43.06259,527.53,534.55
43.08345,533.59,577.26
43.10345,539.48,614.63
43.12262,546.28,648.95
43.14316,549.99,669.14
43.16313,553.81,682.20
43.18245,555.59,694.97
43.20376,560.31,702.29
43.22339,559.44,706.40
43.24243,563.40,708.62
43.26332,564.07,706.48
