Program Time [s],data 0,data 1
5.30237,424.89,457.39
5.32108,428.95,454.45
5.34194,430.69,454.82
5.36172,429.04,453.73
5.38108,429.71,453.13
5.40225,429.96,454.35
5.42060,429.62,456.65
5.44061,431.27,455.22
5.46204,430.19,455.93
5.48126,431.51,458.21
5.50040,430.01,458.83
5.52121,429.51,458.12
5.54046,427.47,458.41
5.56236,425.01,458.40
5.58118,425.75,460.60
5.60060,424.99,460.68
5.62125,423.73,458.61
5.64156,423.69,458.75
5.66039,424.74,461.38
5.68169,424.46,460.58
5.70176,424.49,462.00
5.72087,421.11,462.56
5.74183,424.73,460.05
5.76230,424.41,461.01
5.78132,424.55,460.29
5.80218,426.17,462.74
5.82180,427.52,464.27
5.84157,429.58,465.46
5.86101,426.65,462.73
5.88126,428.90,462.77
5.90021,429.09,463.49
5.92168,431.57,464.19
5.94109,430.13,464.66
5.96125,429.30,463.65
5.98124,432.31,465.40
6.00109,431.97,464.97
6.02126,432.37,464.46
6.04064,431.40,463.69
6.06204,431.93,464.68
6.08223,433.89,465.56
6.10047,432.77,463.98
6.12133,432.39,467.47
6.14055,428.76,465.55
6.16113,429.64,464.86
6.18092,428.94,467.28
6.20141,430.76,466.15
6.22226,428.38,467.17
6.24144,427.10,465.88
6.26122,428.97,466.64
6.28139,428.81,468.11
6.30210,429.78,467.88
6.32100,431.85,466.80
6.34053,430.42,467.35
6.36216,433.46,468.39
6.38054,434.11,465.35
6.40115,430.18,467.91
6.42183,430.71,467.24
6.44235,431.72,464.50
6.46027,433.41,464.51
6.48124,430.50,467.22
6.50095,432.75,466.66
6.52213,432.30,467.28
6.54227,429.95,466.87
6.56104,431.93,466.20
6.58161,433.48,465.26
6.60051,432.32,467.21
6.62073,432.43,474.39
6.64113,436.82,499.01
6.66146,437.78,528.02
6.68121,441.40,562.40
6.70065,443.64,583.09
6.72195,444.55,595.12
6.74099,440.64,590.32
6.76035,441.06,587.70
6.78135,435.37,575.95
6.80182,433.20,560.49
6.82069,432.72,553.13
6.84180,432.41,534.48
6.86200,434.07,528.28
6.88192,431.99,519.61
6.90075,430.75,512.95
6.92046,433.11,506.98
6.94056,431.04,498.67
6.96166,430.93,496.58
6.98201,431.51,490.56
7.00097,434.60,485.35
7.02024,435.13,481.59
7.04033,436.38,481.88
7.06089,434.64,477.14
7.08089,437.11,476.99
7.10288,438.19,475.86
7.12154,437.40,474.38
7.14175,439.41,478.50
7.16263,436.26,474.39
7.18307,436.87,473.91
7.20225,438.82,475.36
7.22221,439.15,472.60
7.24137,435.42,472.13
7.26333,436.41,467.06
7.28270,439.37,464.75
7.30273,437.12,466.65
7.32274,438.29,470.41
7.34257,442.32,480.10
7.36274,441.50,495.72
7.38427,447.05,493.49
7.40420,443.53,474.72
7.42379,445.29,439.87
7.44310,441.44,409.64
7.46320,437.89,382.89
7.48275,438.13,365.87
7.50429,436.55,358.85
7.52401,432.68,358.34
7.54285,434.24,358.25
7.56383,432.81,362.38
7.58509,436.12,366.00
7.60455,437.55,375.28
7.62354,437.64,380.28
7.64333,436.39,387.01
7.66332,436.34,395.98
7.68431,440.16,402.83
7.70358,442.28,408.96
7.72423,441.55,416.25
7.74506,440.72,422.14
7.76443,442.07,426.11
7.78445,443.30,431.05
7.80368,443.73,434.41
7.82456,441.69,440.77
7.84512,444.36,442.46
7.86438,445.84,445.36
7.88406,443.07,451.51
7.90452,442.47,453.65
7.92449,444.95,454.63
7.94492,444.68,457.21
7.96534,441.71,459.53
7.98546,444.46,459.96
8.00723,444.22,459.14
8.02659,443.45,460.95
8.04585,445.77,465.56
8.06664,445.10,464.04
8.08531,444.56,465.23
8.10565,443.20,469.65
8.12681,444.15,468.56
8.14631,444.34,467.90
8.16693,444.20,466.85
8.18670,441.59,465.21
8.20562,442.30,466.44
8.22542,439.75,468.61
8.24706,439.08,469.45
8.26616,441.40,466.59
8.28626,437.91,469.81
8.30569,441.96,467.71
8.32712,442.87,471.40
8.34562,441.90,468.68
8.36538,444.45,467.44
8.38649,444.96,466.93
8.40713,443.25,467.51
8.42602,442.45,465.47
8.44647,441.89,466.15
8.46647,444.87,467.50
8.48768,440.47,467.52
8.50760,439.65,464.80
8.52725,441.76,466.23
8.54846,441.12,467.35
8.56729,436.87,466.81
8.58863,436.91,469.05
8.60903,437.45,466.75
8.62905,438.95,469.85
8.64741,439.26,468.86
8.66771,440.73,466.56
8.68788,440.52,468.06
8.70771,436.91,466.23
8.72810,440.16,466.66
8.74840,439.14,466.05
8.76765,440.31,466.72
8.78870,438.57,466.06
8.80921,438.96,465.77
8.82905,439.57,464.46
8.84868,437.16,467.28
8.86873,438.13,466.82
8.88884,435.35,467.14
8.90840,436.95,467.10
8.92748,435.82,464.71
8.94746,437.52,466.22
8.96808,437.87,467.50
8.98895,439.20,466.98
9.00762,438.69,465.57
9.02935,436.53,469.17
9.04824,437.89,465.98
9.06754,439.20,469.16
9.08845,439.43,467.76
9.10881,438.73,465.74
9.12873,438.43,468.82
9.14921,435.61,466.03
9.16913,434.76,465.59
9.19012,436.71,468.53
9.20878,433.54,468.41
9.22966,433.76,466.33
9.24986,434.73,466.80
9.26858,436.21,464.89
9.28939,431.96,466.02
9.30951,433.77,468.16
9.32869,431.96,467.20
9.34992,432.56,465.77
9.36953,434.32,464.22
9.38887,433.02,467.28
9.40969,433.17,465.08
9.42988,433.57,463.40
9.44892,431.54,464.26
9.46853,433.79,463.43
9.48865,434.31,464.46
9.50916,433.48,464.98
9.52991,431.68,464.49
9.54953,433.07,462.51
9.56822,432.43,465.02
9.58823,431.05,462.41
9.60862,432.88,464.53
9.62867,430.39,464.01
9.64998,433.96,461.98
9.66907,432.60,463.95
9.68829,430.57,463.48
9.70981,430.94,463.14
9.72904,428.88,462.57
9.74832,427.42,463.09
9.76942,428.61,462.40
9.78978,429.10,463.00
9.80863,431.55,464.50
9.82949,432.42,471.46
9.84914,431.30,495.49
9.86917,431.97,519.77
9.88842,433.54,541.42
9.90897,435.40,554.01
9.93002,437.93,559.94
9.94860,439.00,558.28
9.97024,436.33,554.84
9.98940,435.53,548.11
10.01007,435.59,539.40
10.02887,437.86,529.12
10.04973,437.58,518.82
10.07140,433.03,508.19
10.09041,430.36,507.42
10.11028,430.22,503.52
10.13209,426.27,497.79
10.15211,424.69,491.98
10.17023,427.56,488.30
10.19208,427.63,484.16
10.21065,426.81,482.80
10.23205,428.24,480.80
10.25204,425.59,480.04
10.27093,426.80,479.16
10.29175,425.09,475.30
10.31077,427.53,476.22
10.33201,425.56,479.07
10.35195,427.42,482.06
10.37113,426.55,483.55
10.39209,429.86,486.34
10.41047,427.80,486.21
10.43109,427.60,482.42
10.45044,426.24,480.52
10.47045,425.15,480.31
10.49149,423.69,475.86
10.51176,423.67,474.03
10.53019,428.13,475.00
10.55185,426.17,471.48
10.57117,427.39,470.02
10.59109,429.26,469.67
10.61148,425.37,476.75
10.63071,427.99,484.44
10.65044,424.34,480.87
10.67129,422.81,462.01
10.69156,420.11,426.72
10.71084,417.04,395.67
10.73219,416.29,366.95
10.75222,412.55,358.44
10.77026,413.52,352.09
10.79111,413.24,350.97
10.81062,413.18,355.42
10.83199,416.17,361.43
10.85223,417.56,370.26
10.87177,418.63,378.28
10.89097,419.97,382.90
10.91148,421.03,392.45
10.93020,423.62,399.03
10.95147,425.50,405.20
10.97097,424.95,413.49
10.99044,422.99,419.20
11.01041,422.53,425.02
11.03104,424.56,429.96
11.05092,424.81,432.33
11.07071,425.79,439.63
11.09230,425.50,442.41
11.11115,428.82,447.27
11.13083,426.18,447.43
11.15193,429.41,451.18
11.17205,429.77,452.09
11.19064,425.91,454.71
11.21115,426.58,453.96
11.23123,424.49,457.00
11.25166,426.45,458.82
11.27089,425.91,459.59
11.29218,423.99,461.58
11.31237,426.76,460.99
11.33257,426.45,458.75
11.35264,426.06,459.74
11.37212,427.15,460.65
11.39281,424.83,462.47
11.41147,427.16,460.27
11.43245,427.67,458.98
11.45154,426.22,462.04
11.47288,425.85,458.96
11.49246,425.66,458.91
11.51306,422.93,459.41
11.53249,424.97,460.14
11.55220,424.51,461.94
11.57139,425.57,460.77
11.59236,428.03,461.14
11.61285,426.32,464.02
11.63168,425.50,464.39
11.65168,426.39,465.25
11.67237,425.37,466.04
11.69170,425.73,466.01
11.71174,426.50,463.65
11.73159,425.05,463.76
11.75133,425.88,464.89
11.77300,423.15,465.64
11.79145,426.51,464.60
11.81293,426.51,464.40
11.83164,425.82,461.16
11.85185,426.12,460.17
11.87191,424.75,460.22
11.89311,424.54,460.71
11.91214,424.37,462.81
11.93169,424.46,461.28
11.95238,426.82,462.34
11.97167,426.91,461.42
11.99231,424.10,463.05
12.01153,423.62,462.46
12.03142,424.61,459.68
12.05161,426.88,461.68
12.07187,426.41,458.13
12.09126,427.98,460.07
12.11213,426.73,457.13
12.13224,427.04,460.10
12.15226,424.42,460.35
12.17307,423.85,461.44
12.19187,425.57,464.33
12.21151,423.97,463.61
12.23133,425.70,465.36
12.25273,426.48,467.52
12.27317,428.81,466.56
12.29135,429.07,464.30
12.31309,426.94,465.19
12.33197,426.64,462.46
12.35237,429.46,462.82
12.37187,426.71,462.52
12.39289,425.09,463.65
12.41204,424.81,462.61
12.43205,427.56,463.74
12.45150,427.62,461.32
12.47214,426.74,460.46
12.49165,427.52,460.98
12.51214,426.43,460.27
12.53140,427.94,463.69
12.55278,429.29,460.95
12.57217,425.57,460.03
12.59252,427.16,459.30
12.61209,428.38,460.19
12.63182,425.73,459.55
12.65256,427.21,459.75
12.67243,426.53,457.64
12.69267,424.90,457.88
12.71268,426.78,458.78
12.73302,426.40,460.24
12.75252,427.77,458.32
12.77317,424.23,461.48
12.79197,426.73,460.71
12.81222,425.64,458.65
12.83309,429.28,459.63
12.85304,428.74,460.92
12.87290,427.42,462.38
12.89329,427.44,459.91
12.91130,428.06,461.07
12.93256,429.02,464.92
12.95221,427.97,463.68
12.97261,426.56,463.17
12.99227,428.13,466.34
13.01179,426.09,465.58
13.03341,426.01,465.00
13.05325,427.71,466.33
13.07216,425.03,462.40
13.09257,426.73,462.70
13.11123,425.55,464.20
13.13312,425.38,462.00
13.15232,426.36,464.12
13.17153,426.23,465.33
13.19235,426.24,463.18
13.21265,428.42,463.56
13.23259,427.27,461.08
13.25216,428.49,461.43
13.27138,425.96,461.44
13.29230,427.29,461.71
13.31126,428.79,462.87
13.33267,428.02,462.35
13.35160,430.03,460.21
13.37169,428.28,463.68
13.39173,429.91,462.40
13.41213,427.13,462.53
13.43153,431.67,464.36
13.45273,431.43,462.79
13.47166,428.08,463.64
13.49247,430.15,464.55
13.51173,431.58,464.93
13.53275,432.45,463.15
13.55218,430.07,465.29
13.57285,431.57,463.57
13.59125,431.03,463.34
13.61131,430.16,463.86
13.63133,432.96,461.63
13.65247,431.97,463.54
13.67176,433.96,459.74
13.69223,432.86,464.04
13.71221,433.55,477.44
13.73152,432.47,501.76
13.75268,433.30,529.49
13.77268,435.26,550.67
13.79150,436.46,565.07
13.81202,435.65,572.79
13.83160,435.74,574.03
13.85135,435.09,570.07
13.87209,435.76,567.48
13.89258,433.57,561.68
13.91256,436.32,552.37
13.93330,434.13,549.20
13.95273,433.88,538.56
13.97302,433.83,531.23
13.99204,435.79,530.64
14.01190,434.94,523.14
14.03282,437.44,516.15
14.05298,435.71,509.79
14.07186,434.65,507.09
14.09176,434.44,504.22
14.11256,436.53,501.02
14.13233,434.89,500.16
14.15241,432.23,494.96
14.17165,435.24,494.92
14.19222,432.99,488.95
14.21175,435.64,487.23
14.23273,434.48,484.64
14.25146,432.61,482.18
14.27134,432.41,480.05
14.29233,434.24,477.80
14.31245,432.54,477.78
14.33297,432.47,471.55
14.35302,434.80,470.61
14.37128,432.84,471.95
14.39289,434.42,472.55
14.41263,432.11,470.41
14.43195,434.22,468.88
14.45187,433.59,466.56
14.47130,432.69,475.10
14.49191,433.67,479.30
14.51163,436.52,482.76
14.53210,438.77,476.59
14.55237,435.89,449.42
14.57273,431.78,414.04
14.59265,428.64,379.31
14.61210,428.29,362.41
14.63218,425.86,351.65
14.65238,425.91,350.43
14.67120,423.87,349.81
14.69157,425.36,353.98
14.71184,424.29,357.47
14.73303,426.96,365.02
14.75288,428.89,374.83
14.77159,428.38,381.08
14.79156,432.37,382.88
14.81295,430.63,389.25
14.83152,429.25,397.14
14.85257,431.46,403.24
14.87153,430.35,411.20
14.89158,432.47,416.34
14.91318,434.10,421.13
14.93170,433.22,425.97
14.95209,433.93,431.07
14.97225,431.71,434.78
14.99261,434.60,438.11
15.01299,434.59,441.36
15.03232,435.61,444.61
15.05285,433.07,447.49
15.07209,433.97,451.21
15.09175,434.43,450.95
15.11263,434.85,453.93
15.13218,437.48,455.96
15.15260,438.50,455.88
15.17237,438.48,458.30
15.19259,436.33,457.81
15.21128,436.69,460.79
15.23204,437.40,461.11
15.25163,436.39,460.33
15.27220,437.11,463.32
15.29247,435.94,459.38
15.31132,436.34,459.89
15.33268,435.05,461.40
15.35192,438.21,461.48
15.37188,437.82,460.70
15.39268,439.33,461.16
15.41169,439.44,460.88
15.43291,438.69,460.54
15.45140,435.90,458.65
15.47118,436.19,459.28
15.49257,438.57,460.72
15.51105,440.27,458.09
15.53294,441.13,459.51
15.55290,440.89,460.43
15.57126,439.19,461.03
15.59207,438.88,458.71
15.61166,439.55,462.42
15.63223,436.92,459.85
15.65151,437.12,460.34
15.67272,436.07,460.00
15.69234,439.29,462.14
15.71147,437.77,465.97
15.73199,439.83,464.02
15.75253,441.83,464.23
15.77278,440.06,463.36
15.79309,440.36,466.03
15.81134,439.31,465.36
15.83281,442.02,464.00
15.85122,441.72,463.56
15.87286,441.61,463.54
15.89220,442.07,463.23
15.91184,442.81,463.44
15.93128,440.52,466.72
15.95252,442.25,464.39
15.97153,442.53,464.48
15.99143,441.69,466.04
16.01263,442.37,467.96
16.03113,439.93,465.14
16.05119,439.15,464.16
16.07297,439.32,462.49
16.09239,436.54,463.97
16.11216,439.72,465.55
16.13256,438.82,463.56
16.15218,439.15,463.57
16.17256,438.99,464.55
16.19141,439.91,464.66
16.21157,441.92,466.04
16.23270,439.94,466.27
16.25136,438.96,463.66
16.27265,440.57,464.67
16.29307,439.79,464.76
16.31406,438.22,466.28
16.33222,441.24,465.61
16.35315,442.14,467.65
16.37223,442.31,467.64
16.39382,440.64,467.10
16.41259,443.32,465.44
16.43394,442.60,465.90
16.45369,441.33,465.76
16.47394,444.39,465.65
16.49298,440.14,466.53
16.51238,442.36,464.67
16.53377,442.77,463.02
16.55347,444.10,462.89
16.57276,442.64,464.71
16.59358,444.47,464.67
16.61397,441.32,465.17
16.63282,441.76,462.12
16.65230,441.79,464.21
16.67396,440.45,465.15
16.69229,442.23,461.76
16.71333,443.82,461.37
16.73227,441.27,460.05
16.75401,444.28,460.97
16.77390,441.63,463.03
16.79375,444.13,461.82
16.81390,443.86,463.79
16.83285,443.10,460.58
16.85240,441.43,460.15
16.87211,444.65,461.53
16.89327,441.71,458.93
16.91332,443.88,462.74
16.93321,443.64,460.68
16.95278,442.31,462.39
16.97376,441.14,459.98
16.99222,441.86,459.72
17.01382,441.28,461.08
17.03299,443.48,461.40
17.05223,440.13,461.82
17.07340,442.21,461.08
17.09256,444.47,462.13
17.11267,443.44,462.89
17.13263,441.37,463.19
17.15290,444.87,461.73
17.17265,444.34,464.56
17.19306,446.36,462.56
17.21306,447.31,466.13
17.23223,445.31,465.57
17.25227,445.85,465.18
17.27293,446.68,465.43
17.29332,444.71,465.97
17.31317,444.07,467.90
17.33378,444.84,466.81
17.35278,442.48,465.79
17.37232,445.76,466.92
17.39388,443.75,464.89
17.41264,446.24,466.76
17.43341,442.02,468.21
17.45368,442.78,467.19
17.47363,441.14,466.40
17.49316,442.74,466.67
17.51309,441.47,468.75
17.53304,442.87,467.41
17.55343,444.12,468.32
17.57345,444.60,472.69
17.59387,446.04,472.28
17.61415,443.06,475.13
17.63272,445.14,474.83
17.65268,445.27,485.90
17.67374,443.82,508.88
17.69347,446.10,536.67
17.71382,449.90,557.06
17.73404,450.00,565.42
17.75285,446.31,566.99
17.77361,445.47,568.78
17.79245,443.35,558.29
17.81303,443.29,553.12
17.83282,445.16,545.50
17.85396,447.72,540.50
17.87354,447.37,539.40
17.89226,449.45,531.70
17.91328,446.60,526.13
17.93290,447.23,519.32
17.95376,449.15,512.23
17.97355,445.96,511.19
17.99233,446.67,502.89
18.01430,444.47,498.12
18.03468,444.67,496.77
18.05340,442.90,490.12
18.07411,443.78,491.04
18.09460,444.20,488.80
18.11409,444.83,488.83
18.13383,443.41,489.07
18.15476,443.73,488.75
18.17474,443.82,483.74
18.19324,444.83,484.18
18.21326,441.94,479.60
18.23441,440.37,479.02
18.25390,441.10,478.04
18.27396,441.87,476.94
18.29486,442.93,475.78
18.31446,442.21,474.21
18.33440,440.30,475.58
18.35422,439.59,478.05
18.37416,440.55,477.33
18.39303,440.07,477.51
18.41413,441.59,477.98
18.43375,441.79,474.65
18.45377,442.26,475.32
18.47315,441.97,481.12
18.49349,441.71,474.94
18.51419,438.91,460.84
18.53313,437.33,433.13
18.55376,434.33,402.25
18.57415,429.09,382.20
18.59493,428.65,367.93
18.61450,428.05,363.81
18.63371,429.76,360.52
18.65433,427.90,365.95
18.67306,430.39,369.51
18.69361,433.09,375.00
18.71460,434.25,383.71
18.73375,432.82,392.22
18.75497,434.77,399.92
18.77475,435.49,408.43
18.79443,436.59,415.74
18.81380,440.35,421.13
18.83362,440.44,426.06
18.85293,440.65,433.83
18.87468,441.21,436.41
18.89562,441.11,442.33
18.91541,439.34,445.67
18.93515,438.47,449.00
18.95437,439.40,448.67
18.97507,439.70,453.04
18.99560,438.23,451.96
19.01531,439.09,456.77
19.03546,438.76,458.36
19.05538,439.15,457.94
19.07529,438.99,458.25
19.09498,439.82,460.24
19.11437,438.31,463.47
19.13483,437.83,464.32
19.15434,436.66,468.12
19.17451,437.87,472.90
19.19568,437.05,472.36
19.21436,440.46,473.75
19.23435,437.34,473.34
19.25523,437.89,475.32
19.27591,437.56,473.15
19.29594,439.52,473.31
19.31511,439.33,473.87
19.33520,439.80,472.58
19.35447,436.19,474.41
19.37560,436.65,473.30
19.39489,437.41,470.55
19.41551,438.19,473.18
19.43476,437.37,469.52
19.45567,436.85,469.29
19.47565,435.53,466.54
19.49520,438.09,465.85
19.51442,436.45,464.69
19.53565,436.95,462.55
19.55482,436.90,465.63
19.57417,434.98,461.46
19.59552,438.19,464.46
19.61424,437.54,465.98
19.63423,434.42,465.58
19.65584,435.47,464.09
19.67457,436.53,462.10
19.69594,435.19,463.42
19.71488,433.91,464.25
19.73558,434.84,464.21
19.75573,432.01,463.20
19.77530,434.29,463.90
19.79436,434.97,464.95
19.81592,435.42,464.17
19.83519,432.27,464.38
19.85416,434.20,457.46
19.87420,431.94,459.12
19.89504,433.26,453.81
19.91537,435.22,455.77
19.93561,434.97,453.47
19.95543,435.53,457.52
19.97505,432.21,456.18
19.99618,435.11,457.40
20.01469,434.45,456.79
20.03641,433.31,457.98
20.05608,432.38,458.55
20.07582,433.33,459.77
20.09495,431.48,459.17
20.11662,432.54,461.90
20.13649,432.32,462.21
20.15664,429.34,464.54
20.17507,431.40,462.46
20.19632,430.09,464.45
20.21499,431.20,466.38
20.23700,430.09,464.29
20.25617,429.51,465.12
20.27506,429.39,467.34
20.29526,431.69,465.79
20.31706,429.31,469.34
20.33506,429.75,469.34
20.35679,430.43,467.50
20.37610,431.02,468.76
20.39625,430.24,467.19
20.41589,429.91,465.66
20.43667,430.05,466.07
20.45593,432.87,464.60
20.47689,430.04,463.89
20.49580,428.50,465.45
20.51560,428.61,466.93
20.53687,430.91,465.80
20.55582,428.70,465.18
20.57550,429.28,464.30
20.59541,432.09,463.65
20.61579,430.61,466.76
20.63578,432.31,464.62
20.65642,429.54,468.28
20.67538,430.11,465.70
20.69639,429.14,465.78
20.71661,426.93,466.61
20.73696,427.64,467.12
20.75705,427.76,466.06
20.77618,428.06,468.11
20.79541,428.43,468.89
20.81676,427.80,469.97
20.83617,427.01,468.44
20.85676,429.09,462.76
20.87523,427.24,464.41
20.89538,428.84,464.28
20.91595,427.99,466.38
20.93552,429.18,464.95
20.95580,427.16,465.28
20.97634,429.10,463.45
20.99679,427.61,465.07
21.01562,429.72,462.45
21.03597,427.85,466.22
21.05558,427.20,464.42
21.07619,425.98,462.91
21.09527,429.08,465.39
21.11626,429.77,465.41
21.13633,428.00,466.04
21.15598,430.19,467.07
21.17541,426.86,468.17
21.19622,428.23,466.12
21.21595,427.73,465.15
21.23686,429.70,464.66
21.25630,425.74,466.30
21.27493,428.89,466.07
21.29555,428.28,463.82
21.31566,427.74,466.83
21.33638,426.95,465.22
21.35674,428.74,463.64
21.37616,429.43,465.73
21.39571,427.98,463.32
21.41551,428.33,463.83
21.43655,428.59,466.72
21.45668,429.12,464.91
21.47496,428.23,464.38
21.49606,425.99,466.32
21.51604,427.21,464.28
21.53668,426.51,463.66
21.55570,428.63,465.74
21.57672,427.59,467.30
21.59688,426.40,468.19
21.61669,425.89,467.79
21.63520,427.77,467.30
21.65624,428.72,465.91
21.67644,428.77,463.24
21.69671,428.25,469.92
21.71666,426.83,485.19
21.73603,426.54,504.42
21.75612,427.11,521.38
21.77586,423.39,538.16
21.79570,423.94,549.01
21.81630,423.31,551.09
21.83642,421.97,552.27
21.85514,420.78,549.25
21.87659,420.18,542.43
21.89617,420.76,540.17
21.91528,423.18,531.05
21.93523,425.49,525.19
21.95674,429.18,518.58
21.97527,427.14,511.24
21.99537,427.76,510.85
22.01542,430.05,501.33
22.03661,430.75,501.92
22.05518,430.35,495.35
22.07543,429.42,494.92
22.09530,433.57,490.66
22.11645,431.53,488.81
22.13567,431.40,487.31
22.15619,435.02,482.16
22.17537,433.23,484.23
22.19599,430.65,484.21
22.21578,431.60,484.31
22.23558,432.51,484.16
22.25578,428.63,482.90
22.27561,429.51,481.39
22.29502,428.87,479.56
22.31626,426.50,477.74
22.33575,430.13,477.51
22.35505,430.13,478.19
22.37585,429.60,477.65
22.39609,428.37,476.17
22.41521,425.75,474.45
22.43545,427.04,477.28
22.45636,429.67,484.89
22.47606,430.70,494.27
22.49646,428.27,494.17
22.51513,426.69,470.53
22.53645,421.86,434.60
22.55612,421.36,400.73
22.57548,421.56,375.83
22.59614,418.50,361.84
22.61568,416.00,354.83
22.63695,420.00,355.09
22.65651,418.75,356.21
22.67637,417.13,360.68
22.69635,417.86,369.36
22.71542,421.14,374.30
22.73631,420.79,382.34
22.75574,423.50,392.18
22.77514,420.53,397.97
22.79696,423.38,407.09
22.81604,424.05,412.44
22.83585,427.46,419.65
22.85672,426.21,424.00
22.87522,424.95,429.80
22.89650,427.73,433.95
22.91550,425.42,436.36
22.93623,425.24,442.09
22.95554,426.34,444.13
22.97579,426.55,448.02
22.99499,427.54,448.97
23.01527,425.03,450.58
23.03507,428.55,452.66
23.05662,426.71,457.48
23.07592,426.89,460.91
23.09579,425.22,463.88
23.11506,426.79,462.18
23.13575,424.34,464.84
23.15597,426.60,462.39
23.17631,426.24,460.73
23.19542,423.64,462.30
23.21555,423.99,462.94
23.23638,426.11,460.53
23.25503,424.59,463.61
23.27557,424.17,460.13
23.29518,424.51,460.17
23.31533,426.00,464.42
23.33616,423.46,463.33
23.35575,424.34,460.99
23.37617,422.51,463.58
23.39529,425.17,461.19
23.41626,421.69,462.37
23.43509,423.05,463.04
23.45659,422.35,465.13
23.47748,424.91,464.33
23.49737,423.46,464.44
23.51709,424.90,462.61
23.53741,423.56,463.89
23.55823,424.79,462.05
23.57723,425.09,463.73
23.59736,427.70,461.66
23.61782,424.62,461.03
23.63839,424.15,461.90
23.65859,423.81,460.81
23.67830,426.12,460.43
23.69851,425.62,460.43
23.71692,423.67,460.13
23.73711,427.12,462.43
23.75807,426.37,460.68
23.77847,426.09,459.37
23.79865,424.37,460.05
23.81890,426.39,460.06
23.83900,427.94,459.83
23.85735,428.97,459.81
23.87865,428.94,458.16
23.89789,426.94,458.58
23.91710,429.24,459.15
23.93798,426.56,459.63
23.95796,429.55,461.70
23.97769,427.35,459.07
23.99820,425.38,458.98
24.01850,427.17,460.68
24.03849,427.14,461.23
24.05802,426.37,462.04
24.07845,424.88,460.33
24.09706,427.15,458.07
24.11811,426.14,461.89
24.13739,427.16,459.11
24.15765,428.65,461.07
24.17715,429.88,461.71
24.19733,427.10,463.52
24.21707,426.82,464.88
24.23760,428.09,464.76
24.25796,427.72,464.88
24.27871,427.77,464.83
24.29707,426.81,465.33
24.31756,426.19,466.62
24.33883,428.99,463.48
24.35697,428.33,463.01
24.37748,426.97,462.93
24.39803,428.05,463.00
24.41708,426.78,464.61
24.43742,427.08,464.49
24.45751,428.74,463.28
24.47861,429.06,463.79
24.49899,428.37,462.61
24.51834,425.84,462.94
24.53702,425.56,462.64
24.55775,424.83,463.90
24.57975,425.34,463.07
24.59823,426.62,464.35
24.61869,429.20,464.66
24.63835,430.16,464.04
24.65957,428.53,462.81
24.67805,430.03,461.39
24.69879,428.73,462.81
24.71865,429.53,459.38
24.73948,429.74,459.07
24.75971,428.79,461.33
24.77960,427.97,462.37
24.80053,430.91,463.33
24.82020,431.84,461.06
24.84070,431.95,461.83
24.85896,434.77,462.22
24.87970,432.41,462.71
24.89973,434.95,463.02
24.92002,433.42,462.04
24.93891,431.65,461.93
24.95980,433.80,463.11
24.98084,436.24,462.84
25.00088,434.20,460.98
25.02049,435.53,462.61
25.04145,435.84,460.35
25.05989,439.16,462.78
25.08045,438.36,467.54
25.10275,440.19,469.56
25.12171,440.02,467.45
25.14208,438.71,470.01
25.16074,439.90,468.20
25.18090,437.96,463.87
25.20135,441.86,463.24
25.22125,440.77,464.99
25.24115,442.33,465.24
25.26200,442.36,464.83
25.28152,442.08,461.92
25.30282,438.77,461.89
25.32200,439.55,463.52
25.34205,438.99,461.58
25.36196,441.88,461.78
25.38094,440.56,463.24
25.40210,443.09,459.38
25.42129,441.29,459.67
25.44183,440.68,461.47
25.46271,441.46,461.97
25.48108,439.77,460.80
25.50296,443.13,459.17
25.52325,443.21,467.47
25.54254,445.88,492.15
25.56306,449.20,519.43
25.58447,449.78,544.99
25.60408,449.90,560.51
25.62448,450.58,566.54
25.64270,452.37,567.72
25.66466,450.58,566.50
25.68445,447.64,558.02
25.70330,446.04,553.22
25.72411,444.88,546.30
25.74461,444.56,537.41
25.76446,445.37,531.57
25.78485,444.67,528.98
25.80436,444.13,524.54
25.82376,444.08,513.97
25.84297,444.28,504.42
25.86472,446.30,505.39
25.88442,446.98,501.44
25.90418,445.45,498.33
25.92300,443.12,498.57
25.94441,444.62,492.29
25.96362,441.57,493.17
25.98424,443.47,486.94
26.00399,442.71,487.07
26.02556,441.70,483.86
26.04390,441.80,482.89
26.06539,441.74,479.42
26.08414,440.58,478.45
26.10478,440.40,480.33
26.12424,443.68,483.85
26.14529,445.82,492.11
26.16459,443.65,502.30
26.18490,444.06,498.22
26.20486,442.97,485.17
26.22472,443.56,460.13
26.24473,439.04,429.80
26.26456,433.12,405.07
26.28427,432.23,385.09
26.30398,430.91,373.59
26.32450,432.92,365.85
26.34544,436.35,366.01
26.36450,435.80,365.56
26.38486,438.41,370.73
26.40684,435.97,375.28
26.42558,438.03,379.40
26.44669,436.25,382.64
26.46622,437.45,388.14
26.48494,437.42,394.84
26.50499,439.06,399.77
26.52586,439.44,405.46
26.54676,437.66,412.34
26.56688,439.92,417.95
26.58572,438.93,422.65
26.60667,441.40,426.76
26.62471,441.06,431.50
26.64490,442.25,435.42
26.66740,440.76,443.24
26.68727,441.65,457.57
26.70644,445.71,485.05
26.72660,444.63,532.78
26.74647,449.06,577.29
26.76731,455.53,616.09
26.78675,457.40,628.56
26.80693,459.55,624.01
26.82640,458.59,599.16
26.84738,454.38,568.97
26.86710,449.45,536.02
26.88674,442.47,505.15
26.90786,439.96,477.29
26.92714,434.16,449.52
26.94620,433.55,435.03
26.96666,432.83,419.45
26.98692,427.48,407.18
27.00748,429.17,402.73
27.02721,428.62,400.71
27.04739,426.92,399.42
27.06623,427.74,400.06
27.08771,431.04,403.61
27.10776,430.84,405.15
27.12619,432.85,410.25
27.14740,432.47,412.73
27.16767,434.22,419.05
27.18694,433.38,424.27
27.20594,432.83,427.33
27.22615,433.07,432.88
27.24687,433.31,438.72
27.26708,434.59,439.69
27.28728,434.56,445.78
27.30685,435.27,448.10
27.32653,436.15,450.46
27.34617,436.75,452.72
27.36725,435.29,452.53
27.38785,437.29,450.34
27.40675,437.86,455.57
27.42731,438.61,457.78
27.44649,435.31,453.78
27.46765,434.83,454.33
27.48787,439.09,457.74
27.50613,438.45,464.04
27.52616,436.01,473.44
27.54757,437.76,486.62
27.56689,441.76,500.43
27.58651,440.78,515.68
27.60623,442.44,522.60
27.62720,439.07,526.46
27.64760,441.51,524.31
27.66588,440.35,520.57
27.68720,439.21,518.05
27.70598,440.93,510.55
27.72618,441.38,508.79
27.74733,439.26,502.19
27.76597,435.97,498.78
27.78631,439.57,492.51
27.80591,435.57,490.37
27.82718,437.37,487.16
27.84606,436.80,487.98
27.86585,437.31,484.60
27.88676,435.69,466.42
27.90783,434.71,441.78
27.92597,435.57,426.39
27.94697,433.28,417.56
27.96706,430.12,416.30
27.98726,432.38,415.54
28.00634,433.03,414.66
28.02661,433.96,417.79
28.04678,434.32,420.31
28.06665,431.77,424.90
28.08753,430.57,427.41
28.10738,432.83,429.60
28.12675,432.45,435.48
28.14641,434.07,436.57
28.16709,432.73,440.10
28.18586,433.85,442.49
28.20653,436.33,446.27
28.22732,434.52,449.99
28.24666,434.24,450.24
28.26625,436.48,455.86
28.28653,433.72,456.74
28.30733,435.98,454.70
28.32775,435.33,457.13
28.34671,434.58,459.63
28.36642,433.81,458.28
28.38642,436.76,458.18
28.40749,434.18,460.96
28.42761,435.07,461.04
28.44780,433.95,465.20
28.46863,433.29,465.41
28.48760,433.08,463.99
28.50679,432.44,463.42
28.52687,434.38,464.82
28.54832,436.13,463.62
28.56711,433.77,463.61
28.58761,435.33,463.95
28.60731,434.65,462.49
28.62796,434.41,462.92
28.64809,433.99,462.60
28.66776,430.74,463.01
28.68886,432.92,466.54
28.70758,432.18,463.41
28.72674,431.69,464.68
28.74840,429.20,467.37
28.76762,429.96,466.25
28.78763,432.00,466.10
28.80684,430.71,465.86
28.82721,432.39,468.10
28.84765,432.89,477.43
28.86855,435.29,498.88
28.88853,435.83,527.03
28.90804,439.56,558.71
28.92779,439.57,579.85
28.94716,440.26,587.10
28.96774,440.37,589.65
28.98707,439.69,585.17
29.00877,439.56,575.33
29.02782,438.06,560.95
29.04909,434.61,550.76
29.06874,433.65,536.78
29.08816,431.98,526.54
29.10864,431.74,517.08
29.12845,432.03,508.96
29.14838,430.23,502.11
29.16902,432.08,494.49
29.18914,430.35,488.93
29.20810,430.30,487.95
29.22941,428.44,486.06
29.24840,429.29,482.49
29.26818,428.31,481.06
29.28974,428.05,477.21
29.30965,428.87,476.50
29.32989,429.56,479.65
29.34794,426.36,475.19
29.36857,429.28,475.69
29.38979,429.12,473.95
29.40903,426.44,470.05
29.42951,425.40,473.37
29.44848,426.55,470.88
29.46941,427.08,470.13
29.48975,425.96,468.75
29.50818,427.27,468.59
29.52847,427.96,465.40
29.54906,425.92,467.90
29.56790,428.66,468.32
29.58809,428.68,464.23
29.60761,430.34,465.51
29.62832,429.10,464.95
29.64840,427.20,463.91
29.66968,427.28,462.63
29.69062,429.14,461.76
29.70874,427.59,464.22
29.72975,426.36,465.71
29.75020,426.77,474.90
29.76996,429.55,495.31
29.79053,430.30,509.26
29.80979,435.07,515.94
29.82927,434.43,506.39
29.85039,431.09,479.58
29.86980,429.99,445.42
29.88977,426.27,409.44
29.90894,422.41,382.76
29.93016,423.41,366.21
29.95169,419.72,357.29
29.97049,420.58,347.80
29.99105,419.00,346.80
30.01116,417.55,352.28
30.03182,420.42,359.34
30.05219,421.05,364.31
30.07159,421.25,377.51
30.09089,419.10,384.47
30.11206,420.18,392.13
30.13251,422.15,397.86
30.15202,419.18,405.50
30.17200,420.70,410.90
30.19065,420.33,412.53
30.21212,418.86,418.79
30.23085,420.48,424.85
30.25252,421.46,427.79
30.27092,423.31,428.49
30.29195,421.54,431.80
30.31105,421.58,436.12
30.33255,421.93,437.39
30.35102,421.07,441.17
30.37228,421.38,446.94
30.39254,419.39,445.13
30.41211,421.72,449.83
30.43134,423.07,451.67
30.45075,423.92,452.32
30.47253,424.60,454.30
30.49224,426.38,451.73
30.51185,425.65,454.73
30.53241,426.85,454.32
30.55144,427.18,456.38
30.57160,422.56,454.90
30.59188,422.70,456.90
30.61065,422.24,456.48
30.63105,425.64,456.44
30.65148,425.51,457.28
30.67132,425.28,454.65
30.69108,423.68,456.97
30.71208,424.90,455.77
30.73307,423.54,461.30
30.75248,423.14,459.18
30.77371,425.72,460.83
30.79334,425.00,461.29
30.81388,427.26,460.39
30.83260,426.13,459.80
30.85358,423.99,459.74
30.87310,425.38,461.37
30.89404,427.06,458.45
30.91385,427.69,461.90
30.93427,427.79,459.23
30.95306,427.22,461.95
30.97335,430.23,458.85
30.99383,429.82,461.47
31.01328,428.89,462.03
31.03476,432.30,460.85
31.05456,429.55,460.67
31.07413,429.64,460.16
31.09378,428.84,461.04
31.11289,428.40,460.68
31.13400,430.18,462.28
31.15394,431.52,464.32
31.17384,430.87,462.09
31.19374,431.47,463.91
31.21391,431.59,463.60
31.23399,430.46,463.45
31.25451,431.68,464.15
31.27534,432.66,461.39
31.29443,433.00,461.28
31.31454,430.78,462.84
31.33390,432.69,460.67
31.35508,430.17,463.52
31.37467,431.31,466.71
31.39534,431.42,461.48
31.41561,432.18,463.39
31.43567,432.87,464.11
31.45397,432.58,464.22
31.47547,435.23,464.05
31.49468,434.84,464.02
31.51395,435.00,464.47
31.53468,433.81,465.22
31.55534,435.49,465.42
31.57516,434.38,465.98
31.59599,434.64,467.04
31.61459,434.07,467.80
31.63455,435.39,467.09
31.65511,435.54,467.64
31.67500,432.63,467.75
31.69374,434.98,467.46
31.71409,433.79,467.25
31.73529,433.04,465.55
31.75435,433.07,466.02
31.77595,435.61,466.95
31.79560,435.26,468.43
31.81532,433.53,466.41
31.83608,433.40,467.04
31.85630,433.89,465.68
31.87481,436.73,467.26
31.89654,435.12,463.47
31.91613,435.29,464.69
31.93475,435.17,466.57
31.95514,435.80,463.87
31.97606,437.62,466.28
31.99496,438.43,467.56
32.01561,438.40,466.28
32.03617,437.13,466.38
32.05576,437.71,468.48
32.07481,439.28,468.53
32.09475,436.84,465.38
32.11567,437.06,464.14
32.13509,438.54,464.35
32.15572,440.56,464.96
32.17459,439.00,465.02
32.19467,439.45,466.76
32.21475,442.12,462.70
32.23494,438.96,463.50
32.25579,440.43,462.60
32.27545,440.71,461.54
32.29661,438.44,463.30
32.31587,439.69,465.04
32.33664,439.07,462.20
32.35588,439.15,465.39
32.37646,438.72,463.29
32.39590,438.02,465.43
32.41608,438.96,461.94
32.43454,439.20,462.61
32.45609,437.27,462.83
32.47596,439.57,463.43
32.49607,436.81,463.62
32.51498,438.00,463.46
32.53607,436.77,465.45
32.55568,442.16,463.09
32.57474,441.97,464.89
32.59660,441.38,466.26
32.61542,438.28,464.14
32.63573,440.66,464.64
32.65602,437.30,464.15
32.67477,440.10,466.22
32.69474,437.73,465.15
32.71586,437.45,463.43
32.73613,441.15,462.79
32.75656,437.41,466.11
32.77639,438.77,465.21
32.79665,438.92,465.91
32.81479,439.83,464.89
32.83631,440.96,467.09
32.85526,438.97,466.50
32.87496,442.35,466.24
32.89588,440.51,465.19
32.91605,442.16,465.19
32.93492,441.74,463.13
32.95653,440.73,463.75
32.97724,441.44,464.55
32.99744,440.09,462.29
33.01606,442.41,461.46
33.03744,440.58,460.70
33.05582,442.18,460.43
33.07682,444.12,462.30
33.09613,442.62,459.42
33.11586,444.41,463.00
33.13720,441.93,473.58
33.15750,441.78,495.99
33.17757,445.29,521.20
33.19863,445.91,540.45
33.21787,447.65,558.51
33.23830,449.34,563.43
33.25750,449.55,565.44
33.27776,444.83,563.28
33.29771,445.27,559.78
33.31855,444.64,549.30
33.33668,446.21,543.33
33.35726,447.62,539.58
33.37779,448.70,531.22
33.39704,447.04,526.25
33.41819,447.03,523.52
33.43675,447.18,522.16
33.45702,447.58,516.40
33.47724,446.79,511.58
33.49834,446.46,512.51
33.51710,447.57,511.87
33.53745,446.16,513.87
33.55769,444.22,509.89
33.57835,446.59,503.80
33.59838,445.07,501.79
33.61716,443.73,497.84
33.63691,443.66,492.35
33.65750,444.66,490.58
33.67774,445.64,487.44
33.69725,445.29,482.98
33.71768,444.18,481.07
33.73758,445.03,482.55
33.75745,442.51,481.53
33.77832,445.00,479.84
33.79739,443.50,484.27
33.81878,445.60,496.32
33.83806,448.73,508.26
33.85735,451.06,512.68
33.87825,450.54,503.23
33.89684,448.80,475.82
33.91818,444.75,440.27
33.93788,441.92,405.91
33.95726,442.29,382.02
33.97676,441.12,364.92
33.99804,440.56,358.03
34.01784,437.72,352.16
34.03863,437.83,354.80
34.05858,435.54,357.24
34.07860,436.98,363.75
34.09911,435.08,368.82
34.12015,433.67,378.61
34.13965,433.37,386.95
34.15958,432.71,393.65
34.17881,434.95,399.13
34.20024,432.08,403.33
34.22042,433.52,411.07
34.23873,432.21,419.93
34.26003,436.06,422.98
34.27904,435.89,424.62
34.29965,436.79,431.92
34.32000,436.61,433.55
34.33959,438.07,437.38
34.36024,437.43,442.42
34.38112,434.71,447.65
34.40054,434.40,447.84
34.41999,436.94,452.69
34.44133,433.32,454.04
34.46173,433.37,454.22
34.48157,436.95,456.97
34.50214,434.68,456.59
34.52203,434.35,457.11
34.54331,431.26,455.42
34.56262,430.65,459.20
34.58334,431.08,459.50
34.60160,431.24,459.88
34.62355,432.00,462.21
34.64315,430.06,463.40
34.66258,429.24,461.61
34.68367,429.15,463.03
34.70240,431.11,462.42
34.72294,429.38,466.06
34.74267,430.68,465.94
34.76193,427.70,464.42
34.78360,431.83,466.95
34.80336,433.23,465.48
34.82194,430.41,467.22
34.84440,433.25,468.93
34.86309,432.12,466.18
34.88355,429.33,467.88
34.90287,431.45,468.21
34.92377,426.64,467.73
34.94376,426.95,465.42
34.96315,425.79,466.74
34.98350,428.29,468.14
35.00421,426.69,466.39
35.02293,426.31,468.46
35.04318,425.84,468.05
35.06320,427.21,467.29
35.08307,426.09,468.86
35.10288,430.40,466.17
35.12307,427.66,467.67
35.14283,427.44,468.68
35.16442,428.53,465.48
35.18408,428.53,467.10
35.20580,429.18,466.80
35.22750,429.00,465.24
35.24631,426.74,464.36
35.26714,428.29,463.09
35.28553,428.20,463.98
35.30691,425.28,465.61
35.32716,425.88,464.48
35.34622,424.43,462.72
35.36622,423.98,463.90
35.38573,425.25,460.47
35.40725,425.10,459.53
35.42711,425.05,459.90
35.44725,424.19,462.22
35.46575,425.27,460.04
35.48709,426.86,460.89
35.50643,426.51,460.77
35.52618,425.46,463.10
35.54680,425.61,463.24
35.56735,425.76,462.58
35.58758,426.46,462.61
35.60740,426.55,464.87
35.62736,426.04,462.92
35.64802,425.17,461.80
35.66811,426.96,463.80
35.68808,424.39,460.96
35.70861,426.94,463.23
35.72714,425.71,463.78
35.74747,425.71,461.02
35.76775,427.75,463.92
35.78929,428.23,461.82
35.80902,425.64,461.92
35.82894,428.61,465.00
35.84943,426.03,462.31
35.86862,426.51,460.34
35.88863,428.03,460.36
35.90930,427.26,460.59
35.92998,429.36,460.84
35.94984,430.21,462.07
35.96947,428.89,464.72
35.98860,430.12,463.99
36.00921,432.07,464.26
36.03069,430.41,462.77
36.04997,431.43,461.90
36.07015,430.99,463.88
36.08945,429.18,463.81
36.11006,433.16,464.49
36.13037,431.36,462.00
36.15003,431.06,461.70
36.17029,434.43,464.09
36.19034,432.22,463.14
36.20865,434.19,464.46
36.22939,432.75,461.43
36.24991,432.79,459.72
36.26875,435.75,462.95
36.28995,433.57,461.92
36.30923,434.27,463.54
36.32994,434.42,466.04
36.34936,436.28,464.04
36.37021,433.62,464.20
36.38950,436.08,464.65
36.40866,434.93,464.28
36.42861,434.59,466.38
36.44954,436.99,464.62
36.46974,435.30,462.98
36.49009,436.29,464.77
36.50861,433.47,461.63
36.53050,432.92,462.91
36.55016,431.84,464.29
36.57019,433.17,463.41
36.58995,431.18,462.23
36.60850,432.70,464.61
36.63031,430.70,461.25
36.65059,431.04,462.43
36.67032,432.30,462.04
36.68967,435.74,459.40
36.70971,434.91,460.00
36.72995,435.96,461.96
36.75059,436.11,460.59
36.77026,435.18,460.61
36.79157,435.67,462.34
36.81091,438.50,463.55
36.83081,438.94,461.77
36.85100,435.24,464.13
36.86965,436.90,461.77
36.88986,435.59,462.17
36.90984,434.84,463.23
36.93130,435.09,462.23
36.95093,434.07,462.39
36.97007,436.53,462.14
36.99157,437.64,463.17
37.01112,434.78,465.27
37.03013,438.09,463.75
37.05185,437.95,463.85
37.07188,435.62,464.48
37.09130,438.61,465.26
37.11211,436.69,464.58
37.13164,436.81,463.70
37.15252,437.80,463.47
37.17244,438.53,465.46
37.19213,440.33,463.71
37.21065,441.00,465.69
37.23200,438.97,463.56
37.25163,438.56,465.04
37.27076,440.52,465.04
37.29071,440.56,462.54
37.31237,442.19,462.93
37.33204,442.52,463.27
37.35212,443.44,463.73
37.37219,442.72,463.13
37.39208,440.15,465.34
37.41133,439.10,463.83
37.43152,440.37,465.43
37.45190,442.57,463.68
37.47068,442.47,461.38
37.49113,442.60,459.92
37.51103,440.87,460.64
37.53178,439.24,467.87
37.55248,441.94,482.53
37.57141,437.83,501.36
37.59224,438.08,520.26
37.61091,436.65,534.93
37.63204,434.57,543.86
37.65141,430.81,549.25
37.67081,430.78,550.02
37.69126,433.73,545.69
37.71101,433.41,540.99
37.73116,434.63,537.27
37.75110,438.36,532.55
37.77109,438.64,530.20
37.79246,443.51,524.47
37.81218,443.43,522.07
37.83078,444.90,518.27
37.85207,449.01,514.29
37.87180,446.67,509.43
37.89043,448.12,508.27
37.91233,453.11,506.43
37.93197,454.08,506.97
37.95191,453.73,501.26
37.97206,452.10,500.57
37.99206,452.35,500.23
38.01188,450.88,492.69
38.03076,448.33,488.46
38.05114,451.13,485.84
38.07204,446.89,486.90
38.09258,448.02,480.82
38.11133,446.87,479.40
38.13197,448.35,477.56
38.15155,447.30,478.34
38.17290,444.88,475.08
38.19263,443.52,483.55
38.21214,446.26,492.32
38.23201,448.52,497.09
38.25276,444.75,486.03
38.27259,442.80,460.77
38.29145,437.99,428.19
38.31276,440.25,395.23
38.33288,437.83,372.27
38.35209,436.59,356.65
38.37237,436.66,347.75
38.39187,437.75,346.79
38.41173,435.43,349.05
38.43356,434.92,355.16
38.45226,434.88,359.71
38.47206,436.73,368.00
38.49248,438.04,375.50
38.51274,437.20,383.12
38.53308,437.66,392.91
38.55297,439.97,398.08
38.57204,439.17,406.83
38.59282,438.84,413.72
38.61174,441.82,424.57
38.63188,438.97,427.93
38.65206,441.79,435.30
38.67340,441.49,438.36
38.69362,441.25,441.37
38.71278,442.91,447.38
38.73250,441.80,449.35
38.75286,441.29,451.63
38.77233,443.30,453.47
38.79161,442.29,454.20
38.81321,442.10,459.60
38.83167,445.43,460.79
38.85301,443.32,463.63
38.87294,445.42,461.44
38.89295,443.54,463.74
38.91200,446.08,463.91
38.93353,445.78,466.15
38.95175,446.91,466.36
38.97249,445.62,465.08
38.99189,442.76,467.53
39.01285,442.96,466.43
39.03202,443.69,468.90
39.05183,444.72,466.09
39.07304,443.65,467.01
39.09277,441.93,467.59
39.11208,442.10,464.90
39.13271,443.40,466.38
39.15156,441.71,465.06
39.17266,442.94,466.84
39.19275,440.38,464.75
39.21216,443.07,469.63
39.23284,442.38,466.28
39.25345,440.87,470.49
39.27261,441.71,468.86
39.29144,441.58,466.47
39.31427,439.75,467.17
39.33429,439.81,470.44
39.35364,439.92,469.29
39.37438,442.14,467.73
39.39253,442.58,468.69
39.41445,438.57,469.23
39.43395,442.97,468.95
39.45445,441.25,466.36
39.47457,439.76,466.52
39.49378,439.32,469.51
39.51504,440.26,464.79
39.53512,437.34,468.67
39.55538,440.37,468.09
39.57363,440.42,466.81
39.59504,441.20,466.77
39.61454,439.49,467.80
39.63540,439.41,465.39
39.65517,441.19,467.84
39.67389,440.14,465.32
39.69563,439.62,467.27
39.71535,441.10,464.38
39.73540,441.07,463.20
39.75610,440.55,465.59
39.77483,438.50,463.31
39.79524,438.06,463.74
39.81610,439.35,464.26
39.83569,437.65,466.67
39.85515,439.58,466.00
39.87602,439.38,463.86
39.89636,438.24,466.15
39.91658,436.72,463.88
39.93496,437.46,466.73
39.95554,439.25,463.78
39.97499,436.55,463.77
39.99575,436.20,466.01
40.01641,436.19,463.72
40.03477,437.20,464.72
40.05477,435.87,465.45
40.07569,437.26,466.39
40.09498,440.20,468.15
40.11602,437.93,468.00
40.13506,437.42,467.22
40.15457,437.29,465.42
40.17522,435.81,467.92
40.19448,437.12,468.96
40.21483,437.95,468.10
40.23538,436.92,467.81
40.25496,438.09,468.18
40.27444,439.99,469.33
40.29537,439.64,469.12
40.31476,439.28,468.08
40.33637,436.73,467.31
40.35494,437.41,470.55
40.37645,441.45,469.51
40.39478,437.89,469.02
40.41620,440.52,466.95
40.43576,437.89,465.87
40.45542,437.05,464.26
40.47569,436.69,465.42
40.49443,436.02,465.16
40.51485,436.00,466.09
40.53473,437.24,466.48
40.55648,437.41,462.73
40.57560,434.90,463.91
40.59523,436.26,464.77
40.61648,437.88,463.77
40.63583,437.17,462.48
40.65528,437.63,461.59
40.67593,434.39,462.31
40.69478,434.40,463.10
40.71477,436.22,463.45
40.73505,435.49,465.68
40.75639,436.51,464.83
40.77438,433.85,464.57
40.79657,435.02,464.15
40.81632,433.72,463.07
40.83547,435.01,461.93
40.85600,433.13,463.77
40.87626,435.93,461.55
40.89492,431.89,465.45
40.91659,433.26,463.00
40.93690,432.15,464.60
40.95578,432.46,464.49
40.97729,432.12,466.24
40.99793,432.37,466.07
41.01806,428.16,466.75
41.03674,430.75,468.31
41.05781,430.75,465.81
41.07829,428.87,466.47
41.09834,429.45,466.89
41.11735,428.46,468.82
41.13739,426.65,465.96
41.15807,426.36,465.06
41.17667,425.34,467.51
41.19739,426.21,464.19
41.21758,428.25,465.13
41.23859,427.67,466.84
41.25707,429.25,465.45
41.27713,427.25,464.50
41.29736,427.28,467.29
41.31806,428.25,465.29
41.33695,428.70,465.24
41.35793,427.52,468.54
41.37722,426.15,467.02
41.39671,426.21,466.16
41.41781,424.93,467.52
41.43777,426.39,463.62
41.45712,425.92,465.79
41.47834,429.10,463.82
41.49796,428.90,466.47
41.51680,428.46,465.50
41.53673,430.02,465.19
41.55727,428.68,465.45
41.57832,428.96,469.17
41.59693,425.70,466.61
41.61756,425.54,466.64
41.63820,425.07,465.07
41.65845,428.05,463.07
41.67805,427.40,462.91
41.69891,423.74,461.77
41.71749,423.05,461.83
41.73877,423.00,469.49
41.75945,426.83,486.74
41.78160,427.62,503.99
41.79989,428.69,526.64
41.82086,429.16,548.07
41.83973,430.64,557.02
41.86024,426.97,561.97
41.88008,426.21,562.14
41.90133,422.96,559.32
41.92080,423.20,551.39
41.94134,425.58,543.11
41.95964,425.99,535.72
41.98015,426.19,528.70
42.00037,429.28,520.00
42.01965,428.93,514.87
42.04146,429.88,511.63
42.05964,428.90,507.66
42.08096,430.92,505.69
42.10198,431.95,503.84
42.12157,430.80,501.44
42.14103,430.29,497.81
42.16155,428.83,498.77
42.18134,427.89,495.41
42.20190,429.30,493.81
42.22207,426.66,488.88
42.24132,428.04,485.49
42.26145,427.55,482.72
42.28158,427.40,478.44
42.30127,428.39,475.77
42.32228,424.96,473.55
42.34177,428.15,474.51
42.36256,424.20,471.65
42.38230,423.73,463.93
42.40208,419.83,442.02
42.42120,417.81,413.45
42.44129,417.00,386.26
42.46047,415.03,367.47
42.48222,417.28,355.69
42.50067,416.48,353.44
42.52062,419.85,356.05
42.54133,421.41,359.43
42.56086,421.49,368.18
42.58149,419.48,375.55
42.60039,420.07,384.74
42.62151,420.91,395.27
42.64201,420.64,401.87
42.66087,423.31,407.47
42.68226,424.87,414.49
42.70117,422.78,422.18
42.72182,423.18,427.40
42.74134,421.02,433.80
42.76061,425.20,435.76
42.78231,424.53,440.46
42.80052,424.67,443.16
42.82164,425.15,447.08
42.84149,427.71,446.58
42.86161,426.29,450.58
42.88194,429.04,455.13
42.90203,428.00,451.76
42.92074,426.35,454.28
42.94126,428.40,455.48
42.96080,424.12,456.94
42.98146,425.82,458.95
43.00075,426.08,458.16
43.02215,425.16,458.50
43.04206,427.93,460.45
43.06229,426.33,460.67
43.08067,427.72,458.82
43.10152,427.36,459.95
43.12115,430.24,462.13
43.14162,427.75,458.89
43.16071,429.79,459.77
43.18053,430.29,455.76
43.20125,429.52,456.00
43.22220,431.05,456.73
43.24092,428.40,456.78
43.26096,427.38,458.66
43.28210,431.27,457.24
43.30060,430.72,461.61
43.32080,429.11,461.61
43.34093,427.77,461.65
43.36165,429.63,458.14
43.38193,430.25,460.32
43.40279,430.20,460.99
43.42294,431.06,463.29
43.44294,429.94,461.91
43.46174,430.86,461.20
43.48231,430.95,463.47
43.50218,429.99,461.44
43.52188,432.75,460.41
43.54289,430.16,461.47
43.56313,433.69,462.98
43.58424,431.15,460.00
43.60287,432.54,463.11
43.62261,435.08,463.37
43.64322,436.77,460.50
43.66385,434.59,464.24
43.68438,436.50,462.45
43.70299,435.79,460.39
43.72409,435.53,459.97
43.74285,433.34,462.58
43.76291,435.86,458.91
43.78344,434.85,461.00
43.80346,434.96,459.16
43.82315,436.91,459.28
43.84368,437.60,460.48
43.86349,434.72,462.62
43.88343,436.19,464.89
43.90416,437.83,462.65
43.92347,436.68,463.69
43.94288,435.01,467.29
43.96288,436.47,470.83
43.98336,438.95,480.40
44.00442,443.96,492.44
44.02310,444.60,502.22
44.04282,445.64,504.94
44.06443,443.14,508.50
44.08289,443.98,503.44
44.10351,443.23,494.90
44.12433,440.98,483.36
44.14539,439.25,466.21
44.16352,437.64,452.53
44.18407,436.40,438.50
44.20436,432.21,427.51
44.22463,429.26,418.85
44.24420,431.05,417.90
44.26490,430.45,422.24
44.28357,432.25,444.69
44.30384,433.56,473.60
44.32477,439.56,498.47
44.34340,439.58,515.10
44.36430,437.02,515.22
44.38403,431.40,504.15
44.40363,427.73,493.22
44.42358,423.97,474.08
44.44429,419.80,461.34
44.46349,419.08,445.86
44.48480,422.58,436.24
44.50411,421.64,433.99
44.52510,420.25,428.62
44.54360,424.62,430.71
44.56392,427.19,441.51
44.58370,426.89,459.59
44.60498,431.08,482.95
44.62516,434.78,503.56
44.64435,435.07,514.45
44.66369,439.06,522.87
44.68382,444.60,528.12
44.70404,447.88,534.84
44.72517,453.45,537.58
44.74339,458.18,540.41
44.76503,462.32,535.12
44.78527,466.79,529.82
44.80408,464.53,523.27
44.82375,461.42,511.15
44.84511,462.20,487.70
44.86365,453.54,458.47
44.88344,447.13,428.04
44.90526,438.81,398.34
44.92467,430.23,369.63
44.94362,419.40,352.37
44.96459,418.25,335.18
44.98461,412.96,329.76
45.00408,414.49,332.06
45.02508,414.88,336.73
45.04425,416.13,345.74
45.06378,419.35,359.49
45.08502,421.79,369.83
45.10488,423.96,382.39
45.12497,427.09,391.99
45.14397,430.23,403.57
45.16491,433.50,414.31
45.18405,439.03,431.08
45.20479,444.41,446.40
45.22379,455.69,476.54
45.24350,472.73,503.69
45.26388,493.48,528.73
45.28450,513.46,548.29
45.30508,528.81,554.68
45.32538,533.65,555.96
45.34345,536.91,552.94
45.36463,531.13,548.19
45.38388,528.15,543.80
45.40486,518.04,540.11
45.42391,508.62,539.78
45.44537,500.39,530.64
45.46386,487.68,514.61
45.48414,468.69,490.01
45.50461,453.70,466.80
45.52483,440.47,445.26
45.54403,434.26,427.78
45.56372,427.98,417.78
45.58452,424.70,412.12
45.60378,421.29,407.94
45.62404,419.76,408.81
45.64440,418.28,410.55
45.66448,419.16,412.09
45.68488,421.82,413.19
45.70448,419.93,421.01
45.72464,423.44,422.89
45.74351,429.33,424.01
45.76421,434.51,429.23
45.78406,436.31,431.24
45.80498,438.28,431.23
45.82415,440.25,434.71
45.84328,443.42,439.71
45.86465,444.99,443.36
45.88442,446.46,444.51
45.90346,448.91,443.28
45.92543,450.80,444.11
45.94366,450.14,442.46
45.96442,451.65,441.31
45.98436,450.12,442.31
46.00361,447.92,440.96
46.02427,448.69,441.66
46.04504,446.71,446.03
46.06434,447.70,450.04
46.08433,448.77,457.57
46.10508,441.42,453.37
46.12425,442.67,452.81
