Program Time [s],data 0,data 1
17.48974,483.66,529.45
17.51072,480.88,529.89
17.53073,484.39,531.67
17.54889,483.88,534.89
17.57069,481.36,532.86
17.58896,481.45,535.32
17.60888,479.46,536.71
17.62973,481.60,539.85
17.65037,480.19,538.56
17.66962,480.22,536.51
17.68994,482.93,539.63
17.71041,482.83,539.09
17.73039,481.90,536.30
17.75052,480.19,539.66
17.76897,480.89,536.19
17.78940,480.15,537.34
17.81075,484.14,538.01
17.83006,483.02,537.76
17.85339,482.70,535.56
17.86948,482.96,537.94
17.88907,484.92,536.51
17.91072,483.09,537.37
17.93023,481.76,537.80
17.94893,480.49,538.71
17.97011,480.52,539.32
17.98960,481.51,540.26
18.00949,478.86,538.55
18.02947,482.36,538.83
18.05058,479.67,537.70
18.06993,479.05,541.46
18.09052,480.35,556.56
18.11013,484.27,586.79
18.13002,485.74,614.92
18.15053,488.89,634.81
18.16930,491.23,647.73
18.19012,489.06,653.27
18.20908,491.94,653.45
18.22969,486.85,639.73
18.25021,486.65,627.84
18.26994,485.60,613.19
18.28937,484.28,600.92
18.30940,485.23,590.57
18.32971,485.29,582.84
18.34971,484.65,575.85
18.37023,481.42,571.04
18.38920,484.10,567.06
18.40951,481.85,562.34
18.42930,483.88,558.31
18.45074,482.15,553.05
18.47001,484.51,549.74
18.48968,481.81,544.75
18.51045,480.30,543.54
18.53062,483.87,543.29
18.54906,480.95,542.82
18.57057,483.91,542.12
18.58947,481.36,541.09
18.61063,480.81,540.21
18.63015,482.33,536.65
18.65010,482.93,536.63
18.67042,479.23,535.02
18.69023,480.50,537.84
18.71025,482.30,534.94
18.72907,480.04,536.78
18.75019,482.37,535.62
18.77062,482.50,535.66
18.78952,484.29,539.32
18.80939,481.95,535.96
18.83058,483.63,534.91
18.84921,481.24,533.53
18.87065,480.63,536.42
18.89035,482.19,534.75
18.91016,481.82,534.53
18.92901,482.36,534.13
18.94921,482.28,536.92
18.97045,484.81,536.47
18.99073,481.50,535.57
19.01010,482.08,535.61
19.02999,484.94,536.27
19.04998,488.32,536.79
19.07003,487.51,535.59
19.09162,486.24,536.08
19.10979,486.05,536.20
19.13150,488.71,536.90
19.15042,487.48,539.02
19.17083,487.57,538.09
19.19041,488.17,536.53
19.21028,489.34,531.46
19.23173,492.56,516.19
19.24970,491.90,490.95
19.27103,487.04,466.59
19.29171,486.92,449.05
19.31093,485.47,439.39
19.33142,484.34,436.65
19.34965,483.81,439.05
19.37059,483.81,444.67
19.39074,484.31,450.86
19.41081,484.76,457.91
19.43147,485.44,464.97
19.44972,485.74,474.77
19.47174,487.37,478.91
19.49009,489.57,485.88
19.51159,488.86,494.38
19.53145,487.04,496.55
19.55102,487.03,502.36
19.57135,486.37,504.69
19.59151,486.30,510.68
19.61005,487.69,512.69
19.63020,486.18,517.98
19.65254,486.63,518.79
19.67121,487.29,524.85
19.69160,488.77,527.25
19.71200,489.79,524.72
19.73157,486.98,531.15
19.75250,488.33,529.52
19.77148,485.49,533.35
19.79097,488.55,531.79
19.81268,489.35,534.75
19.83271,491.29,535.43
19.85199,489.18,535.55
19.87222,491.67,537.72
19.89157,492.17,538.55
19.91207,493.26,535.10
19.93256,491.22,539.26
19.95289,491.40,537.41
19.97103,495.23,537.75
19.99246,494.64,538.73
20.01207,495.55,539.36
20.03219,496.70,540.21
20.05221,497.22,538.62
20.07156,496.56,541.73
20.09106,492.69,539.41
20.11133,495.61,538.38
20.13174,496.11,540.04
20.15091,494.37,539.24
20.17224,494.91,538.44
20.19221,492.91,538.62
20.21189,494.32,541.22
20.23277,493.74,538.40
20.25243,494.34,537.58
20.27177,493.17,536.24
20.29241,493.50,535.91
20.31146,493.74,537.80
20.33122,492.49,536.24
20.35232,490.12,537.87
20.37098,491.92,536.18
20.39128,491.96,537.67
20.41186,491.51,539.68
20.43085,492.88,538.80
20.45271,491.79,539.72
20.47181,493.39,537.28
20.49208,491.73,539.57
20.51176,492.91,541.17
20.53114,492.75,538.82
20.55199,493.53,542.03
20.57211,489.97,540.07
20.59198,491.89,542.12
20.61085,491.49,542.74
20.63223,492.74,539.85
20.65250,493.04,540.85
20.67255,492.33,541.73
20.69185,495.77,540.79
20.71279,493.61,537.55
20.73243,494.42,538.32
20.75154,496.67,542.75
20.77146,494.55,541.10
20.79167,494.49,541.02
20.81209,496.51,542.38
20.83267,498.73,542.99
20.85140,497.37,541.76
20.87096,496.53,540.44
20.89083,497.09,540.55
20.91169,495.37,541.22
20.93158,495.37,539.62
20.95228,494.61,539.09
20.97157,494.91,539.49
20.99219,493.97,542.17
21.01226,493.48,539.91
21.03093,492.05,540.97
21.05090,492.73,542.72
21.07106,494.05,542.01
21.09119,494.46,540.98
21.11083,492.92,541.82
21.13221,493.89,539.87
21.15110,491.97,539.43
21.17164,492.75,538.89
21.19111,495.08,541.08
21.21168,493.26,540.58
21.23224,496.34,538.04
21.25155,495.74,539.82
21.27226,495.89,537.15
21.29170,492.66,537.16
21.31252,497.51,536.37
21.33270,495.58,539.64
21.35145,499.00,539.69
21.37147,499.73,541.19
21.39170,499.91,540.60
21.41116,499.73,543.69
21.43098,499.54,543.80
21.45090,499.21,543.67
21.47157,495.86,545.02
21.49263,498.03,548.48
21.51138,495.54,545.42
21.53159,496.91,545.44
21.55230,497.23,543.35
21.57217,498.42,543.02
21.59110,496.18,542.83
21.61124,495.18,544.78
21.63064,494.15,542.53
21.65099,495.29,541.24
21.67273,497.59,540.11
21.69259,494.05,539.71
21.71180,496.63,540.37
21.73154,497.04,540.15
21.75199,495.53,542.82
21.77220,497.32,541.47
21.79099,498.82,540.32
21.81220,496.47,540.07
21.83130,496.12,539.77
21.85188,496.64,541.52
21.87275,497.49,543.09
21.89111,495.32,540.91
21.91138,496.18,543.05
21.93169,496.16,543.23
21.95350,495.95,541.13
21.97297,496.12,542.82
21.99262,499.28,541.82
22.01286,497.19,540.36
22.03303,499.46,538.77
22.05223,500.69,543.59
22.07222,500.88,551.60
22.09273,502.36,569.59
22.11283,503.27,582.28
22.13256,501.06,591.99
22.15360,502.32,598.19
22.17329,500.65,603.83
22.19455,501.04,602.76
22.21477,499.88,601.38
22.23475,497.31,602.27
22.25537,498.02,596.02
22.27470,498.52,589.09
22.29462,497.30,583.62
22.31375,497.29,582.84
22.33415,496.96,574.36
22.35487,499.69,571.22
22.37567,498.81,568.16
22.39433,499.30,562.95
22.41458,495.77,559.77
22.43444,495.63,559.27
22.45385,497.51,555.14
22.47490,496.34,550.55
22.49377,496.56,552.42
22.51453,494.26,546.15
22.53421,492.72,546.66
22.55554,495.65,550.89
22.57388,495.97,549.00
22.59383,496.17,546.45
22.61376,493.79,549.72
22.63454,497.18,549.81
22.65424,498.41,547.81
22.67436,496.61,547.88
22.69366,496.13,546.18
22.71395,495.20,546.22
22.73401,494.56,548.65
22.75402,497.70,546.65
22.77464,495.23,544.11
22.79465,495.52,547.42
22.81422,496.34,546.06
22.83390,493.80,543.03
22.85465,493.75,543.96
22.87366,496.76,541.79
22.89531,495.08,545.21
22.91530,493.96,544.54
22.93558,494.85,545.92
22.95557,495.89,546.21
22.97437,494.65,547.36
22.99390,494.54,529.77
23.01528,494.39,504.20
23.03537,494.81,475.32
23.05564,492.59,449.26
23.07459,488.58,437.08
23.09517,490.63,429.20
23.11487,487.61,433.16
23.13356,487.97,434.16
23.15466,488.55,441.41
23.17452,488.21,450.29
23.19368,489.03,456.65
23.21458,490.25,464.57
23.23514,488.69,472.56
23.25380,491.37,478.98
23.27427,492.28,489.49
23.29395,490.33,496.56
23.31413,491.23,504.69
23.33519,492.54,509.15
23.35475,494.41,515.12
23.37565,495.67,520.09
23.39511,495.48,524.50
23.41417,494.55,527.01
23.43561,492.70,530.91
23.45461,491.67,531.36
23.47377,491.31,533.85
23.49430,493.47,533.86
23.51557,491.69,533.96
23.53503,491.70,533.13
23.55539,491.99,535.74
23.57415,492.81,535.20
23.59489,491.52,537.75
23.61423,491.46,537.21
23.63382,490.03,534.65
23.65534,488.36,537.20
23.67418,489.38,538.12
23.69478,488.16,539.67
23.71386,490.76,539.63
23.73502,490.85,540.50
23.75380,487.66,543.56
23.77561,489.35,543.03
23.79489,487.63,543.13
23.81490,490.61,542.44
23.83511,491.68,542.97
23.85489,488.67,542.39
23.87371,489.57,542.77
23.89456,488.73,541.29
23.91506,489.92,539.34
23.93426,492.34,541.36
23.95422,489.26,540.62
23.97529,490.52,537.46
23.99394,490.46,536.10
24.01447,488.78,538.27
24.03417,488.80,539.08
24.05513,489.10,539.86
24.07483,487.90,538.19
24.09434,488.90,538.48
24.11561,490.67,537.91
24.13476,492.58,541.50
24.15474,493.90,541.45
24.17438,497.02,541.97
24.19481,498.29,540.64
24.21552,499.55,542.03
24.23576,497.87,540.64
24.25492,498.67,541.25
24.27463,499.04,539.47
24.29519,496.32,540.05
24.31575,495.94,541.63
24.33697,494.89,539.71
24.35717,494.95,539.15
24.37951,492.93,540.02
24.39873,489.27,539.97
24.41887,490.33,538.51
24.43838,485.91,540.79
24.45865,485.08,538.38
24.48062,483.58,539.80
24.49999,483.69,539.10
24.51902,481.51,536.97
24.53914,481.32,536.93
24.56030,479.08,533.49
24.58019,481.22,534.26
24.59986,478.59,533.87
24.61990,480.52,535.08
24.64059,478.56,534.93
24.66036,478.57,536.11
24.67991,480.32,535.85
24.70156,477.92,536.16
24.72050,478.04,535.38
24.74052,480.41,538.14
24.76049,479.50,536.02
24.78080,479.94,537.61
24.80032,479.50,537.19
24.82048,475.92,535.41
24.84097,478.31,534.67
24.86038,478.11,536.28
24.88164,478.32,533.69
24.90004,477.99,534.75
24.92000,475.90,534.52
24.94148,476.98,534.65
24.96141,477.97,533.39
24.98135,476.51,532.86
24.99981,477.77,535.30
25.02164,477.85,535.95
25.04034,477.12,534.70
25.06151,478.13,535.85
25.08097,477.93,535.07
25.09987,478.21,533.59
25.12047,477.60,536.33
25.14119,479.85,537.23
25.15975,478.56,533.78
25.18090,479.23,534.33
25.20046,479.84,535.05
25.21979,477.59,535.74
25.24169,480.77,533.73
25.25955,478.18,534.69
25.27998,478.69,536.00
25.29979,480.87,536.89
25.31980,480.30,535.56
25.34046,482.23,537.02
25.36056,483.58,538.33
25.38103,483.26,535.97
25.39998,483.44,536.91
25.42189,481.82,536.40
25.43999,480.85,537.27
25.46073,478.79,536.76
25.48155,483.06,536.79
25.49965,479.29,536.87
25.52113,480.85,535.58
25.54155,479.87,538.66
25.56159,483.13,537.68
25.58076,480.29,537.03
25.59991,481.11,535.68
25.61995,482.94,534.44
25.63957,481.38,537.41
25.66127,481.04,536.53
25.68089,476.65,534.17
25.69951,478.17,534.62
25.71977,479.06,536.57
25.73986,479.18,533.71
25.76079,479.53,533.21
25.78045,476.30,531.26
25.80039,480.07,533.96
25.82160,478.69,533.75
25.84076,480.00,532.09
25.86115,480.52,529.86
25.88113,481.90,531.13
25.90101,482.61,544.79
25.92105,480.30,563.37
25.93991,481.61,595.09
25.96076,483.56,621.02
25.98129,484.23,641.69
26.00109,481.22,652.41
26.02145,482.39,650.45
26.03994,481.87,643.69
26.05991,481.09,633.78
26.08118,481.47,622.00
26.10160,476.63,612.89
26.12216,479.76,602.52
26.14096,478.59,594.85
26.16070,481.17,583.07
26.18214,478.21,576.12
26.20233,478.23,572.08
26.22098,481.11,569.03
26.24198,481.12,561.57
26.26149,480.21,561.84
26.28129,481.48,557.79
26.30220,483.52,554.77
26.32145,482.58,552.12
26.34153,484.14,550.70
26.36063,483.57,550.59
26.38127,484.08,549.37
26.40110,484.95,549.36
26.42204,483.96,544.35
26.44093,485.55,544.21
26.46095,483.73,543.78
26.48075,485.56,541.86
26.50136,485.86,544.16
26.52228,483.11,544.06
26.54098,481.62,541.64
26.56208,484.66,541.31
26.58095,483.64,541.31
26.60063,483.15,538.82
26.62157,483.95,538.71
26.64222,481.99,539.30
26.66093,484.31,539.20
26.68115,484.73,537.69
26.70191,482.86,537.48
26.72150,483.35,537.86
26.74147,485.37,539.48
26.76138,484.61,541.11
26.78265,486.20,539.42
26.80067,483.28,538.37
26.82078,482.64,536.44
26.84182,482.96,538.02
26.86167,485.05,537.41
26.88156,481.76,538.09
26.90194,484.87,538.01
26.92089,481.88,543.18
26.94119,480.87,537.33
26.96118,485.57,529.48
26.98075,482.70,504.64
27.00111,482.08,473.28
27.02217,481.06,447.42
27.04164,479.58,431.62
27.06194,474.72,427.07
27.08232,477.77,426.09
27.10073,475.89,427.62
27.12156,477.46,433.75
27.14265,478.29,442.27
27.16191,480.57,450.05
27.18258,484.09,463.94
27.20137,485.12,474.19
27.22171,491.31,484.04
27.24116,489.93,494.52
27.26216,490.17,500.31
27.28087,492.51,506.94
27.30185,489.61,510.96
27.32140,489.79,516.35
27.34189,490.54,520.07
27.36112,489.75,523.86
27.38215,490.71,526.41
27.40231,488.27,527.25
27.42114,487.98,531.41
27.44369,488.44,533.00
27.46236,488.76,530.78
27.48120,488.00,531.93
27.50092,490.97,533.88
27.52070,489.46,533.19
27.54128,488.64,534.45
27.56188,490.00,535.60
27.58195,489.07,534.83
27.60264,492.04,531.94
27.62161,488.97,534.77
27.64313,488.71,533.18
27.66307,491.46,532.55
27.68260,492.17,532.90
27.70331,488.83,533.64
27.72239,491.50,533.37
27.74333,491.89,534.48
27.76309,488.85,537.01
27.78373,489.54,536.22
27.80243,489.17,536.44
27.82299,491.04,535.33
27.84239,489.78,537.11
27.86188,489.25,537.61
27.88256,491.77,536.80
27.90238,490.73,538.20
27.92236,492.15,537.25
27.94197,491.23,536.02
27.96172,492.76,539.32
27.98309,489.88,540.10
28.00197,491.10,541.00
28.02288,491.68,539.49
28.04208,491.83,541.69
28.06223,492.44,542.23
28.08227,495.44,538.44
28.10233,491.30,536.80
28.12213,490.97,537.97
28.14203,491.63,540.22
28.16235,492.95,538.64
28.18237,493.48,537.50
28.20166,494.04,536.31
28.22189,494.56,537.02
28.24246,495.46,536.62
28.26188,495.73,538.24
28.28223,492.19,537.91
28.30164,492.83,537.33
28.32222,494.14,539.88
28.34336,493.52,540.70
28.36279,493.51,539.08
28.38251,494.52,538.66
28.40253,495.00,541.38
28.42151,496.48,540.92
28.44188,497.87,540.97
28.46264,496.15,540.04
28.48324,494.13,540.28
28.50194,496.00,538.81
28.52226,494.15,539.99
28.54254,494.65,538.66
28.56319,495.48,541.56
28.58336,494.95,538.26
28.60223,493.23,537.89
28.62169,494.22,538.57
28.64230,495.97,538.18
28.66211,491.82,535.05
28.68265,495.94,536.57
28.70300,496.45,536.40
28.72340,493.62,534.67
28.74329,494.21,537.71
28.76341,492.89,535.61
28.78292,495.16,536.02
28.80349,491.84,537.37
28.82279,494.27,536.63
28.84249,495.17,536.57
28.86355,493.47,536.68
28.88197,493.29,540.65
28.90201,494.62,539.60
28.92222,494.01,538.32
28.94278,494.55,539.07
28.96321,495.71,541.43
28.98277,492.16,540.42
29.00239,495.09,539.73
29.02231,495.31,540.41
29.04229,494.89,539.17
29.06364,496.92,542.25
29.08280,496.63,538.25
29.10231,496.42,539.97
29.12212,495.06,540.10
29.14251,497.32,541.18
29.16183,496.03,540.81
29.18270,494.52,542.18
29.20272,494.69,542.03
29.22289,492.72,541.33
29.24263,495.34,537.36
29.26251,495.83,539.45
29.28326,494.73,537.71
29.30330,496.33,538.87
29.32236,498.62,537.93
29.34287,497.15,539.80
29.36254,497.86,538.65
29.38288,498.48,541.97
29.40286,498.48,541.75
29.42241,497.44,539.79
29.44270,496.11,540.54
29.46367,497.21,539.72
29.48388,498.34,542.28
29.50371,497.37,539.71
29.52452,496.63,540.97
29.54606,497.73,541.94
29.56634,496.63,541.66
29.58458,497.01,544.42
29.60516,498.61,542.82
29.62560,497.36,542.14
29.64660,498.45,542.77
29.66662,500.08,545.34
29.68487,498.73,543.36
29.70621,498.53,546.21
29.72575,498.82,546.75
29.74578,497.59,543.95
29.76637,498.31,547.02
29.78623,499.48,546.07
29.80621,498.30,547.25
29.82559,497.89,545.06
29.84616,496.51,544.22
29.86639,498.74,541.70
29.88453,497.92,545.29
29.90494,497.00,543.70
29.92571,499.90,545.34
29.94633,496.68,546.23
29.96621,496.40,542.33
29.98467,496.17,542.84
30.00434,497.95,545.01
30.02572,496.23,544.41
30.04464,496.27,546.53
30.06531,498.82,543.93
30.08555,497.74,544.50
30.10532,495.96,544.53
30.12555,496.12,545.66
30.14500,495.47,544.07
30.16467,498.07,544.54
30.18544,495.52,551.21
30.20661,497.59,572.12
30.22627,499.49,602.71
30.24550,505.59,632.90
30.26492,504.93,661.79
30.28487,506.50,674.22
30.30601,501.89,674.29
30.32519,501.34,663.22
30.34535,497.60,654.45
30.36649,499.98,638.15
30.38515,497.54,629.23
30.40535,496.06,616.96
30.42506,497.48,605.42
30.44496,494.68,597.79
30.46618,494.04,590.67
30.48543,494.65,579.79
30.50604,493.58,575.06
30.52500,496.32,569.43
30.54475,496.16,566.12
30.56486,492.38,560.47
30.58575,493.17,559.92
30.60477,492.83,555.11
30.62461,492.91,553.80
30.64614,491.42,552.54
30.66602,495.38,551.20
30.68444,493.18,551.89
30.70459,496.51,550.83
30.72594,497.32,551.36
30.74547,497.13,552.57
30.76451,498.52,549.90
30.78579,500.14,551.76
30.80540,498.31,549.79
30.82500,496.36,551.83
30.84464,498.95,549.68
30.86593,497.65,549.16
30.88615,496.57,547.48
30.90522,494.30,545.88
30.92529,493.41,544.59
30.94537,495.92,546.24
30.96488,494.64,543.73
30.98496,495.37,543.28
31.00495,495.47,544.92
31.02490,494.78,547.30
31.04609,497.46,544.85
31.06629,494.15,545.65
31.08599,495.32,547.81
31.10595,495.95,546.95
31.12541,492.59,544.03
31.14636,496.32,540.36
31.16591,499.19,525.11
31.18546,503.99,496.71
31.20604,504.55,474.59
31.22564,504.07,452.50
31.24636,499.19,434.38
31.26484,495.46,433.37
31.28489,494.38,432.63
31.30540,494.53,434.33
31.32620,494.05,442.98
31.34625,492.00,449.22
31.36575,492.03,458.31
31.38612,493.49,466.12
31.40449,496.07,477.58
31.42504,494.92,484.91
31.44630,496.76,492.39
31.46457,496.74,497.39
31.48536,491.09,507.18
31.50538,493.94,511.38
31.52598,491.60,519.03
31.54587,496.60,523.10
31.56553,493.97,526.68
31.58468,492.74,527.45
31.60632,493.44,531.29
31.62511,492.64,537.23
31.64497,492.48,536.61
31.66461,495.23,539.67
31.68617,494.77,539.99
31.70495,491.71,540.09
31.72636,493.53,540.92
31.74648,492.32,542.04
31.76597,493.45,541.37
31.78572,495.72,542.71
31.80495,495.78,538.49
31.82506,492.04,539.41
31.84660,491.95,539.86
31.86576,490.40,540.58
31.88557,491.82,539.28
31.90642,493.23,538.92
31.92621,490.48,536.76
31.94649,493.58,538.61
31.96640,493.33,540.47
31.98605,490.29,538.95
32.00544,492.98,538.82
32.02592,493.64,540.10
32.04640,493.53,542.19
32.06570,492.55,542.16
32.08453,493.04,543.47
32.10489,492.97,540.89
32.12489,492.62,544.67
32.14470,495.25,544.06
32.16639,494.10,542.04
32.18626,493.29,542.45
32.20524,492.22,542.44
32.22569,491.80,545.24
32.24637,491.43,543.53
32.26650,492.21,542.79
32.28561,491.92,542.98
32.30537,491.66,544.97
32.32556,491.57,543.12
32.34620,489.30,544.04
32.36535,489.34,545.20
32.38479,490.83,545.67
32.40631,493.39,543.95
32.42443,493.45,544.94
32.44521,492.92,543.04
32.46470,491.73,542.25
32.48522,492.90,539.19
32.50515,489.88,538.92
32.52589,492.85,539.69
32.54537,492.75,539.02
32.56538,494.75,540.59
32.58499,495.84,542.80
32.60473,495.21,543.25
32.62540,492.36,541.37
32.64616,492.43,544.84
32.66532,494.68,541.45
32.68470,491.45,544.85
32.70661,490.07,542.57
32.72645,492.40,541.67
32.74531,491.05,543.98
32.76602,492.53,542.38
32.78608,489.72,545.82
32.80610,491.12,543.24
32.82478,491.53,545.51
32.84618,488.79,544.09
32.86469,489.93,545.80
32.88646,489.32,545.17
32.90603,487.30,542.91
32.92508,490.34,545.04
32.94561,489.59,544.46
32.96473,488.20,542.20
32.98647,488.91,543.46
33.00493,488.41,541.30
33.02589,486.96,544.36
33.04648,487.83,542.90
33.06482,484.69,542.73
33.08535,486.69,544.78
33.10634,488.09,542.38
33.12472,486.64,541.68
33.14551,486.57,543.88
33.16510,488.20,541.57
33.18593,490.04,544.33
33.20657,489.47,542.82
33.22605,488.96,543.04
33.24591,491.46,541.47
33.26560,493.29,543.79
33.28474,494.33,541.50
33.30554,493.67,539.69
33.32620,492.45,542.48
33.34473,491.13,543.23
33.36631,493.33,540.66
33.38555,492.45,540.93
33.40475,488.25,540.41
33.42607,488.85,541.50
33.44605,490.51,541.45
33.46549,487.48,541.05
33.48522,487.65,542.69
33.50459,486.25,541.50
33.52511,488.46,540.25
33.54590,485.65,542.08
33.56574,486.81,539.83
33.58626,486.19,541.88
33.60476,486.16,541.93
33.62579,487.58,541.83
33.64460,486.49,538.19
33.66570,487.79,541.46
33.68461,489.65,539.27
33.70578,487.14,541.82
33.72513,489.46,540.06
33.74567,488.44,540.59
33.76628,485.52,542.54
33.78621,484.96,539.37
33.80561,489.42,540.26
33.82487,488.80,541.98
33.84633,487.62,540.05
33.86561,490.20,541.02
33.88641,485.86,539.36
33.90453,485.58,539.77
33.92546,486.64,540.74
33.94576,485.12,542.35
33.96646,485.50,542.36
33.98641,488.03,543.33
34.00586,487.81,543.18
34.02499,485.28,544.03
34.04613,490.09,540.58
34.06490,487.76,539.70
34.08576,488.94,543.05
34.10548,489.32,539.97
34.12451,489.69,543.04
34.14454,487.98,541.04
34.16506,488.72,537.76
34.18488,485.31,537.89
34.20626,486.67,534.73
34.22557,485.86,544.48
34.24467,487.51,564.22
34.26451,487.32,595.02
34.28624,487.84,623.55
34.30530,487.72,648.72
34.32479,488.47,665.03
34.34451,487.90,668.08
34.36623,485.43,666.21
34.38615,483.31,657.06
34.40514,483.02,642.97
34.42553,484.83,630.34
34.44612,480.68,615.70
34.46430,481.42,603.40
34.48571,479.86,593.74
34.50619,482.93,584.19
34.52499,481.98,582.93
34.54500,479.65,576.25
34.56503,481.24,571.41
34.58511,483.66,567.23
34.60547,484.82,565.05
34.62529,486.63,559.75
34.64569,486.59,556.36
34.66591,484.32,554.58
34.68461,484.83,551.70
34.70563,484.00,549.60
34.72450,483.57,549.78
34.74535,484.23,550.82
34.76607,483.62,549.48
34.78685,482.10,545.05
34.80552,485.07,548.38
34.82729,483.04,547.67
34.84662,486.81,547.89
34.86709,484.08,544.78
34.88690,486.04,544.78
34.90577,484.51,545.37
34.92609,484.04,544.07
34.94671,483.90,546.43
34.96639,482.47,543.65
34.98679,482.83,543.04
35.00648,481.00,543.80
35.02654,482.45,541.14
35.04742,479.81,541.73
35.06674,480.95,542.27
35.08637,479.58,543.46
35.10704,481.14,544.60
35.12690,480.52,545.97
35.14719,481.72,547.44
35.16595,480.63,552.94
35.18604,482.14,548.94
35.20584,483.76,535.57
35.22542,481.66,510.28
35.24651,478.43,480.30
35.26581,478.93,455.55
35.28696,478.66,439.14
35.30631,475.26,432.51
35.32688,476.25,429.60
35.34558,473.86,434.32
35.36701,476.10,436.22
35.38721,474.06,441.86
35.40561,475.60,449.81
35.42641,477.92,460.04
35.44739,473.33,465.05
35.46559,475.90,471.11
35.48552,473.41,478.27
35.50618,473.31,483.33
35.52655,475.78,490.39
35.54586,476.46,492.47
35.56662,475.10,498.51
35.58592,474.62,502.04
35.60716,478.79,509.49
35.62598,478.11,513.37
35.64599,476.10,516.64
35.66632,479.62,520.37
35.68584,479.03,522.13
35.70594,480.66,528.46
35.72780,481.58,527.28
35.74701,482.42,529.91
35.76821,479.86,531.65
35.78789,482.05,531.10
35.80789,482.63,533.45
35.82787,481.27,534.82
35.84921,480.85,535.72
35.86835,483.79,536.47
35.88888,481.45,536.38
35.90909,481.24,537.10
35.92814,482.06,535.05
35.94834,481.43,536.85
35.96827,483.58,536.60
35.98927,479.86,534.92
36.00923,480.79,537.02
36.02829,479.46,534.81
36.04799,482.06,537.30
36.06784,481.44,536.40
36.08771,479.28,535.45
36.10853,478.55,535.73
36.12751,479.16,534.03
36.14985,479.22,536.80
36.16938,479.61,535.96
36.19005,478.65,539.38
36.20895,481.97,538.14
36.22897,481.66,537.18
36.24942,479.36,538.28
36.27023,480.80,539.45
36.29010,480.04,539.30
36.30992,481.79,537.57
36.32926,481.21,538.46
36.35024,482.50,537.20
36.36843,481.03,537.69
36.39139,481.12,535.63
36.40990,482.73,535.64
36.43067,480.02,534.26
36.45131,480.62,537.34
36.47182,481.87,536.91
36.49309,483.56,536.28
36.51181,483.33,535.47
36.53151,484.49,538.31
36.55297,487.57,538.42
36.57419,488.91,536.30
36.59471,487.82,538.95
36.61492,488.30,540.37
36.63354,490.54,541.57
36.65609,493.03,540.15
36.67635,495.48,540.28
36.69520,494.64,541.07
36.71545,496.11,540.76
36.73474,498.84,540.41
36.75473,497.97,540.11
36.77577,498.77,540.50
36.79494,499.31,539.38
36.81473,497.51,538.15
36.83633,499.94,539.74
36.85590,498.23,541.85
36.87534,496.85,541.73
36.89538,496.98,539.10
36.91503,500.21,542.68
36.93619,499.34,539.80
36.95489,500.02,541.22
36.97625,497.94,542.80
36.99499,497.20,541.70
37.01640,499.80,543.22
37.03471,497.38,544.37
37.05470,499.33,544.23
37.07448,500.02,543.87
37.09535,498.12,544.95
37.11633,497.55,544.15
37.13438,500.29,543.00
37.15521,498.04,543.67
37.17578,498.56,544.59
37.19504,497.08,543.47
37.21532,496.05,544.05
37.23446,494.49,543.77
37.25543,496.89,542.09
37.27624,497.10,542.34
37.29506,496.22,541.19
37.31474,495.42,543.50
37.33487,497.69,542.99
37.35556,499.93,542.39
37.37515,497.28,540.56
37.39443,497.26,541.18
37.41640,497.11,539.13
37.43488,499.25,537.69
37.45600,499.47,537.21
37.47578,498.98,537.06
37.49605,500.25,536.87
37.51543,497.45,536.18
37.53420,497.07,537.00
37.55492,497.19,536.40
37.57591,498.18,537.76
37.59485,497.12,536.96
37.61578,499.15,538.00
37.63532,498.12,537.29
37.65455,500.29,541.12
37.67450,502.38,538.26
37.69559,502.91,540.51
37.71534,500.07,539.36
37.73520,499.77,539.21
37.75534,499.22,539.23
37.77507,502.03,542.51
37.79613,500.23,541.15
37.81535,498.84,541.13
37.83663,500.29,544.22
37.85692,498.49,540.58
37.87622,496.31,543.04
37.89749,496.21,540.83
37.91588,497.58,542.93
37.93676,495.68,541.24
37.95723,496.41,542.94
37.97649,495.37,540.83
37.99642,493.55,544.17
38.01594,494.34,544.60
38.03689,497.32,540.33
38.05633,495.28,540.07
38.07631,496.87,542.77
38.09636,497.30,553.19
38.11642,496.13,574.96
38.13663,493.36,607.32
38.15674,497.95,631.77
38.17610,498.44,653.35
38.19705,498.46,661.75
38.21756,498.11,658.15
38.23825,496.60,655.86
38.25761,500.59,646.90
38.27675,496.87,638.68
38.29659,500.80,627.76
38.31835,499.17,615.48
38.33773,499.53,606.58
38.35802,498.65,599.06
38.37827,499.23,589.26
38.39846,495.81,585.72
38.41742,495.13,578.82
38.43755,495.76,573.37
38.45708,494.83,566.50
38.47767,494.49,563.07
38.49686,497.50,563.23
38.51676,495.90,559.08
38.53817,496.95,557.99
38.55820,497.03,554.43
38.57735,497.55,556.56
38.59805,498.80,554.90
38.61644,499.10,554.92
38.63805,495.72,553.73
38.65791,497.02,551.77
38.67778,496.01,550.18
38.69777,496.92,552.51
38.71753,495.22,549.11
38.73668,495.50,547.26
38.75688,497.38,549.03
38.77730,493.72,549.22
38.79771,492.96,547.38
38.81838,495.79,545.23
38.83779,495.70,545.71
38.85753,497.73,546.05
38.87818,497.40,543.91
38.89638,498.07,544.67
38.91688,494.87,544.84
38.93698,494.82,544.33
38.95728,495.80,546.14
38.97725,494.48,546.92
38.99773,494.99,537.38
39.01834,493.76,517.77
39.03745,495.58,486.92
39.05659,491.65,458.97
39.07741,489.90,437.32
39.09805,490.51,430.22
39.11833,490.42,427.83
39.13750,488.92,427.84
39.15835,487.81,433.36
39.17849,489.78,442.08
39.19754,488.80,449.48
39.21724,490.29,456.98
39.23882,489.57,468.69
39.25837,492.98,477.12
39.27864,494.21,484.31
39.29788,493.65,495.74
39.31761,492.94,499.68
39.33667,494.39,505.74
39.35779,491.78,513.48
39.37800,491.78,518.16
39.39807,491.69,521.28
39.41810,492.63,525.38
39.43759,491.22,525.94
39.45653,493.76,525.91
39.47681,493.29,530.13
39.49793,493.03,528.65
39.51790,493.26,531.49
39.53719,493.09,530.89
39.55678,493.10,534.31
39.57717,490.98,535.97
39.59801,493.00,538.44
39.61691,494.10,538.10
39.63725,491.35,538.21
39.65820,492.54,537.96
39.67763,494.32,539.57
39.69667,492.29,540.04
39.71677,493.44,539.59
39.73666,491.87,541.09
39.75808,491.90,536.45
39.77782,496.79,539.20
39.79731,492.83,539.08
39.81821,495.83,538.10
39.83759,493.71,539.16
39.85733,491.63,537.70
39.87642,490.69,541.79
39.89682,492.26,539.41
39.91642,489.84,540.94
39.93727,490.85,538.67
39.95691,490.47,541.80
39.97691,489.82,538.80
39.99678,488.30,539.41
40.01669,489.33,542.24
40.03881,488.14,539.17
40.05857,488.22,540.43
40.07726,488.74,541.40
40.09873,489.34,539.31
40.11841,487.98,538.68
40.13826,486.17,540.34
40.16067,484.03,540.16
40.17872,484.61,539.40
40.19905,485.26,541.11
40.21955,483.70,540.12
40.23966,484.54,538.05
40.26000,481.06,538.53
40.27968,482.41,540.76
40.30129,480.96,541.49
40.31996,483.88,540.23
40.33999,480.38,538.50
40.35971,483.15,540.28
40.38088,481.22,542.01
40.40007,482.72,539.93
40.42033,482.88,541.16
40.44122,482.87,542.05
40.45957,482.87,541.42
40.47977,482.27,539.49
40.49994,482.57,539.75
40.52084,480.22,541.01
40.54003,478.95,538.99
40.55983,478.83,539.92
40.57957,478.65,539.75
40.60124,480.07,537.92
40.62134,480.98,536.18
40.64112,480.41,537.15
40.66076,481.68,537.16
40.68064,478.82,539.57
40.69989,481.18,541.64
40.72110,480.54,539.39
40.74108,477.06,538.40
40.76118,479.54,539.57
40.77972,476.32,539.72
40.79998,479.61,540.39
40.81973,478.42,539.42
40.84045,481.60,541.08
40.86115,483.35,541.82
40.87984,482.35,539.22
40.90002,481.45,539.66
40.92184,482.40,537.73
40.94171,481.88,536.37
40.96180,482.69,538.03
40.98084,483.61,538.11
41.00164,480.32,537.93
41.02169,482.98,536.94
41.04143,480.70,537.54
41.06088,479.04,535.84
41.08171,478.48,536.68
41.10205,477.62,538.02
41.12057,479.49,538.32
41.14129,478.69,537.43
41.16304,476.37,536.12
41.18219,479.72,536.65
41.20329,476.79,535.60
41.22220,477.89,535.78
41.24172,480.99,537.28
41.26443,479.20,533.63
41.28233,480.42,533.27
41.30264,477.96,535.51
41.32291,478.75,535.62
41.34381,478.95,535.80
41.36299,478.31,536.65
41.38257,476.94,537.28
41.40298,478.61,533.82
41.42257,478.18,537.34
41.44347,477.26,534.37
41.46273,476.55,533.54
41.48300,477.24,535.57
41.50330,476.40,534.25
41.52375,480.21,535.07
41.54438,479.69,536.73
41.56380,481.07,534.43
41.58331,479.82,535.06
41.60260,480.45,536.68
41.62360,480.83,536.09
41.64421,483.07,536.52
41.66413,485.28,534.75
41.68373,481.25,534.11
41.70374,480.51,535.25
41.72410,483.20,537.43
41.74395,481.72,535.42
41.76268,479.36,535.41
41.78381,482.69,536.42
41.80537,480.92,534.78
41.82528,479.79,534.63
41.84388,480.48,536.95
41.86507,480.79,537.06
41.88451,481.32,535.26
41.90340,482.72,533.39
41.92371,483.24,533.74
41.94458,481.14,535.73
41.96421,481.40,535.07
41.98506,484.20,536.32
42.00384,483.21,537.51
42.02385,485.02,538.25
42.04361,485.27,538.11
42.06416,483.44,538.70
42.08521,483.56,539.60
42.10409,483.23,539.07
42.12427,484.77,537.25
42.14391,483.48,537.31
42.16469,484.31,538.02
42.18489,485.17,536.25
42.20403,487.31,536.15
42.22509,488.21,537.09
42.24480,485.50,536.79
42.26480,486.29,534.49
42.28352,482.39,533.05
42.30351,482.09,537.00
42.32511,484.49,547.25
42.34430,483.22,561.31
42.36527,483.00,584.00
42.38495,483.16,608.39
42.40439,487.29,621.97
42.42565,484.89,634.71
42.44438,486.91,635.46
42.46313,484.18,632.58
42.48432,485.21,626.23
42.50513,484.45,615.12
42.52356,487.82,605.58
42.54345,489.56,593.42
42.56446,487.30,588.28
42.58419,491.23,578.61
42.60485,490.73,569.43
42.62504,490.62,562.77
42.64420,489.53,562.56
42.66472,487.76,570.77
42.68365,488.30,574.93
42.70395,487.07,576.98
42.72367,485.91,572.91
42.74449,486.00,572.29
42.76493,482.92,569.53
42.78504,483.96,567.22
42.80480,483.46,564.18
42.82348,481.67,558.79
42.84340,483.67,555.83
42.86426,482.54,554.06
42.88511,483.39,552.77
42.97688,483.65,548.11
42.97806,484.31,550.05
42.97755,487.29,547.71
42.97774,487.11,545.90
42.98451,488.38,544.73
43.00479,487.19,546.67
43.02332,487.81,545.55
43.04432,491.41,541.61
43.06331,490.03,542.07
43.08535,491.71,541.58
43.10361,488.92,542.21
43.12477,487.50,539.92
43.14501,486.65,543.27
43.16361,483.68,538.84
43.18378,484.87,539.96
43.20542,487.52,536.70
43.22345,486.78,537.92
43.24429,487.30,539.68
43.26432,488.57,541.40
43.28399,488.05,538.44
43.30502,489.11,543.37
43.32385,489.68,541.90
43.34415,488.01,541.78
43.36400,485.03,538.39
43.38400,488.94,539.25
43.40506,487.12,540.03
43.42385,485.54,539.61
43.44348,487.04,539.43
43.46426,484.41,540.87
43.48360,486.78,532.66
43.50378,486.97,520.53
43.52388,489.29,502.39
43.54502,487.90,481.57
43.56455,489.58,459.34
43.58315,486.55,442.99
43.60590,485.20,432.64
43.62551,484.91,425.59
43.64541,486.12,428.50
43.66569,485.52,433.04
43.68457,486.62,438.86
43.70589,486.29,446.06
43.72534,486.49,451.64
43.74431,491.87,462.66
43.76537,493.64,470.65
43.78469,493.70,478.73
43.80464,494.89,488.27
43.82526,495.47,493.29
43.84514,491.72,497.75
43.86498,492.59,504.56
43.88474,490.53,511.95
43.90453,493.97,515.86
43.92435,490.17,520.31
43.94431,489.76,520.37
43.96513,491.56,524.86
43.98501,490.72,527.07
44.00574,490.60,525.90
44.02478,492.29,530.28
44.04621,492.46,529.59
44.06556,493.27,529.49
44.08571,493.49,529.40
44.10606,495.09,534.59
44.12519,496.79,537.51
44.14570,500.86,542.18
44.16561,501.38,545.02
44.18482,500.95,543.13
44.20576,498.10,543.68
44.22577,499.30,546.17
44.24556,496.65,545.51
44.26585,498.54,541.93
44.28421,498.83,542.08
44.30431,497.97,543.07
44.32513,497.75,542.30
44.34561,497.51,540.24
44.36450,498.65,538.24
44.38577,495.63,535.50
44.40597,497.65,538.43
44.42612,496.51,538.16
44.44543,495.82,537.00
44.46540,498.38,539.43
44.48598,498.37,542.06
44.50528,498.38,555.36
44.52647,500.52,568.89
44.54542,503.38,591.72
44.56465,503.50,606.71
44.58552,502.76,608.36
44.60521,500.42,600.93
44.62608,496.79,582.52
44.64424,494.44,567.71
44.66473,495.88,550.59
44.68563,493.99,534.67
44.70619,491.90,523.03
44.72440,491.21,514.28
44.74551,491.53,509.00
44.76518,489.62,507.72
44.78588,492.74,503.89
44.80569,490.45,507.23
44.82422,494.24,506.24
44.84474,493.27,508.23
44.86529,491.61,510.07
44.88640,491.53,512.34
44.90720,490.86,513.93
44.92782,492.41,516.58
44.94679,492.10,521.55
44.96777,494.16,524.52
44.98778,497.29,527.91
45.00689,496.31,529.28
45.02665,495.17,530.94
45.04630,496.53,530.91
45.06826,501.16,531.78
45.08628,501.75,533.81
45.10697,499.09,536.31
45.12666,499.56,535.84
45.14635,495.90,539.41
45.16647,495.59,541.07
45.18753,496.94,541.33
45.20654,498.95,543.37
45.22801,496.66,544.03
45.24707,498.30,540.46
45.26780,499.61,542.03
45.28656,499.42,541.35
45.30767,497.75,544.22
45.32785,495.68,542.69
45.34810,497.70,542.38
45.36626,494.70,542.21
45.38614,496.16,543.15
45.40634,498.44,543.08
45.42676,494.58,543.69
45.44739,496.86,546.95
45.46792,497.34,543.83
45.48624,497.49,546.90
45.50662,496.97,544.50
45.52707,498.75,544.04
45.54612,496.17,543.41
45.56703,497.85,542.86
45.58726,495.26,542.30
45.60641,497.98,541.40
45.62619,496.74,542.46
45.64627,498.35,543.71
45.66727,499.00,544.35
45.68652,496.13,542.76
45.70675,495.56,541.83
45.72767,496.79,542.21
45.74823,496.85,542.10
45.76730,496.47,543.63
45.78913,498.09,544.52
45.80744,495.15,545.23
45.82843,495.94,544.79
45.84843,494.93,544.59
45.86866,498.24,546.47
45.88817,498.61,546.04
45.90857,495.64,543.83
45.92802,495.63,546.03
45.94899,498.43,544.04
45.96839,496.09,543.25
45.99077,495.40,544.76
46.00868,495.72,544.00
46.02990,495.18,541.41
46.04852,494.53,541.92
46.06880,496.28,542.75
46.08922,493.56,543.24
46.10991,495.78,541.55
46.12961,495.53,543.92
46.14901,491.76,542.68
46.16983,492.64,544.07
46.18931,492.19,544.52
46.21130,489.55,541.94
46.23130,491.86,542.76
46.25208,492.71,541.76
46.27075,493.15,542.14
46.29071,490.12,544.25
46.31117,492.21,541.33
46.33265,490.41,542.00
46.35286,487.79,543.86
46.37272,487.34,540.96
46.39306,486.14,543.01
46.41227,484.78,540.19
46.43366,482.99,540.41
46.45240,485.32,542.58
46.47338,485.00,542.80
46.49215,481.29,540.25
46.51365,482.81,537.17
46.53233,482.46,540.24
46.55263,482.17,535.16
46.57302,482.63,535.06
46.59348,480.07,534.97
46.61272,480.68,531.25
46.63285,482.04,533.29
46.65377,481.99,532.52
46.67342,480.85,536.45
46.69350,483.63,551.94
46.71314,482.20,577.55
46.73298,482.56,601.36
46.75342,484.53,618.46
46.77359,485.74,627.42
46.79218,482.86,632.58
46.81351,480.74,631.89
46.83342,483.35,630.54
46.85319,483.02,623.25
46.87308,480.40,617.72
46.89222,477.36,608.99
46.91211,477.87,607.20
46.93417,479.35,599.86
46.95221,477.04,593.35
46.97313,479.29,590.35
46.99346,480.69,587.90
47.01397,482.74,582.71
47.03464,482.40,573.86
47.05476,481.69,572.02
47.07340,483.03,568.65
47.09474,480.32,564.74
47.11348,478.52,561.37
47.13407,479.25,555.76
47.15462,482.73,555.95
47.17346,479.35,555.37
47.19441,480.34,550.73
47.21463,483.12,550.87
47.23499,483.04,548.39
47.25402,483.24,547.07
47.27467,481.96,545.32
47.29396,482.35,542.75
47.31478,482.74,545.93
47.33417,479.90,542.72
47.35465,482.65,544.44
47.37317,482.37,541.93
47.39350,480.23,546.21
47.41324,476.96,545.08
47.43349,477.11,541.54
47.45322,479.74,540.83
47.47440,478.68,542.77
47.49502,480.57,539.87
47.51320,478.28,541.73
47.53495,480.44,539.15
47.55310,477.88,541.87
47.57291,478.72,541.01
47.59429,477.38,541.03
47.61452,477.35,539.33
47.63323,476.42,539.54
47.65465,476.47,539.89
47.67589,477.02,537.28
47.69493,477.70,535.97
47.71495,478.74,536.65
47.73514,478.83,538.04
47.75550,480.73,540.72
47.77484,482.17,537.73
47.79427,481.89,538.58
47.81576,480.69,540.12
47.83704,480.44,537.83
47.85648,483.89,539.34
47.87655,483.98,541.15
47.89760,481.63,541.00
47.91712,482.66,546.89
47.93616,479.76,543.26
47.95794,481.32,529.63
47.97674,482.86,511.19
47.99824,482.09,481.49
48.01675,479.41,454.38
48.03768,479.27,439.09
48.05844,478.47,426.13
48.07789,481.96,425.18
48.09899,481.92,428.43
48.11695,482.40,434.50
48.13911,484.28,442.04
48.15736,482.95,447.53
48.17845,483.32,457.77
48.19851,485.38,461.92
48.21835,485.27,467.95
48.23901,489.03,471.64
48.25735,487.84,482.02
48.27746,486.37,486.22
48.29786,487.29,490.46
48.31890,489.43,498.37
48.33769,488.12,501.03
48.35847,487.95,507.20
48.37767,487.98,510.59
48.39916,488.32,513.62
48.41873,486.44,518.80
48.43830,485.81,522.72
48.45816,486.31,525.86
48.47873,484.71,528.75
48.49715,485.71,529.31
48.51799,483.06,529.94
48.53765,481.60,533.74
48.55764,482.50,531.80
48.57716,482.44,534.84
48.59904,482.48,535.88
48.61861,481.86,537.53
48.63890,483.12,537.28
48.65840,481.57,537.79
48.67713,484.15,536.78
48.69828,484.28,539.85
48.71731,486.15,537.96
48.73793,487.07,539.76
48.75734,484.84,536.75
48.77864,484.00,537.65
48.79872,484.95,541.50
48.81727,486.52,540.76
48.83722,488.38,539.33
48.85844,489.79,541.76
48.87952,488.04,541.40
48.89840,488.04,543.36
48.91976,489.07,542.01
48.93943,491.50,541.11
48.95857,487.98,541.29
48.97837,489.62,540.15
48.99966,491.78,541.80
49.01895,491.40,542.91
49.03923,492.48,541.93
49.06008,490.61,543.78
49.07894,492.14,544.91
49.09838,490.94,542.17
49.11877,492.55,542.63
49.13816,490.32,538.58
49.15813,491.12,538.87
49.17980,491.99,540.86
49.19838,492.35,540.73
49.21813,491.57,538.38
49.23881,489.48,540.30
49.25937,490.43,540.60
49.27958,490.32,540.56
49.29824,490.86,539.16
49.31934,491.62,538.59
49.33920,492.72,536.32
49.35839,491.24,540.36
49.37934,494.86,538.49
49.39940,493.94,537.05
49.41838,491.01,536.13
49.43832,490.90,539.13
49.45922,490.98,536.06
49.47946,493.81,535.73
49.49937,494.99,536.45
49.51989,493.20,536.20
49.53911,491.56,536.47
49.55918,490.04,534.60
49.57871,491.67,538.25
49.59932,491.93,538.44
49.61944,493.69,538.58
49.63965,493.68,540.45
49.65905,493.89,538.92
49.67881,493.40,538.41
49.69854,492.24,536.61
49.71997,493.08,539.50
49.73914,490.66,537.38
49.75975,490.00,541.09
49.77886,490.84,541.65
49.79795,492.42,540.28
49.81880,491.78,539.34
49.83816,492.39,541.90
49.85827,491.22,541.71
49.87928,493.37,541.54
49.89968,493.29,541.03
49.91919,490.85,540.51
49.93985,492.64,539.28
49.95917,493.82,540.87
49.97812,494.74,539.52
49.99851,494.60,541.87
50.01959,494.96,542.23
50.03922,491.40,541.49
50.05959,491.26,542.07
50.07829,494.99,541.25
50.09950,493.86,540.84
50.11998,495.30,542.06
50.13862,493.62,540.20
50.15806,495.03,540.55
50.17932,494.21,541.94
50.19867,492.78,539.64
50.21979,494.71,540.70
50.23803,492.95,540.47
50.25858,495.34,538.77
50.27874,493.75,542.13
50.29934,494.06,542.95
50.31917,495.56,543.08
50.33819,495.61,543.28
50.35970,492.47,542.22
50.37946,495.24,541.91
50.39832,495.72,541.91
50.41892,494.36,542.90
50.43947,497.98,541.73
50.45929,498.53,543.77
50.47864,498.13,544.51
50.49811,497.85,542.46
50.51784,498.60,541.58
50.53984,497.92,543.85
50.55930,497.88,544.76
50.57946,496.37,542.78
50.59868,496.92,541.92
50.61831,497.63,542.29
50.63991,496.69,542.99
50.65991,496.84,542.93
50.67974,497.06,543.84
50.69974,495.82,542.53
50.71855,495.26,541.32
50.73939,496.03,541.59
50.76025,496.89,539.66
50.77995,496.92,542.32
50.79982,496.10,540.93
50.82037,498.29,540.78
50.84025,496.04,541.69
50.86039,496.73,542.02
50.87927,495.98,543.87
50.89975,496.38,542.27
50.91988,494.75,543.37
50.94106,487.78,541.95
50.95990,484.10,544.08
50.98094,479.79,544.79
50.99912,479.16,542.66
51.02013,479.82,546.02
51.04021,481.08,545.22
51.05984,483.17,541.84
51.07953,484.35,543.02
51.10008,486.46,543.51
51.11962,488.25,541.82
51.13938,487.30,541.96
51.16023,491.27,539.91
51.17940,491.41,539.73
51.20010,491.69,540.32
51.21936,493.67,543.55
51.24087,493.53,561.79
51.26032,495.08,578.98
51.28044,496.85,599.34
51.29948,495.03,616.10
51.32045,497.29,626.95
51.34007,497.01,631.88
51.36024,498.95,636.24
51.38080,501.55,633.67
51.40034,497.90,630.35
51.42014,496.03,621.34
51.44035,498.30,613.57
51.45961,499.26,606.15
51.47994,498.24,598.94
51.50003,499.10,594.55
51.52082,501.45,589.20
51.53933,497.99,586.40
51.55998,499.23,581.05
51.58036,497.22,576.73
51.60056,497.82,571.17
51.62074,495.21,567.74
51.64026,498.81,563.15
51.65914,495.78,561.94
51.67904,499.33,558.72
51.69917,498.14,557.32
51.71924,498.24,556.65
51.74057,496.16,553.67
51.75906,497.32,554.71
51.78050,499.39,550.85
51.80066,497.59,549.27
51.81908,498.25,549.23
51.83962,496.38,548.16
51.86062,499.06,549.80
51.88058,497.19,549.19
51.90039,499.00,545.70
51.91961,499.39,547.08
51.94034,495.74,548.17
51.95962,498.22,548.11
51.97963,498.05,544.86
52.00016,497.30,546.17
52.01907,497.06,545.75
52.04073,497.40,547.80
52.06042,498.57,548.67
52.08076,499.48,546.83
52.09968,499.38,547.79
52.11952,497.34,548.16
52.13953,498.26,547.78
52.15951,499.47,547.57
52.17935,498.82,546.08
52.19994,496.42,545.55
52.21917,497.59,546.61
52.23908,497.52,543.79
52.25923,497.19,543.95
52.27939,498.04,545.21
52.29921,496.43,543.62
52.31921,498.13,545.80
52.33920,498.07,543.87
52.35966,499.15,540.76
52.37988,499.35,531.51
52.40063,500.52,511.13
52.41936,498.26,485.48
52.44059,496.59,465.35
52.46075,497.09,446.87
52.47918,495.16,438.91
52.49948,492.86,433.77
52.51905,494.81,434.13
52.53916,492.80,436.30
52.55909,493.30,446.86
52.58012,491.41,455.27
52.60057,491.87,465.97
52.61899,493.42,473.28
52.63941,493.98,480.44
52.66020,494.02,488.20
52.68008,497.72,496.52
52.70050,496.88,502.91
52.71977,495.97,509.74
52.73985,497.87,515.01
52.75929,496.86,519.64
52.77983,499.29,522.72
52.80025,498.38,527.22
52.82065,502.58,529.45
52.84034,502.05,528.81
52.86090,499.79,532.66
52.88078,500.05,533.88
52.89998,498.24,537.88
52.92031,497.92,537.06
52.93973,500.10,539.51
52.96062,500.57,538.55
52.97982,499.39,538.92
52.99981,499.22,540.01
53.02055,499.76,538.78
53.04197,498.93,539.03
53.06146,497.84,540.21
53.08135,498.49,541.16
53.10119,496.08,538.51
53.12029,496.28,539.26
53.14070,495.84,538.28
53.16031,497.54,539.32
53.18018,497.54,538.92
53.20145,497.58,541.42
53.22154,496.63,541.60
53.24164,496.39,540.72
53.26113,495.99,538.82
53.28156,495.66,538.31
53.30111,494.04,538.14
53.32078,496.06,538.75
53.34026,496.56,539.75
53.36075,496.35,540.34
53.38034,496.37,541.11
53.40076,495.87,538.96
53.42170,497.37,539.30
53.44184,495.72,540.28
53.46045,497.56,540.57
53.48105,495.31,539.67
53.50107,498.46,540.99
53.52185,496.98,540.33
53.54073,496.13,540.63
53.56066,495.10,540.83
53.58108,495.79,539.46
53.60161,495.59,540.37
53.62021,495.21,539.13
53.64153,494.18,539.72
53.66131,494.52,539.65
53.68091,496.50,540.66
53.70145,495.81,540.04
53.72176,495.09,541.26
53.74145,496.28,541.43
53.76106,494.81,541.61
53.78060,496.70,540.12
53.80153,496.35,537.95
53.82040,495.53,536.93
53.84020,498.23,537.32
53.86090,494.86,536.87
53.88178,495.29,538.17
53.90095,495.24,538.30
53.92117,496.22,540.25
53.94118,496.84,543.80
53.96170,496.67,539.74
53.98009,499.32,541.62
54.00114,496.93,543.18
54.02144,496.68,541.24
54.04146,499.56,539.26
54.06084,494.23,540.82
54.08114,489.29,538.62
54.10040,486.04,540.62
54.12189,486.66,537.16
54.14200,486.03,538.47
54.16164,488.20,538.80
54.18007,487.66,541.57
54.20051,486.81,541.78
54.22044,490.37,540.36
54.24197,488.55,539.32
54.26089,488.53,542.97
54.28111,489.62,540.25
54.30124,489.34,540.42
54.32088,491.38,539.34
54.34190,491.09,539.60
54.36142,488.34,538.55
54.38045,488.96,540.69
54.40164,489.88,538.27
54.42184,491.27,539.30
54.44177,489.62,536.76
54.46020,488.58,539.68
54.48108,491.64,538.39
54.50077,490.97,540.78
54.52161,490.67,539.83
54.54174,491.25,539.97
54.56087,489.65,540.08
54.58133,491.88,539.46
54.60075,490.50,538.39
54.62130,490.44,539.90
54.64163,492.22,537.91
54.65996,492.56,537.77
54.68185,490.78,539.00
54.70180,489.40,542.26
54.72079,493.27,543.96
54.74172,486.27,534.70
54.76060,473.79,523.07
54.78132,463.15,504.86
54.80129,454.06,494.33
54.82157,449.47,485.87
54.84168,448.40,486.80
54.85972,449.46,487.20
54.88013,449.90,489.26
54.90026,451.95,495.17
54.92132,457.73,503.06
54.94028,461.44,511.39
54.96132,464.82,516.27
54.98197,470.24,523.04
55.00038,473.49,527.04
55.02035,475.55,530.11
55.04097,476.53,533.86
55.06071,479.70,533.75
55.08148,482.35,535.55
55.10013,483.58,539.21
55.12099,485.00,540.35
55.14104,485.48,540.27
55.16063,487.31,541.74
55.17989,483.27,541.97
55.20121,486.60,538.48
55.22048,486.64,541.29
55.24119,487.03,542.03
55.26173,485.71,543.77
55.28025,488.55,546.50
55.30034,486.47,546.35
55.31999,487.16,550.14
55.34030,488.81,553.20
55.36164,487.94,556.69
55.38143,489.09,562.20
55.40168,492.69,569.67
55.41985,493.88,573.15
55.44119,493.12,576.98
55.46103,492.80,583.75
55.48035,493.33,584.07
55.50172,496.44,584.58
55.52140,494.95,586.75
55.54079,493.57,589.15
55.56110,491.92,594.16
55.58111,492.44,603.81
55.60037,492.85,618.13
55.62122,493.90,652.63
55.64189,494.16,681.83
55.66039,495.48,696.84
55.68160,500.06,701.00
55.70051,500.25,695.52
55.72082,499.34,684.11
55.74103,496.74,665.67
55.76193,493.84,645.03
55.78135,493.39,620.10
55.80118,493.42,599.09
