Program Time [s],data 0,data 1
136.53388,464.20,490.02
136.55264,468.03,489.78
136.57222,466.68,492.12
136.59127,465.91,491.03
136.61227,466.25,487.90
136.63211,467.81,488.39
136.65167,467.02,500.90
136.67202,470.20,526.43
136.69348,472.80,554.01
136.71337,475.82,575.78
136.73249,476.55,594.58
136.75292,475.49,603.17
136.77360,475.15,612.99
136.79337,477.39,612.49
136.81233,476.04,610.78
136.83379,474.10,603.86
136.85249,475.79,594.23
136.87299,474.84,586.30
136.89240,473.46,575.71
136.91242,472.39,565.41
136.93400,471.60,557.43
136.95204,473.84,549.73
136.97467,469.14,544.15
136.99292,472.11,538.58
137.01257,470.46,532.64
137.03357,469.87,530.34
137.05286,468.35,526.10
137.07263,466.99,518.88
137.09376,469.87,515.27
137.11365,466.06,511.35
137.13258,468.84,508.33
137.15344,468.32,507.12
137.17244,471.42,510.07
137.19302,469.07,507.93
137.21321,470.08,506.02
137.23275,470.31,506.74
137.25359,472.20,502.75
137.27255,474.31,504.33
137.29258,470.69,503.07
137.31312,471.45,500.45
137.33328,471.09,501.33
137.35359,473.88,494.27
137.37465,474.06,496.02
137.39320,472.71,496.16
137.41238,474.25,493.17
137.43304,471.69,496.01
137.45344,471.17,498.34
137.47367,473.26,496.85
137.49394,472.92,498.62
137.51241,470.74,498.37
137.53291,472.05,498.06
137.55324,472.36,496.30
137.57473,471.62,498.16
137.59260,469.19,495.83
137.61205,469.36,494.14
137.63335,469.65,494.52
137.65334,472.91,492.15
137.67329,472.44,491.88
137.69342,468.99,494.65
137.71354,472.78,498.14
137.73203,472.10,506.10
137.75388,475.54,513.93
137.77392,478.75,516.22
137.79347,480.50,507.69
137.81209,480.88,484.34
137.83376,477.86,456.38
137.85372,473.50,432.09
137.87297,470.03,407.80
137.89275,466.34,395.11
137.91316,463.61,385.98
137.93332,463.35,381.66
137.95228,462.57,383.53
137.97348,461.75,383.79
137.99269,458.53,390.39
138.01258,459.10,398.48
138.03327,462.60,407.68
138.05214,466.99,419.51
138.07224,467.34,428.98
138.09367,468.79,436.96
138.11355,470.62,444.99
138.13482,472.36,449.35
138.15390,469.98,455.79
138.17441,469.85,460.55
138.19311,471.42,461.50
138.21314,471.01,467.07
138.23325,471.86,470.98
138.25439,472.63,473.47
138.27353,473.01,474.80
138.29382,474.55,478.82
138.31477,471.98,481.76
138.33412,474.05,484.08
138.35312,475.80,485.71
138.37348,477.29,489.10
138.39450,479.12,491.48
138.41313,475.45,492.36
138.43499,478.71,492.26
138.45443,477.17,494.87
138.47599,474.24,493.17
138.49514,475.99,495.80
138.51477,476.02,495.76
138.53426,474.25,498.04
138.55423,475.65,500.81
138.57591,475.67,500.80
138.59522,477.88,501.46
138.61452,474.97,503.51
138.63435,477.62,505.44
138.65553,479.44,507.43
138.67476,477.68,508.03
138.69487,481.44,505.84
138.71501,478.17,507.24
138.73475,478.77,507.35
138.75541,479.01,507.17
138.77454,481.41,506.13
138.79491,480.12,503.66
138.81413,479.97,500.85
138.83495,479.90,500.23
138.85448,480.41,502.51
138.87565,478.92,500.38
138.89455,478.74,500.34
138.91551,476.34,500.96
138.93537,479.79,497.83
138.95509,479.29,499.83
138.97654,479.35,499.71
138.99655,477.13,499.64
139.01506,476.77,502.15
139.03570,477.77,503.90
139.05740,478.66,505.86
139.07669,477.53,506.74
139.09622,476.08,506.97
139.11657,477.32,508.43
139.13786,476.10,509.92
139.15745,478.50,506.68
139.17754,477.19,508.25
139.19708,478.85,508.80
139.21830,476.34,508.45
139.23912,476.32,509.01
139.25710,478.47,507.54
139.27806,478.49,506.09
139.29725,478.18,504.19
139.31861,477.37,503.75
139.33864,476.45,504.26
139.35702,475.11,503.15
139.37791,478.12,500.83
139.39788,474.83,500.94
139.41832,476.14,501.98
139.43807,475.72,503.10
139.45874,475.27,503.31
139.47760,474.15,499.57
139.49797,473.50,501.36
139.51820,476.85,499.21
139.53737,477.52,499.71
139.55723,474.96,500.45
139.57795,474.89,501.97
139.59875,476.92,500.61
139.61791,476.43,503.02
139.63793,475.25,500.59
139.65896,477.64,503.37
139.67769,474.21,501.93
139.69733,473.61,504.97
139.71767,473.53,502.07
139.73798,474.29,503.02
139.75885,477.24,503.09
139.77861,474.81,503.89
139.79810,474.52,501.01
139.81805,475.21,501.99
139.83817,474.71,502.39
139.85872,473.00,502.17
139.87812,471.65,501.78
139.89912,470.52,502.77
139.91803,473.51,501.86
139.93961,472.34,502.28
139.95861,473.19,503.91
139.97916,474.78,500.38
139.99841,474.99,502.72
140.01958,472.55,504.54
140.03818,472.49,501.27
140.05877,472.01,501.85
140.07933,469.85,503.34
140.09847,468.55,500.82
140.11967,467.75,502.99
140.13999,469.18,500.62
140.16041,469.14,502.39
140.17958,466.29,503.40
140.19977,466.87,501.02
140.21959,466.60,502.87
140.24058,464.50,503.41
140.25931,464.93,504.35
140.27964,467.66,503.25
140.30001,466.62,503.11
140.32004,467.36,501.96
140.34039,465.27,503.59
140.36063,468.19,503.23
140.38073,466.48,504.32
140.39951,468.93,502.72
140.42073,467.67,503.48
140.44089,465.32,501.60
140.46018,467.05,503.15
140.47975,467.12,503.93
140.50055,467.18,507.23
140.51963,468.37,520.81
140.53989,469.49,543.67
140.56072,469.47,560.31
140.58036,471.99,577.50
140.60116,471.13,592.37
140.62120,470.60,601.14
140.64145,472.69,604.57
140.66170,469.67,600.63
140.68060,467.61,599.04
140.70019,467.20,590.44
140.72194,467.99,582.02
140.74105,465.60,572.06
140.76089,466.82,565.35
140.78006,463.72,556.73
140.80085,467.03,550.80
140.82073,464.73,542.67
140.84017,465.03,535.71
140.86163,466.39,533.97
140.88074,463.79,534.50
140.90013,462.73,529.03
140.92175,465.24,530.16
140.94096,465.41,524.97
140.96043,466.07,522.59
140.98121,464.16,520.13
141.00067,465.66,513.50
141.02147,465.08,515.05
141.04055,460.80,512.83
141.06017,461.21,509.09
141.08092,462.67,512.16
141.10182,463.18,510.21
141.12183,464.43,510.20
141.14092,462.51,503.18
141.16173,463.36,500.28
141.18092,460.44,499.86
141.20042,461.21,499.87
141.22024,463.61,500.54
141.24085,461.76,503.17
141.26029,461.46,504.35
141.28180,459.30,506.80
141.30177,460.32,505.86
141.32040,462.00,505.32
141.34104,459.78,504.54
141.36081,459.10,501.94
141.38141,458.99,502.85
141.40114,458.82,503.20
141.42236,459.65,500.08
141.44240,457.68,502.66
141.46118,456.79,503.99
141.48110,455.92,499.76
141.50167,457.34,501.43
141.52189,457.76,502.71
141.54162,457.95,505.71
141.56227,456.40,507.13
141.58143,458.20,502.40
141.60206,458.65,478.74
141.62267,453.93,446.35
141.64193,451.13,415.99
141.66121,449.40,391.09
141.68246,450.78,377.76
141.70205,448.82,376.47
141.72130,449.90,379.55
141.74279,449.21,384.80
141.76113,448.76,391.15
141.78112,449.13,399.69
141.80211,447.68,408.98
141.82259,447.85,420.14
141.84270,447.32,429.37
141.86190,446.74,435.28
141.88122,450.61,442.55
141.90161,449.91,451.43
141.92112,450.84,455.81
141.94179,452.85,460.90
141.96274,453.23,466.95
141.98187,456.06,470.34
142.00127,455.20,473.45
142.02221,455.92,476.48
142.04230,455.20,481.29
142.06299,457.33,479.82
142.08491,459.31,481.92
142.10364,459.16,482.55
142.12532,461.33,483.59
142.14508,461.39,484.04
142.16468,461.69,486.17
142.18547,462.25,487.36
142.20570,462.32,486.88
142.22592,461.06,487.47
142.24529,461.10,492.65
142.26412,459.05,495.53
142.28494,461.13,494.55
142.30554,461.03,494.55
142.32505,458.33,495.31
142.34446,457.86,497.67
142.36406,460.09,495.15
142.38589,460.85,497.17
142.40449,458.50,496.86
142.42519,459.56,498.57
142.44577,460.21,498.79
142.46431,457.01,495.82
142.48451,457.08,494.38
142.50415,457.12,495.64
142.52545,457.00,494.03
142.54516,459.52,497.41
142.56456,456.90,494.31
142.58474,460.73,494.68
142.60432,457.55,493.84
142.62558,459.25,492.78
142.64418,460.85,495.06
142.66470,460.31,490.65
142.68584,457.16,491.23
142.70506,458.88,490.58
142.72454,458.00,493.70
142.74422,454.90,494.69
142.76588,456.39,492.52
142.78480,456.66,490.95
142.80429,456.76,492.74
142.82542,454.83,489.64
142.84429,457.80,489.79
142.86587,459.40,490.83
142.88586,456.98,490.95
142.90573,459.57,493.49
142.92591,460.63,493.26
142.94501,459.04,492.90
142.96561,459.23,491.93
142.98474,460.49,493.64
143.00532,461.24,492.97
143.02433,457.42,491.14
143.04439,458.82,490.34
143.06560,458.28,490.11
143.08551,458.60,492.86
143.10428,459.08,494.40
143.12538,458.17,494.31
143.14482,460.31,494.28
143.16573,458.40,493.86
143.18422,458.98,493.77
143.20555,460.65,494.97
143.22457,458.43,493.70
143.24524,458.74,496.47
143.26422,458.81,495.47
143.28588,459.92,493.81
143.30515,458.45,495.71
143.32585,460.80,492.70
143.34558,459.10,496.10
143.36562,459.80,497.10
143.38577,458.15,496.31
143.40487,460.26,495.92
143.42454,457.73,495.73
143.44424,458.08,495.96
143.46493,459.38,494.36
143.48579,458.63,495.70
143.50404,460.95,496.97
143.52524,460.99,495.18
143.54611,460.60,496.80
143.56644,460.85,496.97
143.58646,461.35,495.73
143.60697,463.08,493.94
143.62558,463.10,495.19
143.64508,463.31,496.21
143.66616,462.25,495.92
143.68526,464.50,497.84
143.70663,462.43,497.18
143.72566,463.70,498.40
143.74661,465.81,496.93
143.76677,464.62,498.08
143.78647,466.44,496.58
143.80635,466.00,496.49
143.82583,464.58,499.05
143.84520,464.41,497.25
143.86608,464.58,498.44
143.88508,466.02,497.19
143.90696,465.77,494.20
143.92582,465.77,497.28
143.94502,465.61,496.32
143.96654,467.20,498.14
143.98571,466.34,498.94
144.00613,467.44,495.88
144.02675,466.59,497.01
144.04689,466.74,494.16
144.06763,468.37,496.67
144.08792,467.03,496.01
144.10759,466.97,496.68
144.12691,466.27,497.82
144.14783,467.44,496.09
144.16669,468.15,497.06
144.18779,467.58,497.13
144.20673,467.69,497.48
144.22685,469.37,495.89
144.24730,468.23,499.77
144.26782,467.40,498.80
144.28769,468.62,496.72
144.30748,467.19,497.86
144.32741,467.57,498.55
144.34744,468.37,513.50
144.36776,469.32,536.50
144.38733,473.17,557.14
144.40606,470.71,577.57
144.42645,472.40,590.83
144.44790,473.13,597.20
144.46718,471.41,599.16
144.48632,469.44,594.03
144.50668,470.65,589.02
144.52627,472.27,584.39
144.54879,471.13,582.40
144.56757,473.30,573.53
144.58856,476.22,569.81
144.60870,478.92,559.87
144.62880,479.44,552.27
144.64774,475.56,546.05
144.66868,478.89,544.60
144.68878,476.22,535.61
144.70745,478.54,530.36
144.72880,479.53,527.64
144.74708,479.31,526.67
144.76702,479.50,522.35
144.78746,478.22,521.46
144.80759,476.99,515.93
144.82722,476.53,513.67
144.84855,478.84,513.54
144.86778,479.57,513.43
144.88817,477.58,511.62
144.90806,478.20,511.14
144.92879,474.73,506.51
144.94745,477.85,507.25
144.96747,475.23,507.15
144.98760,476.04,502.77
145.00858,474.03,500.72
145.02790,476.00,501.66
145.04790,478.63,505.33
145.06801,475.59,503.10
145.08743,477.32,504.26
145.10878,475.84,505.13
145.12730,477.17,505.70
145.14890,476.25,505.23
145.16833,473.86,503.40
145.18815,472.73,503.47
145.20798,475.76,505.47
145.22742,474.11,503.29
145.24749,472.15,510.09
145.26735,475.77,507.62
145.28851,476.22,504.34
145.30722,479.48,483.75
145.32771,476.48,458.19
145.34780,475.86,425.40
145.36817,472.89,406.25
145.38903,474.27,390.50
145.40982,472.78,385.15
145.42936,471.11,385.03
145.44878,473.49,388.65
145.46892,471.67,394.19
145.48982,471.64,402.95
145.50910,475.18,407.76
145.53084,473.28,415.62
145.55078,472.99,426.61
145.56919,473.64,433.73
145.59043,473.31,440.31
145.60976,476.19,448.48
145.62917,473.96,453.68
145.64903,475.18,461.64
145.67049,475.51,466.88
145.69008,474.55,471.08
145.71062,476.34,474.56
145.72988,478.79,480.96
145.75007,477.45,482.49
145.77092,476.76,485.51
145.79167,476.30,488.83
145.81007,475.44,489.89
145.83127,475.84,492.60
145.85125,475.36,493.63
145.87133,475.55,495.04
145.89107,476.97,496.26
145.91026,478.55,495.48
145.93146,478.46,494.18
145.95187,478.94,495.18
145.97190,479.00,497.00
145.99022,477.55,495.80
146.01092,479.27,498.28
146.03049,480.04,495.57
146.05199,482.03,494.83
146.07039,481.68,495.17
146.09009,479.71,495.41
146.11088,477.69,495.17
146.13110,479.89,496.66
146.15054,476.07,496.06
146.17054,478.41,499.88
146.19095,475.00,497.44
146.21035,477.91,497.96
146.23088,478.66,500.49
146.25049,476.62,500.75
146.27066,476.31,499.44
146.29193,479.61,499.63
146.31129,477.55,501.51
146.33078,477.85,502.37
146.35089,477.00,501.71
146.37102,476.82,502.93
146.39193,474.52,500.88
146.41038,476.32,498.45
146.43037,475.66,500.54
146.45187,476.24,498.75
146.47068,476.37,498.57
146.49137,473.42,501.17
146.51067,472.75,501.04
146.53153,476.47,499.43
146.55056,473.71,498.36
146.57132,475.46,496.79
146.59169,477.77,500.55
146.61195,477.76,501.33
146.63123,478.64,499.37
146.65032,478.61,502.93
146.67050,478.27,503.17
146.69068,478.15,503.52
146.71071,475.80,503.56
146.73175,477.26,504.83
146.75036,474.89,504.19
146.77083,476.97,503.78
146.79084,475.73,501.18
146.81196,476.33,503.01
146.83096,472.81,504.51
146.85141,476.01,501.24
146.87136,476.33,504.87
146.89056,476.69,501.95
146.91072,475.88,502.85
146.93130,476.50,504.75
146.95168,478.00,502.90
146.97152,475.66,502.09
146.99150,475.32,505.02
147.01190,475.91,504.62
147.03156,473.19,506.06
147.05222,472.33,507.83
147.07103,472.45,514.07
147.09106,470.26,519.02
147.11240,472.55,520.73
147.13144,472.86,520.55
147.15159,471.07,520.41
147.17220,468.83,519.98
147.19286,471.27,517.66
147.21151,470.42,522.47
147.23157,471.35,542.21
147.25232,478.66,571.28
147.27259,483.11,602.77
147.29244,487.44,629.50
147.31205,493.29,647.35
147.33173,492.14,644.78
147.35200,490.18,628.31
147.37295,486.90,600.04
147.39273,476.70,567.30
147.41347,472.56,535.31
147.43374,466.50,503.77
147.45240,465.44,481.04
147.47379,465.01,461.80
147.49373,463.30,451.18
147.51345,462.52,440.10
147.53287,463.40,436.24
147.55278,460.31,430.94
147.57235,461.81,433.91
147.59200,463.23,436.78
147.61261,460.60,442.84
147.63305,460.11,444.34
147.65289,462.76,451.90
147.67335,461.83,453.99
147.69354,462.27,459.19
147.71310,465.93,463.81
147.73245,466.43,469.00
147.75284,466.08,473.41
147.77370,466.38,475.74
147.79377,466.75,478.75
147.81289,466.61,481.33
147.83242,465.96,485.26
147.85310,465.03,487.43
147.87232,467.43,490.07
147.89292,466.46,489.12
147.91296,467.45,492.64
147.93313,466.87,491.65
147.95395,468.94,496.30
147.97289,468.95,494.72
147.99375,468.65,497.29
148.01228,467.41,499.66
148.03386,469.59,498.88
148.05292,467.33,500.16
148.07268,465.82,501.99
148.09264,466.30,500.31
148.11313,468.62,499.63
148.13367,465.46,499.85
148.15372,466.68,498.78
148.17276,467.11,496.96
148.19287,466.62,496.99
148.21365,467.31,499.65
148.23268,470.39,498.71
148.25372,468.95,498.10
148.27243,468.12,498.28
148.29277,468.00,498.23
148.31215,468.14,498.09
148.33278,466.49,498.40
148.35262,466.38,499.24
148.37258,468.51,502.40
148.39355,468.53,500.84
148.41228,468.51,506.03
148.43250,471.63,525.42
148.45327,471.74,550.53
148.47286,473.45,573.49
148.49285,472.74,588.98
148.51395,476.94,603.74
148.53210,474.96,607.41
148.55385,475.21,604.98
148.57233,475.21,602.94
148.59339,474.47,595.64
148.61378,470.13,590.60
148.63271,472.95,582.27
148.65290,472.71,571.03
148.67352,468.62,563.89
148.69263,468.43,558.28
148.71213,468.50,554.58
148.73319,468.44,548.53
148.75311,469.54,543.63
148.77294,466.59,540.43
148.79343,467.14,535.49
148.81259,465.94,531.06
148.83381,467.22,527.12
148.85347,465.70,521.59
148.87315,467.62,516.58
148.89303,463.95,517.09
148.91212,467.67,517.02
148.93310,464.97,516.03
148.95270,465.44,514.88
148.97250,465.32,515.28
148.99252,466.99,510.65
149.01239,466.51,506.84
149.03442,464.77,505.78
149.05429,463.50,505.29
149.07688,464.54,505.49
149.09606,463.37,506.33
149.11756,463.12,503.53
149.13682,463.50,506.21
149.15720,462.81,503.98
149.17731,459.98,504.83
149.19661,459.10,500.41
149.21672,461.68,501.68
149.23710,462.30,502.84
149.25769,458.27,503.95
149.27666,458.73,497.79
149.29666,457.55,483.32
149.31710,455.44,464.70
149.33654,453.48,443.83
149.35828,453.11,428.56
149.37882,450.20,412.79
149.39827,452.16,405.68
149.41823,450.24,399.25
149.43830,449.87,400.38
149.45741,450.57,403.76
149.47860,450.57,412.73
149.49961,455.31,430.75
149.51811,457.12,470.07
149.53962,461.17,518.01
149.56018,463.00,554.47
149.57903,460.82,563.88
149.60025,457.05,561.26
149.61936,455.89,549.66
149.63977,452.31,530.81
149.66079,452.15,511.74
149.68158,451.11,494.93
149.70066,453.26,480.80
149.72019,449.76,467.80
149.74160,448.68,458.30
149.76128,451.55,455.70
149.78051,451.17,455.03
149.80185,450.64,451.81
149.82148,452.84,453.50
149.84178,452.89,456.97
149.86087,455.65,455.52
149.88060,457.45,460.42
149.90119,455.86,465.42
149.92034,457.73,465.16
149.94144,459.85,470.71
149.96008,464.51,475.07
149.98144,470.82,481.09
150.00163,468.39,483.63
150.02164,472.57,482.99
150.04172,473.60,486.50
150.06020,472.40,489.24
150.08137,474.74,491.00
150.10249,471.31,489.15
150.12140,474.56,491.38
150.14202,471.31,493.12
150.16113,474.07,493.97
150.18290,474.10,495.76
150.20135,473.08,494.16
150.22298,471.63,496.15
150.24312,474.27,498.57
150.26387,473.64,496.75
150.28265,474.26,501.71
150.30258,470.60,499.95
150.32370,469.18,499.11
150.34282,472.76,501.10
150.36324,470.98,503.37
150.38261,470.85,505.16
150.40297,472.10,503.61
150.42400,471.27,501.65
150.44244,472.65,502.40
150.46278,473.76,501.77
150.48272,472.90,501.58
150.50204,473.60,500.02
150.52392,472.95,500.27
150.54232,473.10,498.66
150.56247,471.75,502.60
150.58224,472.12,502.67
150.60210,474.24,502.12
150.62352,473.83,503.67
150.64239,474.20,500.49
150.66358,470.29,500.65
150.68231,472.64,502.07
150.70316,470.39,499.98
150.72238,470.08,498.68
150.74247,471.69,498.34
150.76214,473.39,501.19
150.78372,473.70,501.25
150.80361,473.04,499.49
150.82325,472.19,501.00
150.84371,473.66,501.49
150.86252,472.98,499.76
150.88300,476.37,497.15
150.90259,475.57,498.81
150.92338,473.47,497.68
150.94279,474.07,499.08
150.96318,474.73,499.73
150.98284,475.40,498.12
151.00356,472.68,498.14
151.02390,476.71,501.94
151.04272,476.76,503.07
151.06373,472.95,501.22
151.08251,475.20,504.22
151.10202,474.74,503.92
151.12330,475.87,502.53
151.14374,473.84,501.15
151.16370,477.66,504.29
151.18363,474.95,503.65
151.20328,475.29,500.45
151.22452,474.51,501.42
151.24399,476.63,500.45
151.26362,476.39,499.30
151.28527,477.77,502.84
151.30449,477.37,500.30
151.32487,478.30,499.26
151.34559,476.47,500.97
151.36532,477.14,502.76
151.38410,477.19,504.96
151.40529,474.68,502.88
151.42595,477.73,501.16
151.44425,474.92,500.31
151.46541,475.71,504.61
151.48562,476.56,503.47
151.50523,476.33,503.88
151.52453,478.52,505.05
151.54402,476.91,504.02
151.56441,478.53,508.30
151.58433,478.48,506.45
151.60481,478.41,505.14
151.62583,478.90,505.45
151.64415,480.41,506.10
151.66452,476.85,507.20
151.68481,475.36,507.08
151.70511,478.69,502.36
151.72482,477.50,505.50
151.74507,480.85,502.34
151.76518,480.25,502.87
151.78444,478.62,503.23
151.80595,476.20,503.51
151.82477,478.97,506.07
151.84550,475.20,503.60
151.86472,479.66,503.63
151.88508,477.39,506.56
151.90588,480.31,505.74
151.92492,481.39,518.10
151.94579,480.30,538.53
151.96474,480.49,564.57
151.98459,483.39,585.38
152.00553,483.51,601.18
152.02436,484.05,609.54
152.04500,483.97,613.35
152.06418,487.30,611.65
152.08571,484.58,604.50
152.10575,484.24,600.77
152.12512,484.81,589.08
152.14688,482.22,575.81
152.16560,480.09,569.79
152.18574,480.53,564.64
152.20521,479.89,553.90
152.22522,480.61,549.44
152.24501,479.24,543.59
152.26681,479.42,537.01
152.28690,477.83,532.22
152.30569,477.27,527.97
152.32615,474.69,525.54
152.34693,473.57,521.15
152.36508,475.06,519.55
152.38508,475.84,516.15
152.40501,475.26,513.72
152.42537,474.91,511.93
152.44607,477.86,510.16
152.46642,474.78,508.16
152.48562,473.46,504.78
152.50577,476.11,504.11
152.52624,477.06,505.37
152.54692,477.26,506.64
152.56515,474.93,505.38
152.58624,477.09,503.88
152.60536,476.42,505.10
152.62658,474.10,504.82
152.64623,476.72,505.04
152.66643,473.86,506.15
152.68502,474.12,503.78
152.70557,474.90,503.23
152.72655,474.42,505.03
152.74591,475.81,511.83
152.76575,476.37,516.76
152.78664,476.63,498.97
152.80709,473.67,470.13
152.82654,473.34,440.26
152.84610,471.33,422.04
152.86781,469.51,415.20
152.88765,468.61,413.07
152.90789,469.73,414.24
152.92658,471.87,424.07
152.94793,470.18,428.47
152.96786,470.78,439.69
152.98775,469.96,448.41
153.00751,472.74,456.55
153.02695,470.09,461.39
153.04774,469.61,461.44
153.06753,469.11,467.24
153.08664,472.06,472.68
153.10766,470.86,474.64
153.12705,469.72,475.70
153.14666,472.12,479.44
153.16673,471.72,479.06
153.18669,475.21,481.09
153.20699,475.14,484.35
153.22608,476.87,485.81
153.24794,476.82,485.47
153.26701,474.83,490.40
153.28639,472.56,488.15
153.30657,476.23,487.89
153.32621,474.98,492.07
153.34750,473.05,493.07
153.36649,474.83,492.83
153.38734,476.25,493.43
153.40720,475.12,496.42
153.42700,476.67,494.10
153.44683,474.32,495.98
153.46785,476.00,496.76
153.48729,476.76,497.10
153.50678,475.05,495.68
153.52698,476.66,497.51
153.54800,475.44,500.33
153.56712,476.12,498.02
153.58667,474.15,499.97
153.60730,473.16,498.15
153.62712,473.67,499.45
153.64775,475.11,500.53
153.66649,474.15,499.85
153.68783,475.16,500.45
153.70695,476.20,501.90
153.72773,477.10,503.78
153.74640,473.25,503.36
153.76651,474.03,503.28
153.78781,474.44,503.77
153.80686,474.81,504.60
153.82716,475.76,500.81
153.84606,475.94,502.05
153.86683,476.86,501.95
153.88706,474.85,504.18
153.90733,475.56,504.28
153.92745,474.56,501.36
153.94752,477.09,504.46
153.96637,475.75,505.77
153.98713,476.29,504.84
154.00795,477.81,503.88
154.02701,481.07,507.25
154.04778,477.13,506.74
154.06680,478.30,504.44
154.08727,475.67,501.77
154.10659,477.89,501.01
154.12684,477.61,502.45
154.14604,474.80,503.33
154.16625,473.02,504.06
154.18627,474.57,505.51
154.20777,476.82,503.07
154.22795,474.54,504.50
154.24629,473.30,505.66
154.26692,477.33,502.14
154.28725,476.54,504.61
154.30781,472.86,502.42
154.32710,475.98,504.20
154.34746,472.16,503.61
154.36630,472.73,505.64
154.38687,471.80,506.60
154.40667,470.29,503.52
154.42746,470.87,502.43
154.44793,470.93,502.70
154.46884,470.16,500.47
154.48878,469.71,500.09
154.50871,470.24,503.18
154.52795,469.85,501.26
154.54808,468.26,502.26
154.56729,467.76,503.47
154.58781,466.81,501.39
154.60776,469.30,502.83
154.62814,468.62,501.06
154.64736,467.23,502.97
154.66857,469.15,499.75
154.68795,467.12,500.28
154.70810,470.92,499.41
154.72809,468.70,503.80
154.74785,470.47,503.28
154.76792,469.83,502.98
154.78748,468.46,501.51
154.80856,468.17,504.61
154.82887,468.86,502.25
154.84887,469.84,503.40
154.86873,468.20,505.25
154.88827,468.56,506.35
154.90832,467.77,506.92
154.92890,466.11,507.76
154.94855,469.89,507.93
154.96775,467.17,504.66
154.98731,469.15,503.79
155.00820,470.52,503.10
155.02767,467.71,501.18
155.04754,467.39,503.57
155.06777,466.72,500.42
155.08859,467.60,500.17
155.10897,468.89,502.08
155.12818,467.33,500.04
155.14779,467.80,501.03
155.16896,469.21,500.98
155.18782,471.18,500.82
155.20764,468.46,503.98
155.22834,467.57,503.16
155.24827,468.23,501.90
155.26795,467.24,503.31
155.28894,467.44,503.62
155.30754,469.54,505.57
155.32856,469.63,503.79
155.34849,468.93,503.74
155.36764,469.75,505.27
155.38767,468.05,503.15
155.40867,469.43,504.92
155.42864,468.51,506.56
155.44714,467.48,503.31
155.46846,468.15,501.14
155.48861,466.71,501.03
155.50767,468.00,497.99
155.52743,468.76,500.10
155.54822,470.07,496.83
155.56879,469.48,496.76
155.58706,467.00,497.83
155.60711,466.87,495.63
155.62845,467.53,498.71
155.64840,466.84,514.42
155.66756,470.09,530.26
155.68715,468.81,552.10
155.70721,468.99,571.04
155.72806,470.13,581.07
155.74740,469.64,588.70
155.76716,468.83,592.04
155.78812,470.23,584.88
155.80796,469.43,582.73
155.82725,469.26,575.66
155.84772,468.95,570.34
155.86787,471.22,566.17
155.88708,468.72,559.14
155.90779,468.76,553.53
155.92889,469.37,544.75
155.94706,466.19,539.12
155.96831,466.91,536.54
155.98865,468.21,536.54
156.00875,465.15,532.79
156.02736,467.09,529.51
156.04816,466.16,525.92
156.06882,467.06,523.35
156.08754,467.27,520.68
156.10712,464.12,518.39
156.12850,464.53,519.12
156.14749,464.10,513.26
156.16842,464.88,514.82
156.18892,467.40,511.64
156.20711,467.87,509.47
156.22845,465.74,507.64
156.24845,465.06,509.53
156.26766,465.16,507.77
156.28852,466.60,508.00
156.30843,465.57,506.00
156.32707,463.85,504.34
156.34887,462.72,504.08
156.36738,462.63,504.22
156.38821,462.99,501.96
156.40747,465.48,501.68
156.42754,466.76,502.70
156.44706,464.20,504.25
156.46721,463.76,505.23
156.48801,463.57,506.55
156.50881,463.64,511.97
156.52877,461.04,507.55
156.54789,460.97,487.12
156.56817,459.92,460.23
156.58888,455.91,431.80
156.60801,452.56,420.25
156.62849,451.38,414.71
156.64776,451.75,412.86
156.66807,452.94,412.75
156.68882,455.32,416.48
156.70757,455.44,423.20
156.72790,454.56,428.13
156.74706,456.01,436.40
156.76809,457.82,441.97
156.78822,461.20,446.85
156.80812,459.62,450.02
156.82751,460.34,455.42
156.84884,462.20,462.10
156.86753,463.74,465.17
156.88842,465.34,470.86
156.90853,465.30,475.52
156.92818,467.38,478.34
156.94724,466.06,480.77
156.96842,466.67,486.44
156.98852,463.96,488.77
157.00891,463.93,488.94
157.02703,465.92,489.55
157.04848,462.24,490.68
157.06723,466.38,495.93
157.08743,463.43,494.44
157.10838,465.71,493.54
157.12704,464.65,496.98
157.14742,465.64,495.44
157.16700,466.51,497.86
157.18725,465.74,498.66
157.20874,465.11,498.22
157.22765,464.05,499.99
157.24870,464.85,499.38
157.26781,465.06,497.83
157.28741,462.36,499.23
157.30789,462.75,499.60
157.32768,462.35,498.62
157.34766,459.34,499.44
157.36846,459.35,499.45
157.38883,460.74,499.00
157.40864,459.06,495.72
157.42769,461.48,496.13
157.44852,459.45,496.98
157.46745,459.65,498.47
157.48862,459.53,502.71
157.50761,459.78,501.36
157.52828,461.30,504.04
157.54773,459.26,502.35
157.56848,459.94,502.18
157.58842,462.11,500.19
157.60702,460.61,500.26
157.62835,462.69,499.87
157.64735,460.12,500.38
157.66749,461.05,499.33
157.68834,460.86,500.34
157.70792,461.30,500.95
157.72892,462.17,501.43
157.74833,460.71,504.94
157.76874,459.48,500.94
157.78796,458.46,503.26
157.80837,461.02,503.27
157.82855,458.24,503.32
157.84843,461.12,502.25
157.86890,457.73,502.61
157.88787,457.65,501.15
157.90820,461.70,500.85
157.92849,458.17,501.69
157.94852,459.20,501.46
157.96858,461.06,502.05
157.98724,460.92,500.20
158.00802,460.88,501.83
158.02853,458.94,499.73
158.04888,459.23,502.99
158.06859,458.38,502.35
158.08745,460.82,501.85
158.10703,458.14,499.58
158.12782,457.86,499.17
158.14707,457.78,498.68
158.16845,458.00,498.45
158.18893,457.62,498.47
158.20870,459.10,499.68
158.22746,460.57,499.80
158.24810,458.27,498.26
158.26710,456.34,496.59
158.28736,457.36,497.43
158.30815,458.35,497.37
158.32731,455.83,498.94
158.34824,456.13,497.32
158.36773,456.65,497.99
158.38890,460.85,498.88
158.40818,457.79,496.47
158.42826,458.17,495.00
158.44703,457.98,495.60
158.46771,458.61,497.11
158.48794,456.25,495.31
158.50828,456.98,494.47
158.52834,458.19,497.54
158.54896,459.21,494.98
158.56854,459.89,494.70
158.58874,458.48,498.08
158.60815,458.78,494.85
158.62864,459.74,497.47
158.64708,458.38,497.59
158.66733,457.26,497.58
158.68847,457.21,497.12
158.70757,455.55,499.02
158.72700,456.55,498.55
158.74706,456.12,497.97
158.76730,454.85,499.90
158.78727,456.83,498.60
158.80778,454.83,500.82
158.82824,458.17,498.83
158.84873,459.01,498.96
158.86721,456.39,498.94
158.88848,459.03,498.86
158.90750,458.70,500.85
158.92806,456.88,497.69
158.94838,456.68,497.30
158.96764,454.13,499.71
158.98700,456.14,498.01
159.00890,454.51,499.24
159.02854,455.15,499.99
159.04706,456.87,498.85
159.06897,457.92,497.49
159.08782,455.07,498.64
159.10866,454.23,494.55
159.12756,457.61,497.67
159.14893,456.68,507.37
159.16781,456.09,522.45
159.18717,454.75,540.99
159.20769,457.20,561.22
159.22777,459.07,572.12
159.24787,458.35,576.66
159.26899,457.18,581.36
159.28781,457.71,580.82
159.30890,458.49,586.55
159.32767,458.90,591.24
159.34727,457.47,589.89
159.36850,456.45,586.98
159.38727,457.70,577.56
159.40791,456.80,577.00
159.42728,458.50,568.06
159.44701,458.79,563.55
159.46828,460.30,561.12
159.48709,457.10,553.98
159.50759,459.57,546.13
159.52848,457.76,539.05
159.54785,459.45,535.81
159.56790,457.31,528.55
159.58751,460.54,524.91
159.60801,460.27,518.93
159.62895,459.47,518.03
159.64759,459.57,513.20
159.66829,459.01,516.91
159.68801,461.47,512.40
159.70705,459.93,510.39
159.72804,460.71,510.50
159.74859,458.74,503.04
159.76892,457.73,502.12
159.78825,456.69,504.80
159.80942,456.87,500.14
159.82916,458.17,503.83
159.84830,459.26,499.16
159.86997,455.16,502.16
159.88842,456.80,500.15
159.90995,455.64,498.37
159.92815,455.18,497.37
159.94886,455.36,497.46
159.97013,455.06,499.37
159.99007,453.54,499.99
160.01022,456.04,502.59
160.02968,454.18,496.83
160.04914,452.55,481.85
160.06908,453.18,454.01
160.08951,455.25,430.60
160.10981,453.32,409.66
160.13047,456.30,399.34
160.14987,453.08,398.56
160.17000,454.15,399.21
160.18981,452.16,402.16
160.21030,452.53,405.57
160.23051,451.54,411.02
160.25026,453.05,419.16
160.26933,452.67,426.79
160.28963,453.72,434.35
160.30932,453.46,439.96
160.32953,450.90,443.29
160.35028,452.01,452.89
160.37092,449.81,456.37
160.38916,453.06,459.80
160.41097,450.03,465.26
160.42998,453.63,467.76
160.44906,451.89,468.44
160.47020,453.75,471.81
160.48917,452.29,473.11
160.51035,455.09,476.28
160.52949,452.03,480.63
160.55038,452.63,480.24
160.57072,454.23,483.83
160.59090,454.35,482.27
160.61055,454.13,484.64
160.62936,453.06,486.30
160.64913,454.05,486.35
160.67021,453.87,488.88
160.68962,453.62,491.16
160.71019,453.59,488.97
160.73043,456.38,491.37
160.75043,454.97,489.86
160.76992,457.87,492.10
160.79049,455.90,491.96
160.80914,457.79,494.30
160.83053,457.42,492.46
160.85054,455.23,495.00
160.87045,457.04,493.15
160.89023,455.40,495.48
160.90924,456.13,491.71
160.92980,456.22,492.50
160.94927,455.74,493.06
160.96912,453.87,495.31
160.98937,456.56,493.13
161.00922,455.49,494.75
161.02937,456.51,495.50
161.05096,454.20,494.75
161.07058,454.37,495.20
161.08972,457.22,494.70
161.10959,454.32,496.07
161.12956,456.78,494.44
161.14976,456.87,495.12
161.16980,455.65,494.89
161.19033,457.49,492.74
161.21003,455.99,492.66
161.23049,455.20,492.10
161.24918,456.60,495.36
161.26930,454.09,492.61
161.29077,455.90,494.28
161.31003,457.03,495.40
161.32911,456.37,496.42
161.35014,455.14,495.15
161.36926,454.15,494.73
161.39087,454.14,493.39
161.41053,457.14,492.94
161.43078,457.20,489.52
161.45054,455.38,494.66
161.46953,453.46,493.27
161.49069,456.32,491.07
161.50977,458.17,495.15
161.52922,456.15,494.71
161.54966,457.18,494.39
161.57021,458.83,494.50
161.58901,458.07,494.65
161.61005,459.37,495.40
161.63043,459.41,497.17
161.64962,456.90,494.09
161.67022,456.76,495.89
161.68937,460.18,494.21
161.70986,458.08,493.78
161.72907,457.46,493.26
161.75056,457.56,495.15
161.76924,458.74,492.21
161.79084,459.41,493.86
161.80913,458.71,494.90
161.83040,459.64,493.03
161.85033,458.12,495.80
161.86913,457.18,495.26
161.88928,456.77,496.07
161.90913,456.76,493.86
161.93088,455.91,495.72
161.94960,457.41,494.48
161.96978,458.01,496.37
161.98974,458.82,494.82
162.01041,456.82,493.88
162.03099,459.08,497.55
162.05034,459.49,496.05
162.06968,458.33,497.27
162.09043,459.16,495.33
162.11041,458.00,497.34
162.12908,458.76,494.82
162.14971,460.55,497.63
162.16980,459.82,495.80
162.19091,460.96,493.52
162.20978,460.21,494.43
162.23092,458.88,496.69
162.24946,459.03,493.16
162.26928,459.12,493.88
162.28944,460.73,493.67
162.30985,458.32,495.58
162.32998,461.02,494.08
162.35090,460.50,496.27
162.36999,459.05,495.80
162.38987,459.44,495.58
162.41038,457.90,495.37
162.43058,458.47,492.88
162.45019,459.80,494.05
162.46942,459.51,493.15
162.48925,459.46,492.18
162.50903,460.08,492.93
162.53078,456.92,492.32
162.54933,458.22,491.85
162.56922,457.39,492.70
162.59027,457.43,491.97
162.61030,460.08,492.83
162.62966,458.24,492.43
162.65145,459.12,493.31
162.67200,457.77,493.42
162.69117,458.09,492.34
162.71181,459.77,494.30
162.73134,459.22,494.44
162.75098,460.98,493.70
162.77090,463.87,495.79
162.79031,461.05,492.67
162.81101,464.05,494.32
162.83180,461.34,493.06
162.85138,465.17,494.45
162.87169,465.46,491.35
162.89086,464.36,494.41
162.91064,464.77,493.27
162.93010,466.15,493.83
162.95163,462.87,493.30
162.97074,465.77,494.52
162.99135,464.47,496.72
163.01113,465.37,494.66
163.03089,462.33,493.25
163.05058,465.46,493.21
163.07177,465.78,493.16
163.09027,466.36,503.50
163.11038,466.33,524.83
163.13073,466.86,552.77
163.15117,468.12,573.16
163.17076,472.67,585.98
163.19151,473.05,590.88
163.21030,470.90,593.31
163.23030,474.82,589.37
163.25040,471.81,583.95
163.27081,471.11,579.19
163.29027,469.62,569.05
163.31118,468.18,562.99
163.33067,468.50,551.12
163.35078,468.58,546.99
163.37058,466.83,540.89
163.39025,466.87,536.97
163.41199,465.99,531.51
163.43176,469.01,526.72
163.45133,465.45,526.02
163.47193,468.98,522.43
163.49133,465.14,519.96
163.51180,463.74,515.72
163.53125,464.58,516.08
163.55085,464.50,512.33
163.57070,464.48,512.71
163.59167,465.29,512.40
163.61174,466.14,510.69
163.63098,464.80,508.93
163.65114,468.04,508.44
163.67023,466.92,506.29
163.69194,467.54,508.21
163.71167,470.43,507.31
163.73041,468.62,505.60
163.75031,468.33,505.25
163.77173,468.73,507.06
163.79027,468.43,504.24
163.81162,469.62,505.02
163.83050,468.60,506.03
163.85198,466.87,502.60
163.87192,466.41,501.73
163.89184,467.26,502.88
163.91130,465.28,504.63
163.93030,467.61,502.98
163.95137,468.25,502.16
163.97172,471.61,499.55
163.99102,467.56,502.62
164.01038,470.84,499.31
164.03071,467.20,498.58
164.05096,466.52,503.67
164.07118,469.39,507.06
164.09183,473.50,507.20
164.11017,471.05,492.07
164.13081,470.43,464.42
164.15093,470.59,441.05
164.17085,469.38,418.52
164.19012,471.26,411.58
164.21132,468.20,407.21
164.23117,469.00,406.65
164.25033,466.82,408.34
164.27093,468.26,413.88
164.29138,465.87,419.16
164.31011,465.37,427.09
164.33036,466.20,432.93
164.35062,466.42,439.36
164.37183,467.57,445.27
164.39016,467.18,450.89
164.41135,468.78,456.70
164.43045,467.82,460.77
164.45182,467.92,468.50
164.47112,466.48,469.34
164.49054,467.58,476.70
164.51003,467.66,477.41
164.53127,467.02,479.06
164.55007,469.96,482.73
164.57067,471.95,487.14
164.59120,470.82,487.81
164.61043,473.25,488.62
164.63132,470.11,492.22
164.65082,470.06,490.74
164.67023,472.96,493.81
164.69000,472.40,494.76
164.71011,470.09,495.87
164.73180,470.72,494.08
164.75025,470.20,496.67
164.77048,472.97,495.78
164.79170,469.89,497.57
164.81024,470.49,494.74
164.83159,469.48,497.29
164.85009,470.05,498.14
164.87175,472.37,495.88
164.89013,470.33,497.22
164.91163,468.96,496.83
164.93069,468.66,496.24
164.95094,469.98,498.57
164.97023,471.24,497.57
164.99081,471.34,498.51
165.01108,472.36,496.07
165.03180,469.44,500.22
165.05128,470.14,495.88
165.07051,470.97,497.01
165.09138,472.53,499.38
165.11142,470.34,497.35
165.13168,469.98,500.15
165.15073,471.86,500.61
165.17077,473.22,502.35
165.19012,472.90,501.76
165.21067,472.93,503.53
165.23108,472.57,502.51
165.25171,471.11,504.76
165.27021,470.34,501.79
165.29116,470.63,501.59
165.31004,471.45,502.16
165.33043,471.74,500.94
165.35027,471.19,502.16
165.37071,470.30,503.86
165.39100,471.96,503.33
165.41115,471.31,502.92
165.43023,470.75,500.73
165.45092,473.27,501.90
165.47047,471.02,499.80
165.49045,473.19,502.52
165.50905,472.61,500.50
165.52998,471.15,498.75
165.55064,469.76,501.66
165.57003,469.22,501.09
165.59197,471.52,500.09
165.61087,472.80,498.38
165.63044,471.37,498.50
165.65149,473.99,499.28
165.67026,473.26,496.65
165.69190,473.74,496.05
165.70919,472.08,496.45
165.73129,472.51,495.64
165.75124,471.65,496.15
165.77088,472.87,495.30
165.79040,472.63,497.27
165.81099,475.02,497.14
165.83049,475.45,499.70
165.85014,474.76,500.70
165.87150,475.37,506.15
165.89039,474.36,509.64
165.91078,477.28,511.61
165.93005,476.96,510.19
165.95062,476.58,510.83
165.97039,472.55,512.70
165.99008,475.06,512.73
166.01265,475.12,510.28
166.03160,474.33,507.77
166.05274,474.11,506.46
166.07005,475.15,506.23
166.09240,475.15,507.47
166.11242,473.47,507.55
166.13172,476.69,504.46
166.15267,476.41,504.03
166.17191,479.31,504.59
166.19225,477.00,506.18
166.21223,476.85,503.15
166.23140,477.53,501.43
166.25169,475.53,504.37
166.27203,475.58,500.71
166.29222,474.54,501.63
166.31239,477.05,501.18
166.33151,476.62,502.86
166.35215,478.48,501.23
166.37120,478.14,502.24
166.39279,479.95,503.19
166.41363,480.83,503.97
166.43357,477.94,504.73
166.45301,481.87,505.10
166.47311,480.53,503.17
166.49212,482.35,504.94
166.51317,484.48,501.17
166.53347,482.04,503.31
166.55287,481.63,502.46
166.57313,478.86,507.08
166.59310,480.10,508.93
166.61273,478.62,506.91
166.63249,480.54,510.78
166.65212,480.66,508.90
166.67351,480.00,509.77
166.69285,480.17,508.11
166.71124,481.03,510.70
166.73251,477.52,509.12
166.75325,480.58,509.69
166.77259,477.16,506.85
166.79265,478.34,508.02
166.81355,478.30,506.45
166.83323,481.31,506.94
166.85327,477.75,507.69
166.87318,479.82,505.67
166.89224,478.68,503.36
166.91219,478.43,503.81
166.93375,481.23,501.69
166.95396,477.92,500.39
166.97203,480.60,507.36
166.99258,480.64,520.36
167.01277,481.09,542.89
167.03235,478.20,561.94
167.05315,480.55,578.85
167.07351,481.34,585.47
167.09246,478.98,585.99
167.11203,480.26,583.40
167.13300,478.76,581.11
167.15390,478.32,579.68
167.17248,483.47,571.51
167.19149,483.82,564.61
167.21201,479.98,556.38
167.23480,481.92,548.23
167.25450,482.55,539.47
167.27485,484.58,535.22
167.29413,484.80,531.74
167.31390,484.33,525.68
167.33365,481.41,525.34
167.35478,482.60,522.90
167.37379,482.18,521.25
167.39469,479.00,522.47
167.41339,480.03,518.11
167.43361,478.27,518.84
167.45409,482.64,517.72
167.47301,479.84,517.89
167.49302,480.99,513.39
167.51327,480.62,508.47
167.53409,484.30,511.55
167.55421,483.12,509.18
167.57442,482.40,505.61
167.59417,483.73,509.34
167.61469,484.52,505.90
167.63347,479.92,510.51
167.65479,481.23,511.16
167.67364,480.51,510.04
167.69361,480.16,509.89
167.71433,479.15,508.78
167.73452,477.20,509.63
167.75362,477.23,507.60
167.77382,476.96,504.66
167.79394,478.91,508.59
167.81469,477.21,507.18
167.83443,477.93,507.14
167.85417,478.14,509.47
167.87441,481.62,504.88
167.89363,480.45,490.22
167.91326,479.72,464.99
167.93379,480.21,442.82
167.95372,475.63,427.48
167.97444,475.84,425.78
167.99448,474.01,422.13
168.01256,474.39,425.76
168.03367,473.15,427.27
168.05459,475.10,434.93
168.07453,475.87,441.00
168.09301,475.82,446.16
168.11444,477.54,453.95
168.13396,477.18,459.43
168.15382,478.49,463.16
168.17298,479.30,467.86
168.19379,479.19,470.23
168.21320,480.11,477.31
168.23392,478.98,481.26
168.25371,480.56,483.55
168.27330,480.09,485.56
168.29458,478.16,485.66
168.31359,477.65,491.80
168.33462,477.74,493.16
168.35399,477.91,496.01
168.37312,481.20,499.63
168.39236,481.38,502.00
168.41404,481.29,499.57
168.43385,480.81,501.40
168.45356,479.21,501.61
168.47462,479.84,502.05
168.49377,480.80,503.75
168.51382,482.81,503.32
168.53314,480.28,504.17
168.55327,480.23,503.75
168.57298,478.41,501.52
168.59404,479.13,501.70
168.61349,479.06,502.36
168.63366,480.11,504.61
168.65342,480.94,502.44
168.67264,480.35,504.03
168.69215,481.76,503.30
168.71394,480.89,501.67
168.73385,480.80,503.08
168.75350,477.71,503.33
168.77236,477.49,500.92
168.79500,478.85,503.59
168.81352,477.42,502.98
168.83482,475.37,500.96
168.85396,478.34,501.79
168.87472,476.56,503.24
168.89386,476.67,503.17
168.91428,479.17,502.20
168.93318,479.34,504.90
168.95305,476.16,501.63
168.97321,478.91,501.16
168.99386,480.96,503.18
169.01409,479.46,500.35
169.03410,478.57,504.22
169.05313,479.11,504.68
169.07309,480.94,503.88
169.09354,477.99,502.99
169.11371,478.33,508.13
169.13321,480.04,506.67
169.15409,479.33,506.35
169.17326,478.98,506.82
169.19403,481.78,506.70
169.21334,479.40,506.17
169.23397,477.76,504.21
169.25478,477.08,506.31
169.27259,478.32,507.40
169.29418,475.85,508.88
169.31438,477.59,508.29
169.33459,477.56,507.53
169.35360,477.64,505.64
169.37253,478.22,505.13
169.39372,475.49,506.06
169.41490,475.20,504.44
169.43436,476.27,506.70
169.45325,476.36,506.38
169.47378,474.34,508.83
169.49218,478.80,515.95
169.51319,480.81,529.51
169.53391,489.59,548.87
169.55320,496.81,570.74
169.57425,502.53,593.70
169.59343,509.38,611.08
169.61308,510.33,626.29
169.63415,513.82,637.59
169.65219,513.76,639.73
169.67307,515.54,641.83
169.69364,513.38,637.59
169.71395,507.84,629.79
169.73376,501.31,623.76
169.75326,496.99,601.40
169.77237,482.12,561.27
169.79375,464.40,517.12
169.81479,447.14,471.61
169.83415,436.57,430.97
169.85347,426.64,403.54
169.87389,422.79,388.82
169.89373,426.00,377.07
169.91278,425.99,377.21
169.93288,428.84,376.68
169.95377,436.14,384.78
169.97334,440.50,390.74
169.99414,444.32,395.90
170.01448,444.37,404.34
170.03308,448.78,416.79
170.05353,456.23,429.37
170.07257,459.03,442.21
170.09348,461.84,469.38
170.11416,472.57,509.82
170.13320,488.18,546.00
170.15489,508.05,564.12
170.17349,525.02,571.28
170.19310,541.99,567.88
170.21479,553.00,563.68
170.23497,563.33,565.70
170.25454,573.04,581.87
170.27395,579.46,596.58
170.29254,582.54,610.86
170.31476,580.08,622.83
170.33592,576.48,634.40
170.35506,566.91,639.29
170.37683,559.33,645.60
170.39555,549.14,646.39
170.41544,537.95,645.44
170.43666,531.44,639.97
170.45540,521.10,639.80
170.47541,510.48,631.71
170.49551,501.13,629.40
170.51465,495.08,624.91
170.53500,487.35,620.16
170.55504,481.64,613.64
170.57680,477.38,609.50
170.59527,475.01,603.07
170.61414,469.02,599.28
170.63534,467.76,592.09
170.65652,463.71,587.21
170.67611,462.50,581.85
