Program Time [s],data 0,data 1
222.17414,460.43,506.92
222.19564,463.63,524.45
222.21585,467.10,551.02
222.23537,472.44,576.67
222.25504,476.14,587.84
222.27582,478.39,589.99
222.29446,478.38,583.67
222.31570,482.20,574.11
222.33570,481.40,554.45
222.35471,481.01,538.10
222.37415,478.25,516.95
222.39520,475.89,504.66
222.41550,474.64,491.45
222.43481,475.14,480.10
222.45485,470.95,472.64
222.47422,469.32,463.68
222.49597,468.48,460.19
222.51653,461.17,439.87
222.53540,452.72,420.04
222.55628,449.13,412.10
222.57655,447.14,407.91
222.59653,448.86,409.08
222.61651,447.53,410.50
222.63513,449.30,414.52
222.65609,448.38,421.19
222.67633,450.63,425.60
222.69657,450.19,431.19
222.71582,456.72,439.24
222.73657,457.69,442.91
222.75623,459.29,451.67
222.77582,460.70,455.57
222.79548,463.07,459.94
222.81751,460.90,461.27
222.83633,464.69,464.03
222.85781,461.67,465.76
222.87724,465.52,470.72
222.89659,465.67,471.65
222.91749,463.40,472.07
222.93644,465.61,473.73
222.95736,466.06,473.53
222.97628,468.20,475.89
222.99641,467.90,477.49
223.01718,468.60,475.59
223.03754,467.90,478.37
223.05629,467.19,477.24
223.07694,469.68,479.65
223.09739,468.54,479.03
223.11903,466.22,481.67
223.13920,467.87,479.47
223.15916,465.00,478.57
223.17853,463.74,480.39
223.19904,466.16,479.29
223.21933,464.53,479.95
223.23969,462.32,478.25
223.25915,460.89,479.02
223.28158,459.33,480.82
223.30052,459.27,480.19
223.32036,456.84,478.78
223.34178,456.42,479.06
223.36071,454.19,480.06
223.38004,453.48,479.45
223.40006,454.82,477.76
223.42104,452.58,480.15
223.44001,454.81,477.47
223.46193,454.88,480.62
223.48175,454.88,478.91
223.50154,452.84,480.27
223.52117,455.33,479.03
223.54059,456.20,478.65
223.56233,453.35,481.00
223.58175,453.44,493.36
223.60154,455.16,521.62
223.62174,455.89,549.81
223.64268,457.19,574.15
223.66350,454.14,582.21
223.68378,453.52,585.47
223.70430,448.77,581.18
223.72463,450.45,572.76
223.74330,446.87,566.87
223.76392,445.49,558.29
223.78428,443.88,546.55
223.80315,446.33,539.11
223.82355,443.65,530.98
223.84350,445.55,524.86
223.86332,445.08,518.73
223.88422,443.21,514.41
223.90487,443.79,509.86
223.92478,448.49,504.15
223.94465,446.88,503.97
223.96359,450.59,498.16
223.98444,448.55,495.38
224.00416,450.29,495.31
224.02424,449.24,488.86
224.04595,450.33,488.04
224.06457,450.79,484.53
224.08325,451.23,483.79
224.10426,448.99,482.90
224.12470,448.32,479.63
224.14484,450.70,481.55
224.16420,447.59,478.51
224.18445,449.11,479.11
224.20370,450.22,481.18
224.22427,449.28,480.57
224.24457,448.24,481.20
224.26391,445.48,479.96
224.28311,444.23,477.79
224.30353,445.79,479.03
224.32410,444.35,478.54
224.34368,444.74,477.99
224.36319,444.70,476.39
224.38360,442.75,478.68
224.40345,443.49,477.82
224.42315,445.38,480.14
224.44489,444.17,481.23
224.46458,444.42,481.68
224.48309,447.14,488.12
224.50428,447.61,491.11
224.52311,446.73,493.93
224.54434,446.58,486.17
224.56463,445.47,458.43
224.58389,446.14,424.28
224.60371,442.27,395.12
224.62477,437.37,375.35
224.64391,437.98,367.29
224.66442,437.59,362.35
224.68436,434.99,362.48
224.70451,438.09,368.34
224.72404,438.50,371.79
224.74335,437.58,376.58
224.76382,438.15,386.12
224.78491,439.23,396.52
224.80472,438.13,402.15
224.82355,442.49,415.03
224.84322,442.43,425.38
224.86414,443.75,433.34
224.88466,442.05,441.95
224.90408,443.37,446.99
224.92411,445.45,448.31
224.94465,443.42,455.22
224.96336,446.22,454.55
224.98371,445.62,460.69
225.00413,447.90,461.02
225.02429,445.39,465.78
225.04462,448.50,468.23
225.06419,445.23,469.84
225.08354,445.26,470.48
225.10341,449.06,475.88
225.12346,446.43,475.77
225.14454,447.52,475.07
225.16312,450.48,476.29
225.18329,448.72,478.72
225.20341,447.60,477.08
225.22399,445.08,477.19
225.24460,446.01,474.51
225.26324,447.97,476.40
225.28411,447.40,475.22
225.30322,445.79,475.09
225.32393,447.55,472.32
225.34481,446.54,472.82
225.36350,445.61,475.37
225.38365,443.02,473.68
225.40388,443.54,474.04
225.42412,445.58,472.11
225.44321,447.71,475.12
225.46480,443.88,474.10
225.48493,443.42,471.11
225.50473,443.00,471.49
225.52487,442.91,471.73
225.54467,441.41,476.28
225.56423,444.48,473.30
225.58396,445.85,480.11
225.60348,446.99,480.85
225.62340,446.39,481.22
225.64350,446.73,481.07
225.66330,444.27,481.32
225.68322,444.04,481.40
225.70351,443.92,482.64
225.72452,445.94,479.57
225.74446,446.39,481.32
225.76302,446.09,480.66
225.78360,445.00,479.88
225.80366,443.28,476.71
225.82451,444.31,474.91
225.84363,447.06,477.71
225.86438,444.22,478.35
225.88468,444.25,477.10
225.90340,446.78,478.17
225.92377,446.97,478.08
225.94366,447.78,475.31
225.96382,446.56,476.86
225.98389,448.90,477.07
226.00347,448.47,476.36
226.02489,447.89,476.51
226.04463,448.81,473.74
226.06371,449.31,475.65
226.08430,447.13,475.77
226.10310,446.32,475.65
226.12496,449.31,470.88
226.14483,448.09,470.36
226.16448,448.42,470.85
226.18441,447.21,470.27
226.20559,446.73,472.12
226.22533,448.01,473.59
226.24564,447.84,474.59
226.26438,448.68,476.08
226.28529,450.79,475.55
226.30429,447.41,475.86
226.32482,447.04,475.47
226.34414,447.45,473.58
226.36596,446.41,475.20
226.38429,445.91,472.49
226.40516,445.21,473.78
226.42563,443.32,473.24
226.44593,444.02,473.66
226.46570,440.13,473.19
226.48512,440.60,474.07
226.50419,441.74,473.55
226.52428,442.35,472.69
226.54426,442.81,475.20
226.56521,440.65,477.61
226.58586,442.24,477.92
226.60551,441.35,477.63
226.62578,439.60,475.53
226.64428,439.20,473.90
226.66542,441.81,470.90
226.68485,440.91,471.90
226.70566,442.26,473.39
226.72567,441.26,471.31
226.74416,443.13,471.46
226.76421,441.67,470.61
226.78501,439.77,472.77
226.80515,441.13,471.82
226.82505,439.86,473.86
226.84451,440.23,471.44
226.86400,439.96,472.67
226.88542,441.14,475.68
226.90579,441.49,472.94
226.92582,440.37,475.91
226.94413,443.46,476.01
226.96533,443.69,475.09
226.98434,443.62,476.91
227.00511,444.47,476.59
227.02545,445.02,475.63
227.04462,443.94,477.85
227.06447,444.09,477.45
227.08477,442.22,474.75
227.10491,441.80,477.68
227.12547,440.28,474.25
227.14584,442.87,475.47
227.16442,442.64,474.20
227.18430,443.35,475.57
227.20592,444.12,473.98
227.22410,444.39,476.31
227.24441,445.32,477.51
227.26440,441.77,475.20
227.28422,442.30,472.95
227.30476,445.95,475.75
227.32567,442.20,476.78
227.34574,444.70,494.77
227.36460,448.47,525.29
227.38585,450.23,553.44
227.40567,452.33,584.44
227.42446,453.68,603.47
227.44563,451.57,605.69
227.46570,450.73,597.41
227.48623,448.93,585.71
227.50601,445.79,575.04
227.52668,447.89,562.33
227.54526,446.55,551.81
227.56530,445.60,542.00
227.58582,444.95,528.44
227.60661,444.85,524.81
227.62658,447.32,516.42
227.64699,448.59,513.20
227.66666,448.38,509.08
227.68680,444.46,500.45
227.70559,443.20,498.06
227.72632,446.13,495.28
227.74580,443.00,492.38
227.76658,446.67,497.22
227.78615,446.48,488.88
227.80538,443.80,489.48
227.82578,444.88,490.64
227.84698,446.10,494.90
227.86577,447.93,492.16
227.88546,447.13,494.25
227.90678,447.87,494.39
227.92567,444.18,491.95
227.94570,444.28,492.03
227.96621,443.54,492.76
227.98641,444.20,488.68
228.00665,445.35,483.12
228.02562,445.86,486.16
228.04530,444.19,480.43
228.06685,444.96,480.38
228.08691,446.05,480.07
228.10678,443.65,481.06
228.12753,441.60,483.83
228.14612,443.35,483.17
228.16788,444.56,486.08
228.18657,445.18,485.23
228.20661,445.60,480.00
228.22612,448.24,479.09
228.24746,447.80,482.87
228.26645,447.15,492.27
228.28708,451.75,511.08
228.30767,451.90,527.85
228.32694,451.78,532.88
228.34760,452.08,525.93
228.36767,448.91,501.91
228.38666,446.70,468.02
228.40702,443.87,429.57
228.42766,440.11,396.81
228.44822,438.83,373.41
228.46847,440.10,361.11
228.48718,438.25,351.23
228.50759,438.03,347.44
228.52868,439.05,350.53
228.54875,438.20,355.37
228.56834,439.71,358.65
228.58724,440.77,366.91
228.60751,444.25,376.11
228.62814,445.02,383.26
228.64750,444.31,396.52
228.66862,447.52,409.37
228.68719,445.96,419.59
228.70814,446.42,425.52
228.72859,447.14,435.32
228.74890,448.35,438.39
228.76723,452.30,446.20
228.78893,450.97,447.33
228.80881,449.85,451.73
228.82752,452.79,452.98
228.84775,453.14,457.69
228.86888,453.77,457.98
228.88900,456.47,460.89
228.90912,454.25,462.18
228.92986,454.36,462.58
228.94990,455.83,464.92
228.97096,453.40,465.56
228.99097,456.18,468.61
229.01271,457.44,468.36
229.03207,458.48,468.91
229.05285,460.02,468.94
229.07139,461.37,469.84
229.09208,462.13,472.48
229.11224,462.93,474.49
229.13192,463.94,474.02
229.15200,461.88,476.09
229.17210,463.14,476.37
229.19375,464.25,475.28
229.21270,464.37,474.13
229.23390,463.59,473.31
229.25326,465.33,475.82
229.27340,466.86,476.94
229.29216,464.24,478.27
229.31287,463.88,479.95
229.33211,465.30,477.36
229.35299,465.61,477.95
229.37394,464.14,477.57
229.39250,466.24,475.54
229.41353,466.56,478.16
229.43308,468.13,476.56
229.45230,466.17,477.93
229.47347,468.00,474.20
229.49385,464.01,476.28
229.51298,464.47,475.17
229.53320,465.65,475.05
229.55394,465.07,475.15
229.57207,464.52,478.00
229.59213,465.50,478.57
229.61329,464.09,479.74
229.63255,464.82,477.26
229.65302,465.90,481.97
229.67263,467.26,479.09
229.69294,467.86,480.82
229.71222,464.93,481.37
229.73395,467.19,478.57
229.75210,465.48,479.41
229.77341,467.23,477.27
229.79219,468.90,478.61
229.81369,469.96,475.76
229.83320,469.61,477.04
229.85237,466.98,478.12
229.87227,467.14,479.31
229.89374,465.71,477.59
229.91202,465.66,478.97
229.93381,468.05,476.75
229.95308,467.29,475.71
229.97296,465.96,477.56
229.99233,467.70,476.73
230.01240,465.42,476.74
230.03261,466.13,477.57
230.05290,467.12,478.84
230.07355,466.25,478.75
230.09369,466.16,478.43
230.11392,466.16,479.27
230.13279,465.46,478.18
230.15202,464.66,479.67
230.17295,465.38,478.14
230.19343,463.43,477.49
230.21366,466.10,476.97
230.23291,463.41,479.45
230.25289,463.18,479.21
230.27377,462.94,478.44
230.29326,465.81,477.84
230.31211,464.57,477.02
230.33381,463.71,476.04
230.35331,466.22,477.65
230.37277,464.39,475.73
230.39375,468.22,477.99
230.41215,466.03,479.01
230.43251,466.90,475.79
230.45366,466.74,477.01
230.47203,468.06,477.28
230.49253,468.51,480.01
230.51210,471.50,481.35
230.53355,471.29,482.60
230.55264,469.96,478.49
230.57307,470.12,479.81
230.59263,468.00,480.96
230.61262,464.73,482.92
230.63212,465.82,482.37
230.65239,468.01,485.57
230.67229,466.33,488.40
230.69212,470.08,491.67
230.71398,467.31,495.14
230.73451,468.97,492.35
230.75582,468.15,492.90
230.77529,466.96,493.17
230.79785,464.52,491.84
230.81701,464.11,491.05
230.83734,464.76,490.89
230.85653,464.58,489.72
230.87743,461.81,489.48
230.89674,463.61,489.55
230.91754,460.13,488.25
230.93620,462.65,484.44
230.95656,462.98,485.56
230.97757,462.31,484.97
230.99852,462.00,485.31
231.01827,458.56,482.47
231.03751,458.58,484.69
231.05853,455.65,480.76
231.07975,456.08,480.20
231.10072,452.63,478.02
231.12065,452.90,477.22
231.14059,451.29,478.86
231.16033,450.37,477.46
231.18154,448.96,474.87
231.20036,448.09,473.64
231.22130,449.06,469.77
231.24173,447.22,474.18
231.26176,447.05,497.01
231.28083,447.77,517.26
231.30179,449.99,535.78
231.32177,448.68,551.39
231.34267,446.51,557.44
231.36129,445.98,561.56
231.38149,444.57,556.59
231.40235,447.24,555.08
231.42176,449.59,550.67
231.44146,446.47,546.19
231.46285,448.61,537.97
231.48275,448.48,527.21
231.50263,447.78,520.03
231.52223,445.40,517.07
231.54201,445.41,510.71
231.56110,445.78,508.82
231.58127,447.33,502.59
231.60254,446.59,501.28
231.62164,443.82,496.47
231.64116,445.47,494.93
231.66119,445.18,495.53
231.68229,445.32,493.54
231.70201,445.37,493.98
231.72147,443.46,492.44
231.74265,445.48,489.52
231.76174,443.65,487.34
231.78140,446.22,487.31
231.80205,443.85,486.64
231.82227,447.64,490.10
231.84260,446.21,489.84
231.86210,446.08,487.85
231.88359,447.06,485.47
231.90275,447.67,484.47
231.92392,447.73,481.22
231.94276,445.12,478.99
231.96205,448.33,476.67
231.98335,448.58,475.50
232.00359,443.39,473.99
232.02255,445.96,473.95
232.04400,443.91,476.59
232.06369,445.51,476.94
232.08370,444.85,476.93
232.10300,445.92,476.20
232.12360,445.48,477.53
232.14373,444.55,491.28
232.16316,452.25,507.55
232.18238,456.97,523.16
232.20216,460.46,527.21
232.22369,460.48,513.90
232.24413,459.12,484.58
232.26459,450.45,449.39
232.28529,445.93,423.74
232.30420,441.34,399.46
232.32447,437.53,383.41
232.34511,435.52,376.74
232.36469,433.70,369.79
232.38507,432.63,370.94
232.40460,430.68,375.11
232.42443,430.17,378.56
232.44507,432.93,382.16
232.46582,433.09,391.23
232.48416,435.89,394.58
232.50439,437.84,399.68
232.52545,441.85,401.01
232.54414,441.52,408.48
232.56544,442.42,412.38
232.58565,445.84,420.18
232.60479,445.09,425.10
232.62595,445.54,431.42
232.64485,443.56,434.96
232.66415,444.62,441.72
232.68465,440.71,444.16
232.70543,444.37,448.23
232.72504,444.06,454.45
232.74492,445.45,454.77
232.76435,446.07,458.13
232.78418,444.81,457.73
232.80416,443.34,463.27
232.82588,441.79,463.63
232.84496,440.05,464.09
232.86581,442.43,464.98
232.88515,443.95,466.41
232.90429,441.87,469.11
232.92457,444.07,470.83
232.94489,445.48,469.70
232.96492,448.28,471.41
232.98545,448.48,469.41
233.00537,446.81,472.57
233.02571,444.48,471.98
233.04590,445.12,467.48
233.06418,444.30,470.10
233.08438,448.47,470.75
233.10551,446.19,468.21
233.12573,443.98,470.15
233.14541,444.62,470.14
233.16464,444.65,471.10
233.18595,447.10,473.14
233.20476,446.10,472.84
233.22517,443.72,472.97
233.24424,445.65,472.35
233.26496,446.71,473.73
233.28437,442.36,473.68
233.30574,445.07,474.87
233.32499,445.27,476.72
233.34541,444.31,476.67
233.36549,445.44,476.14
233.38474,445.79,475.72
233.40413,446.11,475.85
233.42596,445.58,477.69
233.44588,443.04,475.49
233.46594,446.93,476.07
233.48585,444.77,475.58
233.50535,447.20,475.09
233.52584,447.47,478.00
233.54541,446.51,476.45
233.56526,445.24,474.77
233.58409,447.63,476.78
233.60515,447.55,475.00
233.62496,447.34,476.05
233.64416,445.11,473.96
233.66482,447.03,473.80
233.68531,447.47,475.41
233.70591,448.37,470.94
233.72568,447.75,473.42
233.74446,446.56,474.76
233.76448,445.27,474.06
233.78474,447.45,473.45
233.80422,446.18,472.62
233.82569,448.91,473.34
233.84594,448.50,474.59
233.86403,447.88,476.35
233.88498,446.06,471.84
233.90448,449.24,474.86
233.92558,446.12,473.93
233.94599,448.11,475.13
233.96446,449.00,473.37
233.98507,446.01,473.73
234.00502,444.75,474.26
234.02428,444.47,475.77
234.04529,448.52,474.73
234.06412,449.16,473.58
234.08425,446.65,475.42
234.10490,446.99,475.69
234.12566,446.52,475.07
234.14451,445.58,474.28
234.16454,447.75,474.74
234.18442,448.17,475.43
234.20477,447.64,474.27
234.22535,448.39,475.35
234.24579,446.06,476.95
234.26529,446.20,476.73
234.28595,447.51,478.66
234.30415,447.62,475.69
234.32505,445.25,476.14
234.34517,445.30,477.04
234.36502,447.58,477.38
234.38447,447.29,477.77
234.40468,445.95,477.16
234.42485,449.67,476.19
234.44565,447.28,475.55
234.46537,448.81,475.69
234.48504,447.26,477.53
234.50437,446.04,476.15
234.52421,447.78,478.22
234.54427,446.82,474.75
234.56449,447.72,478.83
234.58426,448.34,478.42
234.60560,451.29,476.67
234.62400,450.42,473.42
234.64492,448.95,476.59
234.66469,451.60,474.73
234.68521,448.05,476.03
234.70434,448.25,473.61
234.72481,450.70,474.71
234.74475,448.91,474.12
234.76493,450.20,475.20
234.78450,447.97,473.38
234.80488,448.80,475.36
234.82515,449.81,473.77
234.84439,449.34,475.31
234.86599,451.06,475.92
234.88435,447.87,476.78
234.90408,448.83,473.20
234.92454,448.57,474.66
234.94409,447.30,473.97
234.96555,448.88,474.79
234.98431,449.91,474.54
235.00600,450.71,475.28
235.02405,450.28,477.14
235.04537,449.27,476.00
235.06537,450.54,477.02
235.08493,451.66,474.88
235.10478,450.20,476.87
235.12524,448.64,477.23
235.14595,449.36,477.21
235.16446,450.38,477.30
235.18578,449.23,474.88
235.20577,449.48,473.71
235.22599,450.29,473.72
235.24579,449.14,469.65
235.26414,448.12,471.25
235.28579,449.22,473.87
235.30459,449.00,483.35
235.32475,450.89,502.51
235.34570,450.19,526.27
235.36450,452.74,546.26
235.38406,454.91,564.40
235.40400,455.72,573.98
235.42457,455.52,575.00
235.44514,453.06,569.15
235.46463,453.33,563.89
235.48573,454.21,557.61
235.50442,453.42,547.68
235.52581,453.00,540.28
235.54408,453.29,535.72
235.56482,453.97,527.72
235.58465,453.98,522.73
235.60542,452.45,516.78
235.62438,454.68,510.06
235.64488,455.56,508.27
235.66451,454.29,502.69
235.68427,452.16,501.85
235.70555,452.55,499.65
235.72457,451.44,496.87
235.74519,454.22,493.18
235.76534,453.78,491.70
235.78596,454.32,494.49
235.80558,454.53,491.46
235.82443,452.77,490.38
235.84566,451.82,490.45
235.86429,453.97,491.57
235.88492,452.91,488.33
235.90437,448.59,488.63
235.92521,447.82,487.24
235.94543,451.22,485.65
235.96577,447.56,484.64
235.98420,449.59,488.57
236.00493,449.74,504.68
236.02407,453.55,520.46
236.04527,457.90,524.74
236.06499,459.74,502.61
236.08540,457.98,465.68
236.10490,453.38,428.17
236.12405,449.93,395.71
236.14573,447.41,376.62
236.16584,449.22,365.07
236.18567,446.95,364.38
236.20525,445.14,364.13
236.22467,447.32,366.58
236.24535,445.64,374.42
236.26580,446.60,381.94
236.28448,446.36,388.06
236.30452,446.40,396.27
236.32589,450.52,403.85
236.34592,450.44,414.00
236.36484,451.76,421.90
236.38498,449.55,427.79
236.40582,450.93,433.90
236.42521,450.39,438.73
236.44448,452.73,443.44
236.46550,452.38,449.46
236.48561,453.92,453.42
236.50585,451.91,458.89
236.52545,455.25,460.67
236.54405,453.51,460.62
236.56463,455.66,463.51
236.58588,452.54,465.38
236.60513,455.25,469.83
236.62533,457.22,468.98
236.64564,454.72,469.78
236.66598,455.89,471.13
236.68424,456.27,472.02
236.70427,456.81,473.53
236.72596,455.79,475.87
236.74451,456.43,476.53
236.76471,452.55,476.71
236.78524,452.31,474.93
236.80503,452.51,474.45
236.82490,452.67,475.12
236.84531,453.72,473.52
236.86538,455.56,475.92
236.88437,455.48,476.59
236.90546,455.60,477.05
236.92578,458.41,476.08
236.94465,457.52,473.70
236.96544,455.24,477.01
236.98564,456.09,474.16
237.00596,455.87,476.59
237.02599,457.12,477.72
237.04525,454.54,476.43
237.06584,453.62,476.51
237.08557,453.20,477.78
237.10406,452.34,474.64
237.12443,455.30,475.96
237.14547,454.78,476.79
237.16575,454.30,478.78
237.18541,456.04,476.74
237.20506,457.34,477.50
237.22484,457.79,475.59
237.24542,457.96,475.50
237.26487,457.21,476.82
237.28533,457.09,477.56
237.30487,459.42,475.05
237.32452,459.57,476.82
237.34415,456.42,474.59
237.36486,457.21,476.77
237.38576,456.56,476.07
237.40545,456.33,476.79
237.42424,455.64,478.03
237.44599,455.58,478.81
237.46569,457.92,478.70
237.48501,456.82,477.13
237.50468,454.82,478.25
237.52592,455.03,479.47
237.54565,455.31,479.92
237.56537,456.97,476.23
237.58481,459.25,477.80
237.60595,457.48,478.41
237.62494,453.92,475.91
237.64402,456.61,478.86
237.66561,457.82,478.24
237.68549,458.55,479.37
237.70474,459.84,477.60
237.72446,456.77,477.02
237.74463,457.29,477.23
237.76581,458.30,476.24
237.78530,459.34,477.07
237.80503,457.28,476.07
237.82505,457.22,478.76
237.84596,458.22,477.40
237.86597,456.60,478.76
237.88582,456.73,477.66
237.90528,458.63,476.04
237.92414,456.64,479.87
237.94646,456.85,479.42
237.96512,455.94,478.19
237.98605,457.70,479.32
238.00523,456.52,481.28
238.02505,458.14,481.61
238.04644,460.03,479.26
238.06526,460.96,479.79
238.08693,462.22,476.52
238.10695,463.00,477.38
238.12582,463.54,479.40
238.14677,464.27,478.38
238.16589,461.51,476.14
238.18554,464.53,476.62
238.20590,464.24,476.22
238.22615,465.21,476.62
238.24656,462.20,476.82
238.26655,463.23,476.07
238.28675,461.59,474.94
238.30518,463.41,476.36
238.32526,461.05,476.58
238.34587,460.15,474.76
238.36523,461.66,477.75
238.38687,463.14,475.16
238.40620,463.33,475.21
238.42584,461.26,475.00
238.44582,463.92,475.67
238.46524,462.76,474.18
238.48571,461.42,474.85
238.50566,463.06,475.45
238.52593,464.22,476.36
238.54505,463.88,476.70
238.56697,463.48,479.47
238.58680,465.06,478.74
238.60616,463.12,479.40
238.62698,464.10,478.59
238.64509,466.07,478.98
238.66518,465.49,477.33
238.68581,464.53,478.07
238.70615,465.56,479.43
238.72582,466.78,480.09
238.74598,463.67,481.30
238.76561,465.51,477.94
238.78553,463.83,479.87
238.80666,463.96,480.68
238.82521,465.71,478.47
238.84585,464.21,478.62
238.86689,465.65,479.38
238.88503,464.47,480.88
238.90671,463.09,482.92
238.92907,463.86,482.04
238.94658,461.62,481.13
238.96631,462.56,480.84
238.98529,463.80,484.47
239.00583,462.45,482.43
239.02566,465.39,483.21
239.04524,462.23,479.23
239.06672,462.49,479.02
239.08666,463.70,479.43
239.10523,466.21,479.81
239.12589,465.53,479.63
239.14594,465.29,480.42
239.16597,465.45,480.63
239.18644,465.65,480.13
239.20560,463.84,479.92
239.22673,465.65,478.50
239.24689,465.60,479.69
239.26519,467.27,480.09
239.28645,466.68,481.04
239.30521,464.61,479.60
239.32614,464.09,481.44
239.34576,466.14,479.46
239.36541,465.50,480.94
239.38603,463.05,478.84
239.40507,462.92,481.97
239.42628,465.67,479.55
239.44620,464.99,479.51
239.46597,465.56,479.62
239.48582,466.35,489.02
239.50542,466.66,507.08
239.52511,469.34,533.16
239.54514,468.94,555.42
239.56533,470.67,580.30
239.58514,470.90,598.06
239.60538,470.70,611.75
239.62669,469.15,617.85
239.64585,469.46,616.25
239.66523,467.82,605.99
239.68633,464.77,587.86
239.70681,463.67,571.89
239.72538,464.10,552.84
239.74612,463.50,539.00
239.76554,463.66,524.34
239.78667,463.42,512.08
239.80615,463.70,502.23
239.82647,463.84,495.78
239.84663,464.82,489.01
239.86664,462.27,485.24
239.88514,463.11,483.69
239.90566,463.21,483.60
239.92514,462.13,483.73
239.94655,464.34,483.69
239.96562,463.58,485.53
239.98647,463.72,483.20
240.00543,463.12,485.31
240.02650,464.41,482.71
240.04582,468.01,482.17
240.06563,467.24,485.98
240.08689,467.09,481.55
240.10622,468.41,480.31
240.12602,467.01,483.36
240.14624,470.41,482.06
240.16689,467.72,479.89
240.18656,468.83,480.57
240.20512,467.99,478.64
240.22566,468.06,478.96
240.24577,465.22,480.17
240.26626,466.17,478.33
240.28563,464.77,478.23
240.30664,468.14,475.54
240.32605,465.70,477.09
240.34671,467.60,481.17
240.36693,466.79,479.63
240.38558,467.94,479.42
240.40578,467.47,476.15
240.42609,470.44,465.30
240.44506,469.11,441.86
240.46500,468.47,412.79
240.48527,471.64,389.24
240.50633,470.37,375.94
240.52617,469.99,367.71
240.54668,468.69,364.57
240.56551,470.74,366.35
240.58546,469.01,371.92
240.60671,467.25,377.45
240.62622,467.20,384.15
240.64596,466.92,393.72
240.66502,468.98,404.16
240.68555,469.04,411.56
240.70692,466.18,418.21
240.72609,468.42,423.37
240.74570,468.92,433.93
240.76514,467.02,438.94
240.78626,466.51,444.90
240.80532,467.78,448.09
240.82507,468.63,452.80
240.84604,469.35,456.45
240.86615,469.29,458.98
240.88621,465.31,464.60
240.90675,466.96,466.74
240.92568,465.63,466.71
240.94604,467.45,469.67
240.96575,466.07,472.94
240.98684,464.29,473.70
241.00530,465.16,474.14
241.02518,466.64,474.60
241.04615,466.60,472.52
241.06580,465.51,474.50
241.08693,467.21,475.36
241.10699,465.41,477.07
241.12623,468.01,477.51
241.14665,465.06,476.07
241.16596,465.63,477.98
241.18592,465.78,477.83
241.20680,466.89,480.42
241.22577,468.57,479.65
241.24552,465.46,480.08
241.26547,467.09,477.50
241.28545,464.20,478.98
241.30602,468.22,480.98
241.32512,468.01,479.64
241.34671,467.60,480.58
241.36598,469.51,481.00
241.38603,467.81,482.60
241.40588,467.77,481.70
241.42767,467.28,481.76
241.44648,468.03,478.49
241.46755,466.37,478.72
241.48711,466.37,479.68
241.50639,466.83,478.68
241.52604,463.83,481.78
241.54739,467.21,480.59
241.56760,466.58,478.56
241.58787,467.55,480.52
241.60638,467.72,480.98
241.62626,469.44,483.11
241.64660,466.45,483.69
241.66602,469.77,480.75
241.68729,467.36,481.17
241.70621,468.34,482.37
241.72704,469.12,479.82
241.74706,467.12,480.08
241.76684,469.83,483.21
241.78702,467.91,479.67
241.80752,467.16,478.67
241.82704,467.47,480.62
241.84806,469.61,480.87
241.86753,467.19,480.44
241.88840,468.73,477.68
241.90812,468.37,481.41
241.92803,466.22,482.29
241.94822,468.56,480.37
241.96713,467.89,478.20
241.98823,468.08,480.65
242.00854,466.81,479.79
242.02709,464.76,481.77
242.04924,466.97,480.78
242.06983,464.36,479.65
242.08930,464.83,479.60
242.10966,465.21,479.38
242.12940,463.08,480.71
242.14833,463.92,478.71
242.16939,462.77,478.66
242.18922,463.87,477.57
242.20850,465.68,479.04
242.22898,466.82,477.17
242.24897,464.34,478.70
242.26972,463.74,480.75
242.28976,465.28,479.81
242.30913,464.14,481.71
242.32916,463.17,481.94
242.34808,464.37,482.61
242.36951,465.78,478.39
242.38998,464.04,477.22
242.40801,466.73,480.21
242.42911,463.59,478.99
242.44987,464.50,481.23
242.46925,463.40,481.15
242.48877,463.35,478.52
242.50988,465.11,476.48
242.52939,462.71,479.34
242.54816,465.40,479.56
242.56955,463.33,476.79
242.58974,461.73,479.22
242.60980,461.47,480.04
242.62963,462.01,478.85
242.64908,461.34,480.70
242.66834,460.80,481.07
242.68845,461.90,478.70
242.70805,461.35,478.21
242.72971,461.56,478.44
242.74847,461.02,479.93
242.77096,461.53,479.53
242.78999,462.57,479.43
242.80950,459.27,479.81
242.82975,460.49,479.66
242.84943,460.59,481.06
242.86921,458.03,479.44
242.89054,456.54,481.42
242.91019,458.67,482.08
242.92969,460.12,483.28
242.95043,460.28,482.47
242.97023,459.97,479.99
242.99054,459.95,479.96
243.00971,459.08,478.06
243.02958,459.62,479.48
243.04972,460.08,478.08
243.07021,457.13,478.21
243.08932,459.32,480.68
243.10921,458.73,478.29
243.12991,459.01,478.86
243.14955,459.86,478.56
243.16971,458.14,480.40
243.18972,456.10,477.73
243.21023,457.10,477.51
243.23088,456.66,479.72
243.24969,457.97,475.53
243.26952,458.12,476.77
243.29028,457.31,477.40
243.30999,458.33,476.93
243.33052,456.36,476.43
243.35079,456.30,475.38
243.36997,456.01,476.61
243.38919,455.81,477.44
243.40963,455.41,489.74
243.42956,456.85,513.48
243.45014,456.87,541.54
243.46929,460.53,570.78
243.49030,460.88,592.70
243.51057,459.51,605.91
243.52921,461.77,615.48
243.54948,461.86,617.05
243.57035,459.66,606.32
243.58955,458.22,598.78
243.60960,458.67,581.63
243.62985,457.35,567.41
243.65039,457.89,558.45
243.66952,457.59,546.50
243.68972,458.06,533.96
243.70951,459.91,526.78
243.72989,459.21,519.50
243.74923,455.82,515.61
243.76999,458.35,508.38
243.79054,457.01,504.80
243.81083,456.45,498.91
243.82965,454.35,494.27
243.85068,455.76,495.82
243.86991,457.14,491.99
243.89049,454.03,490.71
243.91052,455.13,488.58
243.93190,454.55,487.19
243.95170,453.48,486.37
243.97044,450.16,484.15
243.99134,451.06,485.66
244.01084,453.03,481.57
244.03181,450.41,484.58
244.05181,453.07,481.55
244.07046,453.16,483.24
244.09013,452.09,483.69
244.11096,452.46,483.48
244.13134,451.72,482.36
244.15025,452.53,483.46
244.17071,453.00,483.68
244.19072,452.30,472.24
244.21200,452.19,450.62
244.23122,450.33,421.75
244.25038,448.79,399.52
244.27158,449.57,384.00
244.29003,450.11,377.34
244.31167,446.67,376.25
244.33094,449.56,379.45
244.35172,447.58,386.45
244.37049,447.39,395.98
244.39086,446.36,399.55
244.41070,447.06,408.26
244.43028,449.08,417.91
244.45001,450.01,426.82
244.47042,447.78,430.24
244.49146,447.21,436.47
244.51032,446.40,438.22
244.53138,449.81,439.53
244.55088,447.96,444.64
244.57099,447.96,449.16
244.59163,447.19,451.64
244.61123,446.83,456.33
244.63148,447.76,457.67
244.65173,449.03,463.22
244.67017,449.90,463.24
244.69148,451.43,467.64
244.71199,448.66,470.04
244.73114,448.86,471.31
244.75079,451.70,472.46
244.77124,448.00,472.09
244.79134,447.78,473.72
244.81038,449.43,476.10
244.83180,448.40,476.38
244.85124,448.67,476.84
244.87018,447.73,476.04
244.89167,448.83,475.27
244.91179,448.26,476.87
244.93072,448.77,478.11
244.95175,447.05,475.84
244.97078,448.06,478.68
244.99157,445.48,477.08
245.01063,446.11,478.64
245.03097,446.00,476.18
245.05188,447.56,477.08
245.07103,448.40,477.38
245.09125,449.54,480.36
245.11108,447.18,481.12
245.13108,447.33,480.47
245.15161,447.30,481.45
245.17172,448.36,479.32
245.19168,448.71,479.62
245.21001,446.19,479.71
245.23014,445.68,480.25
245.25053,447.36,476.65
245.27059,448.37,478.79
245.29047,446.95,479.19
245.31109,449.42,477.34
245.33041,448.22,480.62
245.35051,447.91,477.36
245.37009,449.31,479.37
245.39052,446.73,477.69
245.41138,447.83,476.70
245.43032,446.47,479.46
245.45084,447.14,479.32
245.47021,445.56,478.48
245.49179,448.51,479.29
245.51193,447.21,480.29
245.53128,445.83,480.99
245.55013,448.87,480.46
245.57157,449.34,482.57
245.59089,446.02,478.87
245.61073,446.75,478.71
245.63194,447.81,479.59
245.65125,445.96,478.85
245.67130,445.85,479.72
245.69137,446.05,479.66
245.71149,444.00,477.61
245.73141,445.08,477.93
245.75055,444.60,478.98
245.77060,446.82,477.24
245.79083,448.26,478.60
245.81037,446.18,479.98
245.83096,447.04,476.72
245.85065,445.90,475.63
245.87066,446.52,477.76
245.89031,445.33,478.80
245.91059,444.64,476.95
245.93182,448.00,476.08
245.95122,446.62,477.63
245.97047,448.70,479.55
245.99153,446.58,477.47
246.01003,448.94,477.13
246.03059,447.29,477.26
246.05162,446.37,478.70
246.07196,447.73,477.14
246.09192,449.77,479.36
246.11141,448.31,475.73
246.13076,447.72,477.30
246.15051,447.23,478.67
246.17198,444.45,475.40
246.19073,445.37,476.81
246.21185,444.17,477.99
246.23107,444.87,474.20
246.25056,446.82,476.12
246.27162,447.61,474.82
246.29124,446.67,474.59
246.31091,444.39,477.55
246.33118,446.26,475.09
246.35129,447.92,476.34
246.37150,447.03,478.76
246.39005,447.74,480.24
246.41007,447.66,477.97
246.43049,445.49,479.18
246.45038,444.86,478.71
246.47132,447.60,477.11
246.49096,448.74,480.26
246.51071,447.58,477.31
246.53083,446.72,479.96
246.55131,447.46,478.27
246.57102,446.77,479.76
246.59154,444.36,478.08
246.61185,444.21,478.88
246.63008,444.25,480.04
246.65198,445.16,478.62
246.67186,442.41,480.32
246.69083,442.41,479.76
246.71029,444.83,477.49
246.73098,441.84,477.93
246.75100,441.49,479.29
246.77104,441.33,477.12
246.79047,443.61,480.04
246.81022,445.56,477.74
246.83039,444.28,477.77
246.85019,446.08,477.17
246.87055,443.66,478.43
246.89005,444.40,478.30
246.91168,445.27,476.56
246.93107,447.42,476.92
246.95137,444.73,478.54
246.97005,447.93,489.38
246.99166,448.45,513.08
247.01114,445.22,542.60
247.03118,447.99,569.56
247.05020,444.77,589.01
247.07137,441.44,602.53
247.09174,440.80,606.05
247.11198,441.68,600.76
247.13060,438.89,592.72
247.15135,438.36,584.30
247.17179,437.01,570.26
247.19174,437.26,559.37
247.21211,439.13,548.90
247.23250,439.13,538.51
247.25158,441.64,534.05
247.27228,442.05,525.14
247.29120,442.63,519.61
247.31164,441.77,513.04
247.33219,443.52,508.64
247.35116,442.66,503.61
247.37180,442.36,500.82
247.39152,445.93,495.59
247.41225,446.79,490.80
247.43113,446.86,488.08
247.45300,448.35,487.12
247.47195,446.43,487.77
247.49273,446.94,488.79
247.51123,445.88,484.71
247.53244,447.87,486.20
247.55282,447.39,485.94
247.57123,446.51,487.46
247.59258,446.65,483.08
247.61169,447.29,478.48
247.63118,446.98,464.48
247.65261,447.87,446.65
247.67213,450.23,425.97
247.69179,450.36,405.66
247.71275,448.76,386.53
247.73225,448.76,370.64
247.75111,446.07,357.73
247.77277,446.04,349.35
247.79195,445.44,351.07
247.81233,446.16,356.94
247.83299,442.58,360.50
247.85181,442.98,369.26
247.87107,442.25,378.01
247.89151,442.83,388.32
247.91151,442.75,396.97
247.93182,442.67,407.16
247.95111,445.15,412.60
247.97281,443.17,420.29
247.99229,443.60,426.58
248.01140,443.52,434.75
248.03106,443.23,440.48
248.05148,445.16,445.07
248.07258,444.47,448.63
248.09111,444.74,452.19
248.11216,443.32,456.71
248.13166,443.60,459.95
248.15253,442.48,462.83
248.17128,443.82,463.49
248.19300,443.00,467.25
248.21230,447.01,469.26
248.23157,444.71,471.67
248.25274,447.51,472.25
248.27208,446.56,473.59
248.29144,444.17,472.22
248.31262,445.79,474.41
248.33259,444.34,473.57
248.35264,446.69,476.14
248.37273,446.45,473.26
248.39130,446.86,473.05
248.41108,446.58,476.83
248.43268,443.01,476.32
248.45146,444.16,474.75
248.47146,444.47,475.48
248.49236,443.65,476.31
248.51196,443.01,474.95
248.53283,442.51,473.96
248.55199,442.96,472.31
248.57208,446.45,472.70
248.59177,445.73,474.11
248.61122,445.47,473.72
248.63163,444.08,471.43
248.65232,445.27,473.13
248.67179,443.97,474.22
248.69271,442.73,473.79
248.71144,444.54,476.68
248.73176,445.33,477.11
248.75222,444.18,476.43
248.77268,444.76,477.11
248.79100,444.06,474.95
248.81215,445.10,472.85
248.83232,444.10,476.27
248.85222,447.06,473.51
248.87262,443.75,472.52
248.89193,445.34,472.50
248.91272,442.23,473.64
248.93290,443.83,478.46
248.95141,442.36,477.68
248.97251,444.43,479.03
248.99291,445.20,479.86
249.01296,444.19,477.98
249.03287,444.31,480.46
249.05149,442.58,478.27
249.07198,444.83,479.25
249.09272,442.28,477.65
249.11173,443.83,478.84
249.13159,445.02,476.59
249.15210,444.65,475.95
249.17133,444.08,477.13
249.19299,443.75,474.06
249.21138,443.11,475.41
249.23176,443.04,477.12
249.25289,445.55,474.98
249.27147,446.44,476.29
249.29262,446.70,476.26
249.31196,447.45,473.57
249.33132,445.76,475.91
249.35150,446.11,475.15
249.37102,443.60,475.75
249.39147,443.22,476.24
249.41122,442.76,477.23
249.43277,443.50,473.82
249.45282,446.22,475.37
249.47123,447.22,476.79
249.49199,444.85,473.55
249.51267,443.28,474.89
249.53245,443.36,471.69
249.55231,444.05,474.42
249.57243,441.20,474.94
249.59110,442.61,473.63
249.61212,442.55,471.94
249.63141,441.69,472.22
249.65267,443.82,470.53
249.67147,442.07,473.05
249.69154,442.61,473.38
249.71257,445.56,473.23
249.73136,446.27,472.99
249.75242,446.18,470.90
249.77206,445.53,470.70
249.79191,446.34,472.81
249.81196,446.45,470.39
249.83138,444.74,474.13
249.85240,446.47,473.79
249.87195,446.66,472.19
249.89152,443.45,473.59
249.91297,447.35,472.06
249.93103,445.21,473.09
249.95167,445.25,475.72
249.97233,448.52,473.70
249.99124,447.18,472.50
250.01178,444.20,470.74
250.03102,447.04,471.31
250.05223,445.09,470.87
250.07252,446.22,472.30
250.09183,445.61,470.43
250.11100,445.16,470.05
250.13163,444.55,476.64
250.15127,445.19,489.04
250.17175,446.35,512.25
250.19172,450.86,541.90
250.21197,448.66,562.59
250.23110,451.18,576.47
250.25278,452.64,581.65
250.27113,450.88,584.01
250.29182,451.52,579.03
250.31273,449.91,574.07
250.33199,447.20,561.09
250.35148,445.90,551.86
250.37288,446.36,543.06
250.39167,447.54,534.34
250.41135,445.61,524.35
250.43143,446.34,520.42
250.45105,448.38,513.81
250.47252,445.49,508.09
250.49129,444.92,501.92
250.51107,447.90,500.63
250.53234,444.29,494.48
250.55119,446.05,492.53
250.57119,447.35,492.24
250.59299,448.37,490.74
250.61179,448.05,488.12
250.63109,446.49,487.57
250.65162,445.76,484.90
250.67218,446.60,486.98
250.69141,448.59,481.44
250.71270,447.63,482.87
250.73239,446.49,486.42
250.75240,449.80,494.25
250.77103,449.67,503.42
250.79196,450.14,502.03
250.81125,452.39,486.45
250.83157,451.10,457.69
250.85181,450.33,426.27
250.87250,448.70,401.16
250.89183,445.19,381.14
250.91246,445.98,372.55
250.93122,446.53,369.23
250.95158,443.07,370.51
250.97171,441.93,375.50
250.99186,442.59,378.15
251.01163,443.00,386.78
251.03141,442.77,392.55
251.05133,443.20,401.37
251.07210,441.29,408.55
251.09202,442.67,413.69
251.11176,443.78,421.93
251.13143,443.08,429.12
251.15101,443.97,433.13
251.17117,443.44,441.61
251.19233,444.92,443.50
251.21265,447.56,446.84
251.23263,446.69,450.11
251.25122,445.50,454.93
251.27252,442.83,456.70
251.29221,444.27,458.97
251.31132,447.10,460.13
251.33159,445.35,463.90
251.35109,445.96,465.74
251.37284,446.37,464.73
251.39179,447.96,466.41
251.41258,446.06,469.33
251.43143,448.61,469.48
251.45161,448.38,470.22
251.47296,447.86,470.57
251.49109,449.42,472.03
251.51276,447.71,474.49
251.53181,447.15,474.31
251.55210,447.56,475.51
251.57104,448.20,472.69
251.59187,447.08,472.42
251.61207,448.11,472.18
251.63138,449.60,473.15
251.65169,449.34,472.49
251.67127,446.30,471.89
251.69218,447.61,471.38
251.71242,447.00,472.25
251.73124,449.81,475.36
251.75220,448.29,474.73
251.77265,448.14,475.58
251.79232,445.86,473.44
251.81177,447.32,472.48
251.83136,446.39,474.82
251.85238,449.43,476.02
251.87288,448.22,476.63
251.89190,448.60,474.18
251.91257,451.63,475.77
251.93185,451.80,474.61
251.95138,448.05,477.14
251.97266,448.63,475.19
251.99231,447.84,475.27
252.01120,451.17,475.04
252.03140,447.93,474.59
252.05225,449.46,478.35
252.07267,447.44,475.25
252.09263,450.60,475.54
252.11178,449.89,477.15
252.13115,451.86,476.97
252.15122,451.44,477.53
252.17289,450.64,477.15
252.19171,448.72,476.38
252.21118,451.37,478.37
252.23153,451.84,475.42
252.25123,451.60,477.82
252.27126,453.16,477.31
252.29247,450.36,477.40
252.31187,452.16,477.18
252.33123,450.95,479.13
252.35239,452.51,478.30
252.37226,450.20,475.76
252.39265,451.58,474.40
252.41280,451.84,476.92
252.43129,449.37,475.39
252.45276,450.39,476.83
252.47221,451.38,475.46
252.49175,449.01,474.25
252.51175,452.58,477.31
252.53114,450.30,477.51
252.55283,451.45,475.13
252.57299,451.86,477.55
252.59153,453.72,476.74
252.61142,455.08,474.52
252.63243,455.58,475.63
252.65163,454.10,474.64
252.67298,455.73,474.27
252.69244,456.28,476.41
252.71275,455.52,472.93
252.73144,453.91,476.35
252.75144,452.78,476.51
252.77273,454.16,476.19
252.79158,454.04,473.83
252.81154,453.95,476.88
252.83175,453.88,476.90
252.85143,456.28,474.94
252.87222,455.81,476.66
252.89295,454.77,477.31
252.91102,456.63,475.02
252.93161,452.74,475.86
252.95202,453.80,477.73
252.97209,453.46,477.95
252.99278,455.19,476.63
253.01207,454.32,476.95
253.03170,454.38,476.30
253.05106,453.62,480.11
253.07283,455.86,479.54
253.09264,453.09,476.59
253.11132,455.07,476.75
253.13211,451.38,474.34
253.15251,453.09,475.36
253.17215,453.86,475.14
253.19197,454.16,476.24
253.21274,456.08,476.74
253.23199,453.71,477.64
253.25252,451.94,475.93
253.27271,450.65,475.63
253.29135,454.40,473.69
253.31194,453.52,475.82
253.33264,454.03,477.48
253.35128,452.44,474.09
253.37268,452.38,476.50
253.39250,456.61,477.93
253.41124,455.94,479.06
253.43182,455.06,477.75
253.45246,454.46,478.61
253.47256,453.74,478.57
253.49104,452.86,477.28
253.51173,455.86,479.78
253.53294,456.68,477.34
253.55225,454.82,476.86
253.57016,455.00,476.29
253.59179,453.10,477.33
253.61148,458.12,477.48
253.63257,454.67,479.66
253.65211,454.83,478.59
253.67184,453.63,478.58
253.69111,454.33,475.28
253.71201,454.21,475.40
253.73188,452.11,476.90
253.75187,454.01,488.57
253.77221,452.51,508.58
253.79164,450.92,531.96
253.81281,448.04,555.77
253.83287,444.74,569.66
253.85270,444.22,575.84
253.87103,445.70,580.46
253.89221,444.80,576.77
253.91200,445.96,568.66
253.93125,447.14,562.68
253.95289,449.45,554.07
253.97205,452.22,547.84
253.99235,452.88,541.82
254.01129,456.79,534.52
254.03294,456.43,531.34
254.05254,461.82,527.06
254.07177,460.11,524.74
254.09188,461.56,519.42
254.11198,464.07,515.37
254.13236,459.91,513.84
254.15130,462.78,511.76
254.17168,463.43,506.02
254.19275,462.47,500.88
254.21186,462.14,498.36
254.23149,460.71,494.32
254.25216,460.50,497.00
254.27227,463.13,491.93
254.29134,459.50,489.19
254.31110,460.45,490.36
254.33266,460.83,491.61
254.35210,461.15,493.94
254.37215,463.52,500.75
254.39236,464.77,510.25
254.41120,466.56,516.60
254.43286,465.26,512.33
254.45212,465.43,494.73
254.47245,461.60,463.33
254.49188,462.01,435.68
254.51206,462.17,405.08
254.53128,461.80,384.08
254.55261,460.55,374.62
254.57138,460.73,366.88
254.59296,460.69,364.37
254.61201,460.17,363.31
254.63261,459.32,370.65
254.65102,456.79,373.40
254.67147,457.17,382.31
254.69115,455.95,388.49
254.71188,457.30,396.61
254.73141,456.84,403.50
254.75274,458.64,412.69
254.77197,455.96,419.13
254.79118,454.86,426.75
254.81239,457.37,432.02
254.83219,456.60,438.19
254.85172,457.31,445.16
254.87206,457.27,449.81
254.89287,457.83,454.00
254.91226,460.87,457.16
254.93273,458.25,461.12
254.95270,458.08,463.45
254.97159,460.62,466.08
254.99288,457.78,468.82
255.01115,458.73,469.98
255.03241,457.67,473.01
255.05101,458.42,471.54
255.07123,457.39,473.30
255.09149,464.04,475.60
255.11188,462.15,474.74
255.13186,464.22,473.59
255.15192,463.92,476.66
255.17111,462.48,476.40
255.19247,464.49,473.89
255.21229,463.06,476.15
255.23290,464.51,474.48
255.25140,463.81,477.71
255.27209,465.68,475.59
255.29126,464.82,476.59
255.31212,463.14,479.69
255.33272,461.34,479.73
255.35242,463.44,479.05
255.37224,461.91,475.49
255.39245,464.99,475.76
255.41234,463.81,477.75
255.43226,465.53,477.30
255.45152,462.70,475.48
255.47193,465.25,475.49
255.49221,462.96,478.50
255.51284,461.26,479.78
255.53228,462.15,477.66
255.55211,462.45,480.83
255.57264,462.55,480.07
255.59172,461.33,481.16
255.61208,463.28,481.95
255.63113,465.05,478.38
255.65147,461.21,481.11
255.67218,465.24,482.07
255.69133,464.35,479.27
255.71280,463.39,477.54
255.73286,463.34,480.62
255.75103,461.73,477.45
255.77243,462.83,478.90
255.79171,462.88,478.82
255.81113,465.29,476.29
255.83132,464.71,478.46
255.85296,461.78,479.28
255.87149,462.93,480.26
255.89264,462.92,477.79
255.91300,462.77,481.37
255.93297,463.88,478.61
255.95172,462.50,478.98
255.97185,462.90,478.13
255.99232,463.70,477.13
256.01148,460.94,479.45
256.03295,462.55,478.61
256.05221,464.37,478.22
256.07217,461.17,477.58
256.09011,461.50,476.50
256.11126,461.07,479.26
256.13187,462.58,479.80
256.15207,465.18,475.59
256.17152,465.40,478.51
256.19212,463.81,475.54
256.21137,466.02,479.33
256.23284,465.54,477.93
256.25239,465.48,476.67
256.27262,462.07,478.87
256.29298,463.09,476.02
256.31177,464.67,478.90
256.33218,465.47,479.68
256.35260,464.33,480.10
256.37187,466.06,480.08
256.39261,463.78,476.95
256.41197,464.53,476.02
256.43146,465.87,478.56
256.45244,463.59,476.93
256.47143,463.32,477.71
256.49211,462.93,474.41
256.51282,461.34,474.28
256.53157,461.93,473.91
256.55287,463.63,472.60
256.57078,463.12,472.50
256.59193,463.19,472.94
256.61256,463.17,475.29
256.63186,463.47,478.48
256.65213,462.90,479.74
256.67234,462.39,478.83
256.69263,465.96,482.05
256.71298,468.82,480.35
256.73127,464.86,479.82
256.75289,468.95,478.34
256.77211,466.90,477.85
256.79160,468.22,478.13
256.81267,465.33,478.98
256.83190,466.41,479.65
256.85224,467.40,480.28
256.87264,463.15,485.26
256.89209,462.85,499.59
256.91254,461.73,520.78
256.93135,462.58,544.92
256.95173,465.50,560.87
256.97284,465.55,570.34
256.99121,468.45,574.83
257.01246,467.65,571.76
257.03261,468.85,566.63
257.05148,470.48,559.93
257.07025,469.13,551.26
257.09167,470.70,544.05
257.11130,469.87,536.24
257.13164,467.50,529.60
257.15142,467.06,525.13
257.17144,465.62,519.83
257.19113,466.77,516.19
257.21173,465.76,508.36
257.23178,467.27,505.21
257.25166,465.87,506.22
257.27130,469.45,509.59
257.29208,469.96,512.76
257.31136,470.78,513.72
257.33267,472.30,513.06
257.35281,469.07,511.13
257.37153,471.42,509.62
257.39160,469.66,508.11
257.41201,470.80,503.90
257.43281,469.40,501.11
257.45268,471.51,498.10
257.47227,472.05,498.72
257.49213,470.96,495.37
257.51151,471.81,495.34
257.53162,467.59,493.84
257.55058,467.63,496.34
257.57123,467.93,486.18
257.59184,463.15,460.97
257.61132,458.18,430.84
257.63280,456.91,405.10
257.65241,458.51,390.10
257.67235,454.10,381.63
257.69178,453.55,381.46
257.71130,457.16,381.72
257.73300,459.20,385.34
257.75036,458.32,393.82
257.77155,457.26,399.80
257.79230,457.09,407.97
257.81142,459.23,414.19
257.83157,460.48,421.33
257.85222,461.10,425.66
257.87272,466.01,433.88
257.89161,462.74,441.19
257.91251,464.79,446.04
257.93153,465.10,447.82
257.95256,467.40,454.31
257.97177,465.52,456.81
257.99276,464.31,460.90
258.01290,466.44,463.15
258.03129,467.08,467.97
258.05192,467.07,467.97
258.07293,464.23,470.45
258.09101,465.98,472.84
258.11136,462.88,475.39
258.13131,463.17,475.77
258.15217,463.10,475.79
258.17138,465.96,475.24
258.19266,466.11,476.93
258.21298,468.73,478.64
258.23275,468.11,478.17
258.25163,469.60,476.63
258.27215,465.98,476.83
258.29125,464.38,479.16
258.31227,466.44,479.35
258.33268,465.76,479.47
258.35197,467.47,479.47
258.37177,468.76,480.30
258.39119,469.10,479.30
258.41128,469.06,479.41
258.43173,468.32,480.90
258.45114,467.68,482.51
258.47153,470.01,481.71
258.49201,471.83,480.64
258.51116,468.37,480.38
258.53141,469.88,482.38
258.55282,469.97,480.11
258.57237,466.74,481.57
258.59192,466.83,479.54
258.61290,465.71,479.23
258.63149,466.58,483.03
258.65197,464.74,479.49
258.67141,464.64,479.70
258.69178,464.01,483.10
258.71192,464.71,481.84
258.73137,464.30,483.86
258.75126,467.44,482.70
258.77198,467.18,483.10
258.79234,465.02,480.33
258.81128,465.83,480.24
258.83286,466.39,480.10
258.85176,466.94,483.71
258.87158,465.34,483.76
258.89247,462.81,482.82
258.91207,465.52,482.67
258.93285,465.44,484.05
258.95233,462.61,483.99
258.97119,464.13,482.86
258.99321,462.51,483.21
259.01243,462.44,480.83
259.03183,462.59,481.18
259.05375,463.21,480.10
259.07356,464.33,480.08
259.09304,460.05,482.86
259.11323,463.64,479.00
259.13337,462.83,479.11
259.15370,460.06,481.48
259.17107,463.14,482.57
259.19221,460.92,481.83
259.21294,462.55,479.60
259.23295,462.24,480.09
259.25203,461.53,481.59
259.27211,464.85,480.22
259.29281,461.73,481.83
259.31308,460.87,483.19
259.33366,463.78,481.04
259.35348,460.15,480.40
259.37382,460.15,480.35
259.39324,460.56,483.51
259.41315,464.47,482.84
259.43355,460.76,483.50
259.45216,460.98,481.24
259.47112,463.02,482.68
259.49366,463.15,483.72
259.51368,463.54,480.92
259.53278,460.57,482.16
259.55372,462.68,484.62
259.57369,461.67,483.12
259.59278,462.04,481.75
259.61257,459.71,482.83
259.63207,461.98,481.96
259.65384,461.24,479.36
259.67257,464.43,479.54
259.69232,461.32,479.21
259.71311,464.19,483.40
259.73398,464.21,483.36
259.75232,460.76,480.28
259.77215,461.42,483.02
259.79202,462.29,481.56
259.81278,465.36,484.57
259.83244,466.46,481.30
259.85257,464.75,482.27
259.87187,462.24,480.88
259.89392,462.25,482.33
259.91471,460.35,481.08
259.93494,460.82,480.61
259.95512,458.84,481.08
259.97591,455.40,477.24
259.99547,455.55,479.90
260.01597,454.56,480.91
260.03507,457.64,478.19
260.05596,455.22,479.05
260.07419,457.75,477.20
260.09531,459.53,475.08
260.11423,457.88,477.34
260.13378,456.56,475.05
260.15323,457.92,472.62
260.17492,454.90,474.37
260.19412,456.19,473.77
260.21530,454.62,473.55
260.23578,454.51,470.43
260.25480,456.62,471.66
260.27414,454.85,481.87
260.29489,454.27,500.80
260.31479,455.13,525.37
260.33421,456.19,540.96
260.35354,458.66,554.11
260.37474,457.30,565.03
260.39410,459.32,564.96
260.41554,457.39,563.64
260.43513,454.85,560.53
260.45562,456.77,556.52
260.47475,456.38,553.11
260.49414,455.67,548.78
260.51526,459.46,540.94
260.53467,460.04,532.96
260.55380,457.96,530.53
260.57366,456.96,522.11
260.59557,455.82,514.85
260.61599,453.56,511.65
260.63424,453.17,506.53
260.65434,452.51,503.48
260.67669,452.45,500.68
260.69526,450.45,497.07
260.71552,452.60,495.31
260.73413,451.00,491.76
260.75477,451.35,494.18
260.77473,449.68,490.79
260.79536,450.30,487.34
260.81484,449.97,486.21
260.83468,450.99,485.74
260.85433,451.87,483.90
260.87551,450.01,486.01
260.89573,450.91,484.36
260.91464,448.90,483.02
260.93532,449.21,479.70
260.95411,448.50,482.77
260.97417,451.22,481.00
260.99460,450.37,479.61
261.01552,449.15,478.48
261.03581,447.41,479.17
261.05406,448.83,483.68
261.07428,450.45,481.61
261.09577,448.40,479.51
261.11580,444.15,463.12
261.13488,442.56,438.58
261.15568,442.64,412.72
261.17419,437.62,392.96
261.19610,437.37,380.49
261.21508,440.06,378.16
261.23455,440.52,378.12
261.25454,441.26,380.91
261.27522,440.47,386.35
261.29650,441.68,393.87
261.31592,441.72,402.75
261.33559,441.49,410.12
261.35547,445.19,415.41
261.37414,441.71,422.26
261.39477,444.85,429.25
261.41653,445.74,436.99
261.43696,444.59,442.06
261.45498,447.75,445.53
261.47512,445.40,450.45
261.49613,448.25,454.07
261.51519,448.65,456.80
261.53653,449.10,462.62
261.55499,446.81,464.22
261.57431,446.36,466.20
261.59588,449.70,467.29
261.61510,448.05,469.03
261.63470,449.01,471.65
261.65492,450.84,473.15
261.67569,447.26,473.91
261.69542,449.57,472.41
261.71657,449.68,474.71
261.73576,448.29,473.69
261.75404,446.59,474.42
261.77408,448.26,474.84
261.79576,447.95,475.09
261.81553,446.58,477.25
261.83557,448.12,473.91
261.85429,445.86,476.54
261.87430,444.27,475.92
261.89564,445.62,477.01
261.91428,446.32,477.42
261.93638,447.36,478.06
261.95564,446.13,475.50
261.97496,445.15,476.94
261.99499,447.09,478.62
262.01647,441.90,477.20
262.03619,445.79,476.30
262.05424,445.14,478.37
262.07528,445.87,476.30
262.09514,444.91,475.83
262.11666,442.98,476.45
262.13743,441.05,478.23
262.15689,441.16,478.44
262.17620,441.55,476.82
262.19724,444.27,475.90
262.21724,441.33,478.18
262.23682,442.86,477.00
262.25629,442.68,476.82
262.27647,442.85,477.64
262.29750,440.99,478.49
262.31763,443.67,474.97
262.33624,443.14,476.06
262.35671,446.04,475.04
262.37691,442.54,476.94
262.39698,441.81,477.59
262.41805,442.01,473.49
262.43800,445.00,475.85
262.45634,443.57,473.66
262.47746,444.11,475.18
262.49884,445.05,475.03
262.51760,444.42,472.17
262.53775,444.82,475.39
262.55897,443.11,471.90
262.57788,443.14,474.42
262.59842,442.98,473.70
262.61739,442.78,472.50
262.63741,442.70,474.26
262.65721,443.55,475.11
262.67741,444.73,473.48
262.69808,443.47,474.14
262.71713,445.95,473.41
262.73692,444.34,474.72
262.75776,443.98,474.59
262.77681,445.66,472.05
262.79735,443.81,472.87
262.81684,443.24,476.49
262.83607,446.46,478.20
262.85647,454.44,483.72
262.87841,472.75,498.93
262.89799,496.68,512.27
262.91722,516.72,524.07
262.93762,536.13,525.20
262.95733,547.01,518.88
262.97756,545.64,501.62
262.99664,540.76,482.96
263.01751,533.75,461.88
263.03704,520.21,445.17
263.05661,501.80,428.02
263.07777,483.69,410.42
263.09746,467.94,400.01
263.11898,447.92,390.89
263.13602,426.65,385.86
263.15663,414.60,385.22
263.17610,406.20,387.18
263.19863,403.76,394.95
263.21842,400.77,402.34
263.23891,404.52,412.37
263.25801,419.27,423.11
263.27786,440.84,433.50
263.29709,465.48,445.55
263.31997,486.67,457.41
263.33865,493.76,465.46
263.35979,496.61,472.15
263.37931,497.73,474.57
263.39970,491.10,480.06
263.41945,489.20,482.17
263.43962,481.97,486.90
263.46041,476.97,493.11
263.47949,467.79,493.52
263.49943,447.45,494.24
263.52068,418.32,482.28
263.54095,388.45,468.06
263.56036,359.99,453.40
263.58132,332.16,438.86
263.60133,313.00,427.53
263.62027,304.15,416.96
263.64178,305.97,415.25
263.66087,314.55,418.64
263.68128,327.93,423.12
263.70167,342.25,426.25
263.72258,361.14,433.47
263.74160,378.01,439.67
