Program Time [s],data 0,data 1
3.56965,513.68,503.93
3.56965,510.94,510.35
3.56967,511.48,510.08
3.56968,512.79,510.47
3.56969,513.43,511.77
3.5697,513.74,510.22
3.56971,513.79,507.58
3.56972,514.44,505.66
3.56973,514.35,503.93
3.56974,513.68,509
5.0837,510.4,507
5.10813,510.12,505.8
5.12868,510.5,505.44
5.14913,510.4,505.55
5.16964,510.32,506.44
5.19019,510.65,507.35
5.2146,510.32,509.68
5.23516,509.86,510.35
5.25574,509.49,511.68
5.27625,509.79,512.14
5.2967,510.03,510.71
5.31718,509.83,510.57
5.3416,510.26,508.86
5.36229,510.01,507.89
5.38271,510.41,505.91
5.40317,511.13,503.33
5.42365,510.3,501.86
5.44807,510.84,501.89
5.46863,511.27,502.11
5.4892,512.62,502.09
5.50965,511.49,501.87
5.53012,511.4,502.7
5.55059,512.12,504.96
5.57514,514.69,506.37
5.59566,514.15,508.09
5.61617,512.52,509.27
5.63656,511.42,510.62
5.65705,510.14,511.7
5.67753,509.31,512.16
5.70208,509.45,512.73
5.72257,509.56,510.78
5.74308,512.65,505.62
5.76355,519.52,501.3
5.7841,523.81,499.84
5.80851,525.85,499.67
5.82904,525.48,499.74
5.84963,525.18,499.99
5.8701,526.75,499.79
5.89052,525.4,501.23
5.91097,523.12,503.39
5.93553,521.69,504.71
5.95608,520.36,506.37
5.97652,518.88,507.29
5.99701,516.71,508.64
6.01756,516.57,508.71
6.04203,515.25,507.77
6.06258,515.8,506.21
6.08309,516.04,505.37
6.10358,516.43,504.9
6.12406,514.15,502.92
6.14453,513.72,501.93
6.16896,512.97,500.35
6.18952,512.18,500.28
6.20998,512.54,501.82
6.23047,511.83,504.46
6.25103,511.67,509.57
6.2755,509.93,516.45
6.29601,509.75,523.16
6.31647,512.2,527.33
6.33696,512.16,528.06
6.3575,510.33,526.25
6.37791,508.26,523.2
6.40252,509.41,519.16
6.42299,510.73,514.73
6.44352,512.18,510.58
6.46402,512.35,507.27
6.48448,511.08,503.61
6.50897,509.86,500.69
6.52946,510.09,497.75
6.54995,510.27,495
6.57049,511.02,494.2
6.59096,510.61,494.76
6.61149,512.09,496.01
6.63593,512.27,498.41
6.65648,512.42,501.73
6.67697,512.53,502.78
6.69765,514.03,504.22
6.71805,513.02,505.38
6.74264,512.02,506.9
6.76296,510.21,506.12
6.78343,508.57,505.9
6.80403,506.66,504.12
6.82466,508.73,502.69
6.84495,508.98,503.56
6.8695,507.78,502.64
6.88999,507.83,500.52
6.91043,507.46,499.01
6.93095,507.77,498.81
6.95137,508.02,498.65
6.97192,510.01,500.32
6.99654,509.61,503.05
7.01688,509.09,504.84
7.03744,508.87,507.08
7.05788,509.9,509.66
7.07835,510.12,509.73
7.10288,508.09,509.78
7.1235,509.07,510.23
7.14382,509.26,509.98
7.1644,510.41,509.98
7.18482,509.73,508.19
7.20545,509.58,506.95
7.22991,510.06,504.76
7.25042,510.65,501.81
7.27087,509.72,501.25
7.29133,509.78,501.2
7.31201,509.22,502.56
7.33627,509.58,503.85
7.35684,510.06,505.48
7.37734,510.85,506.98
7.39787,511.08,508.39
7.41838,511.46,510.11
7.43878,510.77,510.69
7.46334,510.22,511.95
7.48381,509.37,512.56
7.50457,509.5,512.65
7.52486,509.6,510.52
7.5455,509.88,507.41
7.56982,510.5,505.73
7.59037,509.2,505.39
7.61084,510.16,503.51
7.63131,511.73,502.41
7.65171,511.98,501.73
7.67239,511.39,501.78
7.69674,511.91,503.62
7.71733,511.73,503.7
7.73784,512.38,505.16
7.75837,511.71,506.93
7.77882,511.56,508.94
7.79928,510.65,509.95
7.82394,509.92,510.76
7.84426,509.54,509.81
7.8649,509.43,510.05
7.88524,507.94,508.24
7.90585,507.16,506.19
7.93017,507.72,504.15
7.95076,509.38,502.72
7.97127,509.9,500.78
7.99174,508.92,500.02
8.01217,510.54,499.62
8.03264,510.23,499.69
8.05719,511.18,500.76
8.07769,509.95,503.2
8.09832,511.36,505.36
8.11869,512.29,507.09
8.13927,512.23,507.87
8.16371,510.78,508.5
8.18439,510.63,510.4
8.20472,515.9,509.12
8.22517,511.72,509.7
8.24575,517.78,509.36
8.26619,520.82,517.68
8.29074,521.46,516.35
8.31121,532.97,510.48
8.33176,544.17,506.58
8.35216,527.34,499.67
8.37267,540.47,492.13
8.39715,513.58,496.51
8.41767,522.86,490.21
8.43819,527.09,483.96
8.45878,502.27,475.77
8.47926,483.62,479.82
8.49969,495.09,483.45
8.52419,495.87,483.36
8.54484,486.1,489.09
8.56522,491.28,494.67
8.5857,500.22,499.34
8.60618,510.18,503.27
8.63058,514.14,504.82
8.65109,517.31,505.65
8.6716,519.25,506.12
8.69212,520.6,507.1
8.71276,523.28,508.88
8.7332,530.82,508.9
8.75759,533.86,509.72
8.77817,535.29,512.58
8.79864,536.43,513.66
8.81909,537.14,514.73
8.83974,534.92,515.38
8.86009,533.13,516.11
8.88468,532.11,516.49
8.9051,528.08,515.99
8.92557,526.47,515.59
8.94602,523.37,513.87
8.96652,520.7,511.7
8.99097,517.76,509.76
9.01154,515.41,508.61
9.03206,513.93,506.49
9.05248,512.54,504.39
9.073,511.23,502.71
9.09366,511.19,501.77
9.11801,510.35,501.41
9.13849,508.88,501.73
9.15903,510.5,502.19
9.17948,509.6,503.15
9.20004,513.68,503.52
9.22449,515.55,504.62
9.24509,516.44,504.69
9.26549,514.95,504.35
9.28596,514.36,503.68
9.30649,512.69,504.35
9.32691,510.55,504.88
9.35151,507.44,503.3
9.37202,512.35,502.24
9.39253,518.68,500.99
9.41297,521.75,499.79
9.43358,525,499.04
9.45799,524.6,499.03
9.47842,522.68,499.62
9.49903,520.94,500.9
9.51954,518.95,502.12
9.53996,517.16,504.49
9.56046,516.53,507
9.58494,516.22,508.8
9.60554,515.38,510.24
9.62594,512.9,510.79
9.64643,511.92,510.83
9.66686,510.34,510.67
9.6914,509.67,510.53
9.71187,508.54,509.63
9.73244,506.03,507.9
9.75289,506.22,505.52
9.77345,505.58,504.02
9.79387,504.46,502.81
9.8185,504.17,502.65
9.83901,504.34,502.12
9.85948,505.47,502.9
9.88002,505.98,503.72
9.90037,506.78,504.97
9.92087,507.62,506.98
9.94544,508.9,507.98
9.96587,509.32,508.39
9.98645,507.86,508.91
10.0069,505.08,509.53
10.0274,503.87,509.62
10.0519,503.49,509.5
10.0724,502.4,507.8
10.093,501.92,506.24
10.1134,501.33,503.99
10.1339,500.47,502.79
10.1544,501.77,501.63
10.1789,502.02,501.51
10.1994,504.01,501.01
10.2199,505.61,500
10.2406,505.29,501.2
10.2609,506.63,503.56
10.2853,507.91,505.65
10.3059,508.12,508.32
10.3264,508.3,510.46
10.3469,508.24,511.37
10.3674,507.99,511.49
10.3878,507.19,511.59
10.4123,507.75,510.07
10.4328,507.8,508.86
10.4534,507.44,507.69
10.4739,506.75,505.75
10.4943,507.6,504.6
10.5189,509.08,503.08
10.5394,510.27,501.86
10.5598,509.41,502.09
10.5803,510.33,502.87
10.6007,510.66,504.5
10.6213,511.33,506
10.6457,511.07,506.4
10.6663,510.85,508.72
10.6869,512.28,509.98
10.7073,513.43,510.58
10.7278,514.34,510.26
10.7483,513.47,509.41
10.7727,513.38,509.53
10.7933,511.7,507.82
10.8138,509.76,505.86
10.8343,508.01,505.09
10.8549,506.81,503.87
10.8792,506.05,502.5
10.8997,505.84,501.8
10.9202,506.67,501.64
10.9407,507.14,501.51
10.9612,507.91,502.21
10.9817,507.13,504.97
11.0064,507.1,506.77
11.0268,506.88,508.22
11.0472,508.1,508.97
11.0678,508.28,509.78
11.0883,508.23,510.62
11.1127,508.38,511.3
11.1332,509.11,511.64
11.1537,509.08,510.11
11.1741,513.27,509.29
11.1947,517.01,508.63
11.2152,519.41,507.11
11.2396,520.13,506.68
11.2604,521.3,506.55
11.2807,521.04,505.64
11.3013,520.83,505.71
11.3217,521.07,506.17
11.3461,519.45,507.13
11.3666,519.36,508.91
11.3872,518.69,510.93
11.4076,517.15,511.14
11.4281,515.52,511.11
11.4486,516.02,511.49
11.4731,514.41,510.99
11.4937,513.33,509.99
11.5142,512.27,508.4
11.5347,511.81,506.92
11.5551,511.25,505.33
11.5796,511.2,503.87
11.6001,511.96,502.29
11.6206,510.77,501.03
11.6412,510.61,500.43
11.6616,510.09,500.54
11.6821,509.47,501.63
11.7065,509.58,503.11
11.7272,509.66,505.69
11.7476,509.13,506.75
11.7681,509.1,508.6
11.7886,510.28,509.68
11.8091,511.03,509.34
11.8335,509.22,509.47
11.8541,508.18,508.98
11.8746,508.34,507.78
11.895,508.67,506.63
11.9156,509.14,504.9
11.94,509.31,502.92
11.9606,508.65,502.14
11.9811,509.92,501.11
12.0016,509.94,501.29
12.0221,509.95,501.23
12.0425,509.76,501.98
12.067,508.21,503.99
12.0875,508.77,506.19
12.108,508.81,508.95
12.1285,509.05,510.76
12.1491,508.44,511.41
12.1735,509.35,511.93
12.1941,509.68,511.94
12.2145,509.35,510.75
12.235,509.68,509
12.2555,507.74,507
12.2761,506.99,506
12.3005,507.19,505.4
12.321,506.56,503.72
12.3415,507.44,502.98
12.3619,506.56,501.98
12.3826,508.24,501.79
12.4069,509.2,503.23
12.4275,509.96,505.78
12.448,510.77,509.43
12.4684,511.41,517.54
12.489,508.93,534.83
12.5094,507.34,565.87
12.5339,506.68,607.89
12.5544,504.54,649.51
12.575,501.23,682.61
12.5955,496.19,707.69
12.6159,492.35,724.15
12.6405,487.28,732.32
12.6609,481.42,733.46
12.6815,474.94,731.97
12.7019,468.55,725.57
12.7225,463.24,716.46
12.7428,460.79,703.97
12.7675,459.03,691.17
12.7879,458.63,676.14
12.8085,463.3,656.11
12.8289,468.84,625.49
12.8495,478.27,587.59
12.8699,487.62,542.87
12.8944,500.49,490.1
12.9149,517,435.08
12.9355,533.2,380.26
12.9559,548.36,331.81
12.9764,563.49,302.65
13.0008,570.59,292.52
13.0213,573.27,292.01
13.0419,571.02,298.81
13.0624,569.41,311.45
13.083,566.13,325.96
13.1035,561.9,341.37
13.1278,558.52,358.29
13.1484,553.02,376.04
13.1689,547.42,392.63
13.1894,543.13,407.5
13.2098,538.51,421.2
13.2343,534.2,433.16
13.2548,530.96,444.53
13.2753,528.57,453.82
13.2958,525.46,460.46
13.3163,521.97,466.17
13.3368,520.37,470.33
13.3614,518.9,474.27
13.3819,517.32,478.21
13.4026,515.85,480.37
13.4228,514.68,481.3
13.4432,514.35,480.64
13.4677,509.28,480.71
13.4883,506.22,482.37
13.5088,504.18,485.49
13.5294,503.14,487.4
13.5498,501.91,490.32
13.5704,502.33,493.65
13.5947,502.46,496.72
13.6152,502.57,498.58
13.6359,502.86,499.46
13.6563,502.89,500.37
13.6767,503.51,500.5
13.6972,504.41,500.4
13.7218,505.33,499.32
13.7423,504.86,498.25
13.7627,505.09,498.4
13.7832,506.27,498.52
13.8037,506.02,498.22
13.8283,511.41,497.77
13.8488,514.73,498.22
13.8692,517.58,500.18
13.8897,519.07,503.14
13.9102,519.45,505.11
13.9307,519.16,507.49
13.9552,517.93,509.59
13.9757,517.94,510.07
13.9962,516.56,510.06
14.0167,515.84,510.25
14.0372,514.68,509.4
14.0617,512.14,507.92
14.0822,511.91,506.53
14.1028,512.73,504.03
14.1232,510.78,502.42
14.1437,511.23,501.14
14.1641,511.38,499.91
14.1888,511.11,500.73
14.2092,512.08,501.98
14.2298,513.27,504.39
14.2502,511.81,506.51
14.2706,510.45,508.01
14.2951,508.96,509.21
14.3156,508.37,510.76
14.3361,508.3,511.41
14.3566,508.04,511.33
14.3771,507.23,512.66
14.3976,507.78,511.93
14.4221,508.03,509.74
14.4427,509.22,508
14.4631,509.18,506.4
14.4836,508.94,505.12
14.5041,508.55,503.89
14.5286,509.04,502.32
14.549,511.23,499.85
14.5696,510.79,500.28
14.5901,512.63,503.03
14.6107,511.5,504.82
14.6312,511,505.46
14.6556,510.8,506.36
14.6761,512.84,507.09
14.6966,512.67,509.27
14.717,512.14,510.02
14.7376,510.71,509.02
14.758,509.37,506.81
14.7828,510.7,505.85
14.8031,509.16,505.08
14.8235,507.72,503.26
14.8441,508.58,502.01
14.8646,509.66,501.01
14.889,510.53,501.41
14.9096,510.82,501.93
14.9301,510.26,500.94
14.9505,509.21,502.75
14.971,507.17,505
14.9915,507.53,507.4
15.016,507.43,509.32
15.0366,507.54,510.26
15.0571,508.83,509.41
15.0775,508.27,509.32
15.0979,508.21,510.26
15.1224,508.57,510.41
15.143,506.86,510.53
15.1636,506.89,508.82
15.1842,508.51,507.06
15.2046,508.01,505.45
15.2249,507.21,504.56
15.2495,507.96,503.85
15.27,507.97,504.48
15.2907,508.38,505.78
15.3112,508.9,507.02
15.3315,510.12,508.62
15.356,510.3,509.7
15.3764,510.44,510.56
15.3971,508.15,511.85
15.4175,509.32,512.28
15.438,507.26,513.22
15.4585,499.8,513.38
15.4829,496.24,512.5
15.5035,493.4,510.6
15.524,490.52,508.28
15.5445,489.21,506.22
15.565,489.97,504.98
15.5895,491.98,504.18
15.6099,494.78,503.55
15.6305,496.22,502.04
15.6509,496.98,502.63
15.6714,497.78,503.5
15.692,498.23,504.8
15.7163,498.98,506.24
15.7369,500.19,507.79
15.7575,499.75,509.84
15.778,499,511.07
15.7985,494.4,512.05
15.8189,488.12,511.84
15.8434,484.3,510.87
15.8639,483.64,508.3
15.8845,482.11,506.24
15.9049,482.89,503.99
15.9254,483.71,502.39
15.9499,484.97,500.91
15.9706,488.77,498.93
15.991,492.02,498.15
16.0113,495.22,498.92
16.0318,496.97,499.73
16.0526,497.58,501.79
16.0768,498.26,504.03
16.0974,500.01,505.62
16.1179,502.61,507.3
16.1385,504.29,508.24
16.159,503.23,509.59
16.1833,502.18,509.87
16.2038,502.55,509.7
16.2243,502.24,508.96
16.2449,503.39,507.57
16.2653,504.91,507.05
16.2859,506.33,504.64
16.3103,507.46,502.91
16.3308,506.77,501.93
16.3513,506.42,501.55
16.3719,508.13,502.64
16.3923,510.11,504.71
16.4168,509.09,506.37
16.4373,510.87,508.29
16.4579,510.89,510.23
16.4784,509.92,511.39
16.4989,508.13,512.71
16.5193,507.31,513.77
16.5438,505.24,513.41
16.5644,504.8,513.73
16.5848,506.24,512.19
16.6052,506.39,509.75
16.6257,507.11,507.4
16.6502,507.69,505.92
16.6707,505.75,505.34
16.6913,505.8,504.27
16.7117,507.24,503.21
16.7323,508.99,501.97
16.7528,508.59,502.38
16.7773,513.08,503.5
16.7978,517.46,505.6
16.8183,519.97,507.08
16.8388,520.57,508.26
16.8592,519.46,509.01
16.8797,524.97,511.41
16.9042,539.57,512.73
16.9249,550.66,512.58
16.9452,554.73,511.87
16.9657,556.58,510.89
16.9862,555.47,510.11
17.0106,554.57,508.29
17.0312,551.86,507.03
17.0519,546.89,505.83
17.0722,543.31,504.86
17.0927,540.65,504.49
17.1131,537.52,505.39
17.1377,533.61,505.91
17.1582,529.29,507.73
17.1786,526.23,509.18
17.1992,529.59,511.95
17.2196,538.27,513.56
17.2442,542.82,515.05
17.2647,543.45,515.44
17.2853,542.76,514.35
17.3057,541.01,512.48
17.3263,539.21,510.58
17.3466,536.57,507.87
17.3711,533.25,505.29
17.3919,532.4,504.03
17.4123,531.32,502.63
17.4327,530.46,502.7
17.4531,533.97,504.16
17.4777,538.57,506.13
17.4981,541.26,508.3
17.5187,541.61,510.64
17.5392,540.29,511.31
17.5596,539.23,512.25
17.5801,535.98,514.2
17.6047,533.59,513.76
17.6252,530.67,512.41
17.6456,527.74,510.93
17.6662,525.79,509.54
17.6865,524.03,509.23
17.711,525.62,511.79
17.7316,531.5,512.83
17.7523,534.2,512.66
17.7726,536.16,512.13
17.7932,536.93,511.3
17.8136,535.34,510.04
17.838,535.27,510.04
17.8585,533.82,510.23
17.8791,531.46,511.18
17.8995,530.16,511.75
17.92,529.13,512.6
17.9406,526.11,512.88
17.9651,523.48,512.5
17.9857,522.59,512
18.0061,520.87,511.2
18.0265,518.7,509.56
18.047,516.56,507.65
18.0715,513.05,503.12
18.0921,501.04,496.9
18.1125,483.03,492.92
18.1331,471.42,491.33
18.1535,465.34,491.07
18.1742,465.27,491.05
18.1985,466.42,492.84
18.2191,467.93,494.87
18.2395,470.75,497.5
18.2599,473,500.6
18.2805,476.2,504.08
18.3051,479.36,519.86
18.3255,476.29,541.49
18.346,469.03,551.99
18.3665,464.22,553.19
18.387,463.98,551.16
18.4074,465.98,545.72
18.4319,468.39,539.38
18.4525,470.71,532.1
18.4729,474.57,525.28
18.4935,478.65,520.03
18.514,481.92,517.42
18.5384,484.54,514.74
18.5589,488.43,513.19
18.5794,492.54,511.55
18.6,494.64,511.84
18.6205,496.11,512.67
18.641,497.89,514.34
18.6655,498.91,514.47
18.686,500.93,513.78
18.7065,500.94,513.02
18.7269,502.55,512.82
18.7475,503.64,511.05
18.7718,505.91,509.24
18.7925,505.73,506.79
18.813,506.99,504.84
18.8335,507.39,502.87
18.854,507.11,502.69
18.8743,508.69,502.36
18.8988,508.55,503.28
18.9194,509.24,504.63
18.94,510.59,506.3
18.9603,509.67,508.24
18.9811,509.14,509.39
19.0013,509.11,510.91
19.0258,507.69,511.93
19.0464,507.55,512.75
19.0668,506.84,512.2
19.0873,505.87,511.56
19.1079,505.9,510.65
19.1324,506.12,505.32
19.1529,505.69,501.05
19.1733,505.16,497.64
19.1938,505.32,495.71
19.2144,505.26,493.97
19.2348,506.81,493.78
19.2594,507.65,494.22
19.2799,507.92,494.78
19.3004,508.93,497.02
19.3209,509.75,499.42
19.3413,510,501.93
19.3658,509.6,505.15
19.3863,507.68,504.52
19.4068,511.14,502.21
19.4273,514.51,499.97
19.4478,518.01,499.18
19.4683,519.01,498.34
19.4929,519.61,497.07
19.5134,518.89,495.46
19.5339,519.51,493.77
19.5542,518.41,492.01
19.5747,516.93,491.21
19.5993,515.94,491.97
19.6199,515.75,492.77
19.6403,515,495.02
19.6608,513.4,497.02
19.6812,512.72,499.41
19.7018,512.18,502.53
19.7263,512.94,505.62
19.7467,512.35,507.3
19.7672,511.68,508.44
19.7877,511.75,509.35
19.8082,511.8,509.68
19.8287,512.84,510.35
19.8533,513.07,509.08
19.8738,512.26,505.86
19.8942,514.2,503.49
19.9147,513.76,502.19
19.9351,513.81,501.55
19.9596,513.65,501.04
19.9803,512.92,501.83
20.0007,512.74,503.07
20.0212,513.99,502.85
20.0417,513.99,502.28
20.0622,512.59,502.63
20.0867,510.87,503.5
20.1072,510.5,504.6
20.1276,510.6,504.88
20.1482,510.28,505.5
20.1686,509.62,504.8
20.1931,508.9,501.04
20.2137,509.12,495.43
20.2342,509.9,492.15
20.2546,511.52,488.72
20.2751,512.21,486.97
20.2955,512.97,485.58
20.3202,514.38,485.46
20.3408,513.1,486.97
20.3611,513.08,487.98
20.3818,513.86,490.18
20.4021,512.49,492.95
20.4267,512.19,496.56
20.4472,511.75,499.44
20.4677,511.4,501.56
20.4882,510.52,503.44
20.5087,509.02,504.56
20.5291,508.61,504.84
20.5536,506.69,502.28
20.5741,507.55,498.22
20.5946,508.64,496.18
20.6153,507.71,494.94
20.6356,508.17,494.55
20.656,508.14,494.04
20.6805,509.91,493.63
20.7012,509.33,494.31
20.7217,508.86,496.45
20.7421,510.29,498.16
20.7625,511.03,500.33
20.787,510.83,501.86
20.8075,509.26,504.09
20.8282,505.41,506.27
20.8486,503.33,506.82
20.8691,503.26,506.65
20.8897,501.41,506.12
20.914,500.93,505.7
20.9345,500.34,504.76
20.9551,501.27,505.01
20.9755,502.42,503.61
20.9961,502.14,502.88
21.0205,501.71,502.91
21.0411,502.37,503.53
21.0616,501.69,504.22
21.082,508.75,507.58
21.1025,517,509.46
21.123,522.8,512.37
21.1476,527.84,514.5
21.168,528.47,516.4
21.1885,527.98,516.12
21.2091,526.98,515.89
21.2295,526.19,515.91
21.254,525.95,514.53
21.2745,524.16,513.23
21.295,522.33,510.98
21.3156,520.66,509.38
21.336,518.93,507.31
21.3565,517.34,506.25
21.3809,517.28,504.8
21.4015,515.62,504.24
21.422,514.1,503.99
21.4425,513.28,504.79
21.463,511.42,505.43
21.4874,510.74,507.15
21.508,510.99,509.12
21.5285,509.19,513.29
21.549,504.75,516.04
21.5696,501.4,517.23
21.5899,500.12,516.98
21.6144,500.5,515.39
21.635,500.8,513.91
21.6555,500.64,512.73
21.676,501.71,511.38
21.6964,501.17,509.71
21.7208,501.94,508.16
21.7414,502.75,506.33
21.7621,503,505.87
21.7824,505,506.09
21.803,506.8,507.07
21.8233,508.04,507.86
21.8479,508.63,509.29
21.8684,507.71,511.03
21.889,507.36,513.02
21.9094,507.69,513.22
21.9299,506.55,513.78
21.9504,505.44,513.82
21.9749,503.95,513.86
21.9954,504.36,512.68
22.0158,504.89,511.75
22.0363,506.51,508.8
22.0569,514.21,506.44
22.0814,518.57,504.55
22.1019,522.05,504.04
22.1223,524.64,503.43
22.1429,525.71,503.55
22.1633,524.97,504.64
22.1838,522.58,506.31
22.2083,521.26,509.05
22.2288,521.21,511.04
22.2495,519.37,512.03
22.2699,518.89,512.42
22.2903,516.52,512.34
22.3148,515.81,512.07
22.3354,515.25,511.26
22.3558,514.4,510.21
22.3764,512.92,509.76
22.3968,511.74,508.61
22.4174,509.79,506.89
22.4418,509.83,505.71
22.4623,508.86,503.37
22.4828,512.49,501.3
22.5032,517.19,500.44
22.5237,521.95,501.35
22.5482,523.56,503.68
22.5689,525.25,505.14
22.5893,524.2,507.51
22.6097,524.96,509.01
22.6302,522.77,510.21
22.6507,521.01,511.17
22.6752,520.01,511.73
22.6957,516.81,510.79
22.7162,516.45,509.23
22.7368,516.56,507.78
22.7572,517.65,507.63
22.7818,516.72,505.9
22.8022,514.37,504.32
22.8227,513.5,502.86
22.8435,513.4,502.49
22.8637,513.72,502.79
22.8842,511.78,504.03
22.9086,510.22,503.82
22.9293,509.18,505.66
22.9497,507.94,507.53
22.9702,511.75,510.22
22.9907,518.6,512.18
23.0111,523.48,512.94
23.0357,527.79,513.35
23.0563,527.43,513.08
23.0766,526.14,512.47
23.0972,524.91,510.37
23.1177,524.13,508.7
23.1421,522.31,506.76
23.1626,518.84,505.81
23.1832,518.48,504.25
23.2037,516.78,503.2
23.2242,517.42,502.96
23.2447,517.74,503.17
23.2691,517.19,505.13
23.2897,514.35,506.71
23.3101,517.08,508.16
23.3306,521.07,509.93
23.3512,523.45,511.55
23.3756,524.36,512.24
23.3962,524.29,512.19
23.4167,524.03,511.15
23.4372,524.43,510.12
23.4577,523.94,507.9
23.478,522.15,505.72
23.5026,520.72,503.17
23.5232,517.98,501.74
23.5437,517.38,501.79
23.5641,517.91,502.23
23.5846,517.52,502.79
23.609,517.42,504.03
23.6295,516.14,505.02
23.6501,515.31,507.22
23.6707,513.25,509.38
23.6912,513.4,511.5
23.7116,511.72,512
23.7361,510.37,511.8
23.7566,509.5,512.24
23.7771,501.8,509.99
23.7975,488.44,506.79
23.8181,474.75,504.23
23.8426,468.2,502.19
23.8631,464.36,500.35
23.8835,464.69,499.48
23.904,465.35,498.78
23.9245,468.28,498.63
23.9452,471.82,499.9
23.9695,474.06,502.12
23.99,477.45,503.7
24.0106,480.96,505.96
24.031,484.57,508.37
24.0515,488.05,509.89
24.072,492.24,512.11
24.0965,495.79,512.89
24.117,497.44,511.71
24.1375,499.35,509.97
24.1581,498.08,509.58
24.1785,491.66,509.26
24.2029,480.73,508.61
24.2237,471.58,508.49
24.244,468.27,506.79
24.2645,469.21,505.23
24.285,468.57,503.19
24.3055,470.46,502.75
24.3299,473.57,504
24.3506,474.85,505.8
24.371,475.88,507.84
24.3915,474.31,509.47
24.412,474.44,510.78
24.4366,476.36,510.62
24.4569,477.88,510.7
24.4774,479.31,511.16
24.4979,482.65,509.53
24.5183,485.12,507.42
24.5388,487.69,505.94
24.5634,487.55,505.75
24.5839,484.44,504.6
24.6046,479.56,503.68
24.625,478.04,502.14
24.6454,477.24,501.32
24.6698,478.19,501.65
24.6903,482.35,503.32
24.7109,484.48,505.06
24.7316,486.58,507.85
24.7518,489.27,509.68
24.7723,493.81,511.34
24.7968,496.45,510.27
24.8174,496.76,508.42
24.8379,496.01,507.53
24.8584,492.81,506.23
24.8788,493.85,505.18
24.9033,494.88,503.95
24.9239,494.9,501.76
24.9445,494.12,500.01
24.965,500.1,497.2
24.9854,516.88,496.36
25.0059,534.3,496.09
25.0304,545.84,497.47
25.0509,550.47,499.18
25.0714,552.78,501.54
25.0918,553.62,503.03
25.1125,553.3,505.43
25.1328,551.24,508.14
25.1574,546.79,509.91
25.1779,543.23,510.93
25.1983,541.59,510.94
25.2188,537.27,510.76
25.2394,533.82,509.8
25.2639,529.05,508.04
25.2843,527.24,506.83
25.3048,524.19,503.87
25.3254,529.75,501.29
25.3458,536.6,500.24
25.3662,541.28,500.59
25.3908,542.43,500.67
25.4113,542.54,501.54
25.4319,542.03,502.63
25.4522,540.43,505.3
25.4727,537.94,508.04
25.4972,535.35,511.03
25.518,533.48,513.23
25.5383,529.99,514.58
25.5587,526.59,515.07
25.5792,523.67,512.25
25.5998,524.74,506.8
25.6242,533.59,503.64
25.6447,541.47,500.51
25.6652,545.98,498.41
25.6857,548.58,497.33
25.7062,549.07,497.46
25.7306,547.25,497.37
25.7512,545.4,498.3
25.7718,542.52,500.24
25.7923,540.42,502.19
25.8127,538.13,503.95
25.8332,535.11,506.16
25.8577,533.29,507.33
25.8782,529.23,508.46
25.8988,526.98,508.57
25.9192,523.79,507.86
25.9397,523.03,507.49
25.9641,522.62,505.99
25.9846,520.3,505.19
26.0052,518.24,503.95
26.0258,517.19,502.96
26.0462,515.95,502.37
26.0667,514.96,501.5
26.0911,519.17,502
26.1117,527.54,502.4
26.1323,534.23,503.12
26.1528,539.18,504.69
26.1732,541.75,506.16
26.1975,540.8,506.32
26.2181,537.64,507.86
26.2387,535.11,508.49
26.2591,533.69,509.39
26.2797,532.55,508.91
26.3001,530.24,507.53
26.3245,529.79,507.62
26.3451,537.83,506.3
26.3656,548.47,505.64
26.3861,553.97,504.51
26.4065,557.98,504.21
26.4271,558.38,503.17
26.4516,557.11,502.93
26.4722,554.29,503.55
26.4927,550.83,504.64
26.5131,545.86,506.31
26.5336,543.29,507.05
26.558,540.43,509.04
26.5787,537.35,510.23
26.5991,532.68,510.18
26.6195,530.34,510.15
26.6401,527.87,509.72
26.6606,526.1,509.17
26.685,525.68,511.94
26.7056,524.74,514.15
26.726,524.19,515.72
26.7466,524.36,515.38
26.767,523.68,515.5
26.7916,521.75,514.2
26.812,522.6,512.36
26.8327,521.28,511.89
26.8532,519.22,512.91
26.8735,518.58,512.73
26.8941,518.06,512.78
26.9185,517.05,513.43
26.9391,515.64,513.94
26.9596,514.31,513.35
26.98,513.65,513.68
27.0005,515.12,512.35
27.0249,513.9,509.68
27.0456,512.72,508.14
27.066,512.17,506.31
27.0867,513.34,504.85
27.107,513.47,503.28
27.1275,513.98,501.82
27.1522,513.18,501.26
27.1726,513.15,501.21
27.1929,514.52,502.37
27.2135,516.01,503.89
27.2339,513.81,505.31
27.2584,512.65,508.05
27.279,511.92,509.44
27.2995,512.93,510.55
27.3202,514.55,511.24
27.3405,514.24,511.19
27.361,511.79,510.96
27.3855,509.63,509.56
27.406,509.91,507.65
27.4266,507.32,506.12
27.447,508.46,504.9
27.4675,508.57,503.52
27.492,509.25,501.81
27.5126,511.2,501.85
27.533,511.56,502.08
27.5534,511.45,503.26
27.5739,511.76,505.21
27.5944,512.41,506.57
27.6189,512.93,507.86
27.6395,512.74,508.68
27.66,512.59,510.15
27.6805,513.47,510.92
27.7009,512.78,511.13
27.7215,510.62,510.51
27.7459,510.9,510.01
27.7664,510.72,508.8
27.7869,509.18,507.64
27.8076,509.34,506.92
27.8279,510.47,506.33
27.8523,507.18,506.47
27.8728,499.74,507.37
27.8934,485.99,509.9
27.914,476.8,511.32
27.9345,474.04,513.65
27.9549,470.83,515.52
27.9794,470.26,517.42
27.9999,470.41,518.54
28.0203,472.73,518.43
28.0409,476.18,518.54
28.0614,477.35,517.83
28.0858,478.48,516.07
28.1063,482.98,515.25
28.1269,486.59,515
28.1473,488.67,513.4
28.1678,489.13,512.12
28.1883,493.11,509.3
28.2128,495.49,507.24
28.2334,499.99,505.39
28.2539,500.79,505.31
28.2743,500.43,505.85
28.2947,501.95,506.48
28.3192,503.16,507.78
28.3399,502.33,509.63
28.3603,499.86,510.7
28.3808,496.89,510.96
28.4014,496.11,511.37
28.4218,497.09,511.1
28.4462,497.47,510.48
28.4669,497.38,509.78
28.4873,496.5,508.42
28.5079,497,506.54
28.5282,498,505.23
28.5529,500.4,503.19
28.5733,501.92,502.15
28.5938,498.94,501.72
28.6144,492.35,501.77
28.6348,487.48,502.22
28.6553,485.58,503.38
28.6797,486.27,504.9
28.7004,486.01,506.32
28.7208,486.01,508.86
28.7412,487.81,510.09
28.7617,489.65,510.27
28.7821,491.52,509.21
28.8067,492.01,508.77
28.8272,492.41,508.42
28.8477,493.13,506.73
28.8682,493.9,504.59
28.8886,496.12,502.87
28.9132,498.3,501.3
28.9339,500.84,500.04
28.9543,503.47,500.03
28.9747,504.78,500.62
28.9952,505.22,502.3
29.0156,504.18,504.24
29.0402,504.94,505.99
29.0607,505.55,508.19
29.0812,506.44,510.55
29.1017,507.35,512.64
29.1224,505.88,515.51
29.1466,498.51,516.61
29.1672,490.21,517.09
29.1878,484.36,514.87
29.2081,480.89,511.9
29.2287,480.31,509.72
29.2491,481.25,506.37
29.2736,482.4,503.5
29.2942,483.52,501.4
29.3147,486.22,500.12
29.3351,489.17,500.7
29.3556,491.74,501.56
29.3802,493.79,503.25
29.4006,495.43,504.8
29.4212,497.15,506.04
29.4417,499.12,507.03
29.4621,501.09,506.82
29.4826,502.27,506.06
29.5071,499.02,504.25
29.5277,493.02,502.4
29.5481,489.81,500.52
29.5686,488.45,499.81
29.589,487.56,498.45
29.6096,485.65,496.36
29.6341,486.92,495.69
29.6546,488.93,495.35
29.675,490.95,495.68
29.6956,493.16,496.74
29.7161,495.93,499
29.7405,497.14,501.2
29.7611,496.91,503.16
29.7816,498.53,505.33
29.8021,499.82,506.46
29.8225,500.06,507.17
29.843,507.65,509.73
29.8675,521.52,511.19
29.888,529.21,510.95
29.9085,534.17,509.76
29.929,536.74,507.81
29.9495,535.79,506.65
29.974,534.43,506.52
29.9944,537.35,507.21
30.0151,545.28,507.17
30.0355,549.82,507.14
30.0559,551.66,508.11
30.0765,550.93,509.09
30.1011,548.34,509.87
30.1215,546.47,510.7
30.1421,542.58,511.96
30.1625,539.26,513.37
30.183,536.41,513.69
30.2075,533.33,513.55
30.2279,530.86,512.64
30.2485,526.89,511.31
30.269,523.51,510.85
30.2895,521.41,508.48
30.3099,520.33,506.39
30.3344,519.06,505.11
30.355,517.05,503.29
30.3755,516.24,502.83
30.396,515.59,502.66
30.4165,514.87,502.73
30.4409,513.5,504.38
30.4615,511.4,507.31
30.4819,510.72,509.45
30.5024,510.78,511.36
30.523,510.82,512.29
30.5433,513.86,512.43
30.5679,519.69,512.94
30.5885,522.15,513.15
30.6089,523.72,512.12
30.6293,524.57,511.1
30.6499,525.26,508.88
30.6703,523.81,506.7
30.6949,521.85,504.96
30.7155,521.48,503.97
30.7361,521.58,503.38
30.7565,520.67,503.9
30.777,519.13,504.32
30.8014,518.31,506.06
30.8219,518.24,508.65
30.8424,518,511.12
30.8628,516.6,513.09
30.8834,516.08,515.87
30.9038,514.46,516.5
30.9283,518.37,517.2
30.9488,521.9,516.76
30.9694,523.52,515.61
30.9899,524.61,513.89
31.0102,525.29,511.91
31.0347,524.63,508.93
31.0553,524.71,506.54
31.0758,523.36,504.23
31.0963,521.69,503.39
31.1168,522.75,502.91
31.1372,522.8,503.33
31.1618,521.24,504.06
31.1823,519.99,505.85
31.2029,517.4,507.68
31.2233,516.12,509.74
31.2439,514.09,510
31.2684,514.07,510.8
31.2887,514.06,510.64
31.3095,513.85,510.11
31.3298,510.88,509.49
31.3503,510.9,509.19
31.3708,510.32,507.75
31.3953,510.66,506.8
31.4161,513.33,506.04
31.4365,518.66,504.83
31.4569,522.53,504.47
31.4773,524.22,503.97
31.5017,525.38,503.78
31.5222,524.9,504.62
31.5428,523.32,506.1
31.5632,522.66,507.28
31.5838,521.33,508.82
31.6042,521.06,510.26
31.6287,520.05,511.41
31.6493,518.64,511.33
31.6697,517.51,510.86
31.6901,515.81,510.09
31.7107,513.85,509.07
31.7311,513.68,507.66
31.7557,512.54,505.13
31.7762,511.83,503.3
31.7966,510.27,502.24
31.8173,510.21,503.19
31.8377,510.97,501.95
31.8621,504.58,502.16
31.8828,492.06,503.33
31.9034,483.65,504.46
31.9238,479.72,506.37
31.9443,478.78,508.3
31.9648,479.02,510.24
31.9893,480.62,511.79
32.0097,482.89,512.43
32.0301,485.51,512.15
32.0506,486.41,511.72
32.0711,487.93,510.77
32.0956,490.74,508.62
32.1161,493.19,507.29
32.1366,494.16,505.64
32.1571,494.92,504.71
32.1776,497.74,504.57
32.198,500.99,504.25
32.2226,502.99,504.4
32.2431,504.39,505.52
32.2636,505.32,509.02
32.2841,505.25,518.81
32.3045,505.6,524.65
32.329,505.48,527.92
32.3495,505.19,528.94
32.3701,506.15,527.95
32.3906,506.72,526.16
32.411,507.37,523.73
32.4315,507.7,520.58
32.456,507.56,517.87
32.4765,508.25,514.89
32.4971,507.8,511.31
32.5175,507.24,508.25
32.538,506.79,505.8
32.5625,509.23,504.04
32.583,507.99,504.23
32.6035,507.79,505.39
32.6241,507.43,507.71
32.6445,506.75,508.97
32.6652,507.2,509.57
32.6895,508.36,509.86
32.71,508.09,509.69
32.7305,508.27,509.15
32.751,508.81,509.52
32.7715,510.45,509.42
32.792,504.56,509.13
32.8164,498.05,507.51
32.837,494.64,505.6
32.8574,493.51,502.88
32.878,493.21,500.31
32.8984,492.97,498.65
32.923,494.37,498.52
32.9435,494.9,498.81
32.964,496.52,499.65
32.9845,497.62,501.12
33.0049,500.69,502.9
33.0254,504.35,503.72
33.05,505.48,504.97
33.0705,507.59,504.78
33.0911,509.67,505.02
33.1116,511.54,504.22
33.1319,512.03,503.57
33.1564,511.22,501.66
33.1769,510.98,501.13
33.1974,511.98,501.3
33.2179,511.59,500.04
33.2384,511.27,498.63
33.2589,511.62,497.71
33.2835,514.09,497.97
33.304,515.27,498.37
33.3244,516.02,501.1
33.3449,516.62,503.68
33.3654,515.09,505.74
33.3898,515.07,508.19
33.4104,514.46,510.36
33.4309,514.57,511.48
33.4515,514.05,512.39
33.4719,513.24,512.31
33.4924,512.59,512.05
33.5169,511.88,512.64
33.5375,513.1,504.11
33.5581,519.68,491.69
33.5784,528.54,484.35
33.5989,534.04,480.48
33.6236,536.43,478.78
33.6439,536.94,479.03
33.6647,535.75,479.62
33.685,535.2,482.5
33.7053,534.16,486.8
33.726,532.53,490.24
33.7504,530.62,493.19
33.7709,527.3,495.75
33.7915,525.64,498.2
33.812,524.91,500.16
33.8324,522.53,501.33
33.8529,519.82,501.66
33.8774,518.46,501.13
33.898,519.37,501.7
33.9186,528.49,503.16
33.9389,536.99,503.53
33.9593,541.8,504.42
33.9837,543.04,505.34
34.0043,544.83,505.47
34.0249,543.86,506.18
34.0453,541.09,507.74
34.0659,537.27,508.39
34.0863,534.62,509.11
34.1109,533.09,510.09
34.1314,531.28,511.67
34.1517,527.82,512.74
34.1723,523.46,512.39
34.1928,521.57,512.71
34.2173,520.25,511.17
34.2379,517,516.14
34.2583,516.8,520.31
34.2787,518.44,521.25
34.2993,518.95,520.6
34.3197,519.56,519.68
34.3442,519.65,518.14
34.3648,519.92,517.11
34.3852,518.74,516.49
34.4058,517.39,515.99
34.4262,514.11,516.39
34.4507,514.09,517.52
34.4712,512.27,518.41
34.4917,512.42,518.73
34.5122,511.93,516.78
34.5326,511.15,516.43
34.5532,510.92,515.94
34.5777,510.93,514.55
34.5982,511.75,513.24
34.6187,512.6,512.79
34.6392,512.28,513.64
34.6598,511.82,516.11
34.6842,513.66,518.49
34.7047,514.33,520.79
34.7252,514.66,524.23
34.7458,513.53,529.79
34.7661,511.22,534.63
34.7867,508.98,537.9
34.8111,504.58,538.12
34.8317,501.47,535.3
34.8521,500.17,530.04
34.8728,499.74,524.63
34.8933,498.99,520.1
34.9176,497.79,514.28
34.9383,498.83,508.83
34.9588,498.67,503.86
34.9792,500.93,499.09
34.9998,500.15,494.67
35.0202,500.12,491.74
35.0446,500.89,489.79
35.0653,502.32,489.23
35.0858,503.85,487.79
35.1063,513.28,490.63
35.1267,523.03,493.1
35.1471,531.62,495.08
35.1717,536.1,498.07
35.1923,537.48,499.45
35.2127,535.78,503.36
35.2331,533.03,505.09
35.2536,533.42,517.87
35.2781,534.74,549.3
35.2987,537.19,585.64
35.3193,540.75,623.71
35.3397,545.8,655.97
35.3601,553.04,683.57
35.3808,556.43,706.06
35.4052,555.75,723.05
35.4257,553.2,735.64
35.446,547.16,745.31
35.4667,535.33,751.05
35.487,520.06,751.44
35.5116,504.85,747.35
35.5321,486.68,738.68
35.5526,468.34,727.74
35.573,451.67,712.8
35.5936,439.14,693.24
35.6141,430.91,667.39
35.6385,424.93,635.11
35.6592,426.94,598.09
35.6795,430.95,558.27
35.7001,440.56,518.42
35.7207,454.05,472.13
35.7452,471.84,416.31
35.7656,492.07,357.45
35.7861,513.86,304.76
35.8067,533.49,266.01
35.827,546.59,248.8
35.8475,552.07,248.84
35.872,555.66,259.07
35.8925,557.13,274.06
35.913,556.7,291.65
35.9335,551.76,312.12
35.9541,548.01,332.89
35.9744,543.41,352.32
35.9989,538.13,370.05
36.0195,535.7,385.64
36.04,532.76,399.51
36.0605,530.41,412.61
36.0809,527.73,423.29
36.1056,525.58,432.43
36.126,523.46,441.94
36.1466,522.17,450.96
36.1669,519.74,456.36
36.1876,517.39,460.09
36.208,516.11,465.47
36.2325,515.29,471.38
36.2532,514.83,476.9
36.2735,515.27,482.32
36.2939,513.21,487.06
36.3144,511.77,491.25
36.3389,512.02,494.8
36.3594,511.81,496.64
36.3799,510.85,497.91
36.4004,508.88,499.33
36.421,508.9,500.26
36.4415,509.12,500.01
36.4658,510.5,499.41
36.4866,510.6,498.93
36.507,510.08,499.14
36.5274,510.26,499.91
36.548,512.41,500.93
36.5724,511.33,502.54
36.5929,510.46,504.44
36.6135,509.97,506.35
36.6339,509.98,508.48
36.6543,511.18,508.98
36.6748,511.54,509.59
36.6995,510.24,510.47
36.7199,509.79,510.98
36.7404,505.83,509.98
36.7609,503.06,508.78
36.7814,500.45,507.83
36.8018,500.16,506.66
36.8264,500.13,505.73
36.8469,500.3,503.78
36.8674,500.44,503.03
36.8878,501.35,502.62
36.9084,503.08,504.3
36.9329,505.67,505.64
36.9534,506.93,506.51
36.9739,507.35,508.21
36.9945,509.08,509.57
37.015,509.26,510.45
37.0354,508.61,511.36
37.0598,508.69,512.29
37.0804,509.35,512.63
37.1008,509.08,510.71
37.1214,508.26,509.16
37.1419,507.81,506.93
37.1662,508.25,505.15
37.1868,507.8,502.92
37.2073,507.04,501.73
37.2278,504.43,500.19
37.2484,504.75,500.15
37.2687,504.6,500.92
37.2933,505.08,503.34
37.3139,504.26,504.47
37.3344,504.81,505.37
37.3548,505.25,507.3
37.3753,506.2,508.84
37.3997,505.36,509.47
37.4203,504.29,509.98
37.4407,505.03,509.78
37.4613,503.82,509.23
37.4819,503.86,508.38
37.5024,505.29,507.7
37.5267,506.43,505.96
37.5474,507.54,505.37
37.5678,508.64,504.1
37.5883,512.71,503.48
37.6088,515.17,502.98
37.6333,516.33,503.39
37.6537,516.87,504.31
37.6744,519.09,505.25
37.6948,519.87,506.2
37.7154,518.9,507.76
37.7358,516.12,509.81
37.7603,515.3,511.45
37.7807,513.64,511.96
37.8012,512.91,510.96
37.8216,512.73,510.17
37.8424,511.38,509.54
37.8627,511.71,508.63
37.8872,511.76,507.3
37.9077,511.41,506.04
37.9282,511.53,505.23
37.9487,511.42,505.59
37.9695,510.94,504.87
37.9939,510.95,506.1
38.0142,510.16,507.88
38.0348,506.93,509.1
38.0552,506.74,510.68
38.0757,507.79,511.35
38.0961,509.04,511.28
38.1206,508.43,511.62
38.1411,509.54,510.9
38.1617,510.23,509.72
38.1821,509.59,508.57
38.2025,509.47,506.66
38.2272,507.78,505.33
38.2477,508.82,504.46
38.2681,510.86,504.17
38.2886,512.09,502.94
38.309,512.27,501.75
38.3296,512.61,502.2
38.3541,513.69,502.96
38.3746,514.55,503.77
38.395,516.24,505.81
38.4156,515.79,507.25
38.4361,515.64,509.4
38.4606,515.51,510.12
38.481,514.81,511.1
38.5015,514.45,510.88
38.5221,512.56,510.9
38.5425,511.45,510.12
38.563,510.96,508.3
38.5875,511.56,506.64
38.6081,510.05,505.31
38.6285,509.84,504.25
38.649,509.87,504.2
38.6695,511.9,503.56
38.694,511.92,503.05
38.7145,510.54,503.24
38.735,510.03,505.19
38.7555,509.02,507.35
38.7761,507.82,507.68
38.7966,509.85,508.55
38.8209,512.88,508.84
38.8414,514.11,509.27
38.862,515.09,509.62
38.8825,514.87,509.69
38.9029,514.09,508.75
38.9275,513.08,507.2
38.948,511.86,506.56
38.9687,514.09,506.05
38.989,518.47,505.04
39.0095,520.78,503.83
39.03,522.82,503.67
39.0545,523.86,504.13
39.0749,524.89,504.91
39.0954,524.91,506.32
39.1159,524.13,508.26
39.1365,523.7,510.21
39.1569,522.56,510.77
39.1814,520.05,512.41
39.2019,516.64,513.53
39.2225,515.31,514.22
39.2429,513.05,513.78
39.2634,512.24,512.82
39.2879,512.19,511.06
39.3084,512.15,509.05
39.329,512.32,507.84
39.3495,512.86,505.87
39.3699,512.69,504.3
39.3904,511.15,504.24
39.4148,511.72,504.19
39.4355,511.38,504.95
39.4559,511.5,506.76
39.4765,514,508.01
39.4968,516.8,509.61
39.5213,518.24,511.69
39.5419,519.39,511.75
39.5624,519.11,511.4
39.5828,519.09,511.32
39.6033,517.07,510.06
39.6237,516.66,509.04
39.6483,516.13,507.24
39.6689,516.3,505.59
39.6894,515.44,503.87
39.7099,513.95,502.3
39.7303,513.96,501.24
39.7547,513.77,501.19
39.7753,514.82,501.95
39.7959,514.85,503.16
39.8164,513.08,504.53
39.8368,513.27,506.82
39.8573,514.81,507.86
39.8818,517.85,509.89
39.9023,517.68,511.91
39.9228,518.34,512.73
39.9433,517.48,512.98
39.9638,517.18,512.59
39.9884,518.34,511.67
40.0088,518.68,510.13
40.0293,516.34,508.91
40.0498,516.07,507.53
40.0705,515.26,506.62
40.0908,515.61,505.5
40.1152,517.09,504
40.1358,517.27,503.2
40.1563,517.01,503.16
40.177,517.01,503.93
40.1973,516.61,504.74
40.2178,514.09,507.39
40.2423,513.67,509.91
40.2627,515.14,511.13
40.2833,514.51,510.51
40.3037,514.81,510
40.3242,513.05,510
40.3488,512.44,510.2
40.3692,511.15,509.36
40.3898,509.72,509.69
40.4102,507.58,508.35
40.4307,504.66,507.08
40.4512,502.53,504.47
40.4757,502.22,502.57
40.4963,502.78,501.46
40.5167,505.02,502.17
40.5373,505.02,502.93
40.5576,505.61,503.95
40.5823,505.89,504.96
40.6029,504.51,506.37
40.6233,503.61,506.29
40.6436,503.89,507.63
40.6641,503.71,508.11
40.6847,504.17,509.89
40.7092,503.33,509.71
40.7298,500.47,508.97
40.7502,497.57,506.57
40.7707,493.46,504.26
40.7912,491.77,503.21
40.8157,489.41,502.37
40.8361,488.93,502.69
40.8566,489.95,503.15
40.8772,490.76,503.52
40.8976,491.2,504.82
40.9182,491.76,505.85
40.9426,493.41,507.08
40.9631,496.33,508.87
40.9836,496.66,509.49
41.0043,496.93,510.99
41.0247,496.14,517.2
41.0451,490.12,521.76
41.0696,482.49,522.41
41.0901,476.19,520.72
41.1106,473.96,516.98
41.1311,472.96,513.98
41.1515,476.17,510.39
41.176,478.14,507.31
41.1965,480.51,505.25
41.217,484.41,503.6
41.2375,487.73,502.68
41.258,491.58,502.94
41.2785,492.86,503.95
41.303,493.29,505.36
41.3235,494.83,507.29
41.344,495.67,507.63
41.3645,496.93,507.51
41.385,495.15,507.6
41.4095,493.32,507.28
41.4301,491.05,505.63
41.4505,491.64,504.7
41.471,492.71,502.56
41.4915,494.57,502.05
41.512,495.46,501.24
41.5365,497.17,499.79
41.557,498.93,499.23
41.5775,499.75,500.19
41.598,502.8,501.15
41.6185,503.84,502.52
41.6429,505.47,503.82
41.6635,506.58,505.45
41.6841,508.26,506.56
41.7045,507.41,507.85
41.725,508.33,508.88
41.7455,509.26,507.7
41.77,508.81,506.76
41.7905,507.65,506.21
41.8112,507.52,504.97
41.8315,507.01,504.17
41.8519,508.41,503.94
41.8765,508.53,503.15
41.897,509.22,502.72
41.9178,509.58,502.78
41.9381,508.46,503.62
41.9585,509.17,504.9
41.979,511.34,498.12
42.0035,519.87,487.89
42.024,531.9,481.72
42.0446,538.12,479.57
42.0649,542.49,480.66
42.0854,543.19,482.33
42.1059,541.76,485.26
42.1304,540,487.21
42.1509,537.6,489.37
42.1715,534.88,490.49
42.1919,532.51,491.99
42.2124,529.4,493.4
42.2371,527.32,494.52
42.2574,524.06,495.01
42.2779,523.85,496.61
42.2984,522.68,497.89
42.319,524.74,500.51
42.3393,523.59,503.01
42.3638,521.48,505.01
42.3844,520.18,506.81
42.4049,518.94,509.04
42.4254,517.56,509.84
42.4459,517.44,510.27
42.4703,513.96,510.41
42.4909,515.36,511.93
42.5114,524.89,514.55
42.532,535.71,514.64
42.5523,542.17,514.31
42.5728,543.14,513.25
42.5973,543.51,511.2
42.6179,544.21,509.96
42.6383,543.57,508.97
42.6588,540.25,508.97
42.6793,536,508.38
42.7039,533.8,508.9
42.7244,531.64,509.72
42.7448,528.11,509.78
42.7653,528.49,510.82
42.7858,526.39,510.66
42.8064,525.51,510.73
42.8308,524.21,510.18
42.8514,522.77,508.54
42.8718,520.02,507.44
42.8924,518.61,506.95
42.9129,516.49,505.76
42.9374,514.39,503.61
42.9578,512.91,504.49
42.9784,513.33,511.79
42.9987,515.66,516.03
43.0193,517.93,519.22
43.0397,519.35,520.18
43.0642,520.28,521.54
43.0849,518.62,522.44
43.1054,517.9,523.15
43.1258,517.12,523.32
43.1462,516.09,521.45
43.1708,514.48,520.76
43.1912,513.38,519.41
43.2117,514.1,517.93
43.2322,515.48,515.94
43.2527,515.79,513.35
43.2732,514.43,511.88
43.2977,514.14,509.91
43.3182,513.31,508.73
43.3387,513.25,507.38
43.3592,512,505.7
43.3797,512.4,506.56
43.4041,512.72,507.65
43.4246,512.98,507.52
43.4454,514.38,508.82
43.4658,512.91,510.25
43.4861,511.52,512
43.5067,512.82,512.8
43.5312,512.06,512.44
43.5516,512.64,511.95
43.5723,512.52,510.96
43.5926,511.61,508.77
43.6132,511.89,507.22
43.6336,512.11,505.77
43.6581,514.09,503.62
43.6787,514.07,502.09
43.6991,514.86,500.48
43.7196,514.89,500.58
43.7401,515.91,501.06
43.7648,515.93,503.45
43.7852,516.14,505.76
43.8056,514.71,507.41
43.8261,512.77,507.93
43.8466,511.22,508.54
43.8671,510.37,509.43
43.8916,511.7,510.15
43.9122,512.96,510.72
43.9326,512.97,509.77
43.953,512.97,509.62
43.9737,512.38,508.1
43.998,510.9,506.68
44.0188,510.12,504.54
44.0391,508.7,504.23
44.0596,508.36,502.99
44.0801,508.89,503.39
44.1006,510.31,504.91
44.125,511.25,506.53
44.1455,511.8,508.02
44.166,512.24,509.82
44.1866,512.99,511.45
44.2071,512.39,513.16
44.2316,511.71,514.33
44.2521,512.17,517.46
44.2726,517.54,521.57
44.293,526.63,523.06
44.3136,536.9,523.85
44.3341,541.12,521.88
44.359,542.7,519.9
44.379,542.16,517.32
44.3996,541.93,515.86
44.4201,539.94,514.49
44.4407,538.55,513.19
44.465,536.84,512.55
44.4855,533.07,513.44
44.5061,531.46,514.95
44.5266,528.97,516.56
44.5471,527.37,518.05
44.5675,525.9,519.04
44.592,524.32,519.63
44.6126,522.86,519.31
44.633,520.88,518.44
44.6536,518.11,516.96
44.674,513.89,514.76
44.6945,509.11,510.81
44.719,504.89,507.25
44.7395,502.11,504
44.76,497.49,501
44.7805,492.99,500
44.801,488.59,499
44.8254,488.07,499.6
44.846,489.26,501.28
44.8666,490.21,501.42
44.887,489.17,501.14
44.9076,489.33,503.11
44.9279,491.27,504.09
44.9524,492.81,505.67
44.9729,492.65,506.54
44.9935,493.52,505.43
45.0139,493.42,503.94
45.0344,493.13,503.36
45.0589,495.11,502.68
45.0795,496.09,501.35
45.1,495.87,501.28
45.1205,491.89,501.42
45.1411,483.92,501.34
45.1615,476.73,500.47
45.1859,469.39,500.98
45.2064,466.11,501.78
45.2269,465.49,503.02
45.2474,466.79,504.62
45.2679,468.43,506.3
45.2923,470.55,507.44
45.3129,472.84,507.95
45.3334,476.07,508.56
45.3539,479.46,507.05
45.3743,483.56,505.44
45.3949,486.05,504.55
45.4194,486.84,503.24
45.4399,490.67,502.39
45.4605,491.94,499.71
45.4809,496.15,497.77
45.5013,507.92,498.02
45.5218,517.54,498.41
45.5464,525.03,499.53
45.5668,529.82,501.42
45.5873,529.86,503.14
45.6079,529.69,505.11
45.6284,529.55,507.69
45.6528,527.04,508.35
45.6733,527.03,508.28
45.6938,524.43,508.03
45.7143,523.14,507.42
45.7348,520.51,506.94
45.7552,525.21,506.95
45.7798,531.57,506.36
45.8003,534.25,505.89
45.8208,535.2,504.71
45.8413,534.96,503.17
45.8618,534.37,503.33
45.8862,533.1,503.67
45.907,529.88,505.33
45.9273,527.9,507.67
45.9478,526.52,509.13
45.9683,525.22,510.91
45.9888,523.17,512.93
46.0133,520.94,515.14
46.0338,520.75,517.91
46.0542,520.4,518.73
46.0748,520.12,518.18
46.0952,519.9,517.75
46.1197,520.92,518.2
46.1403,519.53,523.56
46.1607,521.03,537.25
46.1813,521.62,559.8
46.2017,524.9,588.44
46.2222,527.92,621.35
46.2467,532.53,651.68
46.2672,536.63,675.94
46.2878,542.5,694.56
46.3083,549,705.84
46.3288,554.8,714.68
46.3532,557.24,720.34
46.3737,556.59,721.87
46.3944,552.07,723.1
46.4147,546.86,721.28
46.4352,537.69,719.02
46.4557,526.35,714.62
46.4802,511.48,709.09
46.5007,496.98,700.48
46.5212,482.59,684.98
46.5417,469.47,664.98
46.5621,460.18,639.39
46.5826,455.74,611.11
46.6071,454.99,580.09
46.6278,456.79,546.87
46.6482,462.04,511.5
46.6688,468.63,469.2
46.6892,476.9,418.36
46.7136,487.32,363.69
46.7341,497.26,315.35
46.7547,504.01,277.88
46.7752,508.4,258.7
46.7956,511.52,254.96
46.8161,513.62,261.57
46.8406,514.3,274.66
46.8611,513.64,289.92
46.8817,514.11,306.34
46.9022,514.49,325.07
46.9226,514.19,343.46
46.9471,513.95,362.57
46.9676,513.36,380.45
46.9881,512.69,396.96
47.0087,512.55,412.37
47.0291,512.04,425.7
47.0496,510.03,438.56
47.074,508.43,449.85
47.0946,506.14,458.48
47.1152,506.31,466.38
47.1357,506.05,472.7
47.1562,505.64,476.96
47.1806,504.91,480.37
47.2012,506.33,482.7
47.2216,507.06,484.36
47.242,507.45,485.49
47.2625,509.96,487.39
47.283,512.17,489.11
47.3076,512.93,490.29
47.3281,514.75,492.63
47.3485,514.4,494.9
47.369,514.72,497.92
47.3895,517.17,500.34
47.4101,517.54,503.67
47.4346,517.23,505.34
47.455,515.19,506.27
47.4755,513.95,507.62
47.4961,514.16,508.29
47.5165,513.33,508.03
47.5409,514.46,507.43
47.5615,515.77,506.74
47.582,514.82,505.19
47.6026,513.45,503.75
47.6229,512.16,502.8
47.6435,513.13,502.24
47.668,512.5,502.79
47.6886,511.4,503.44
47.709,512.12,504.75
47.7294,512.3,507
47.75,512.24,510
47.7744,512.39,511.2
47.795,511.51,512.56
47.8155,510.81,513.05
47.836,509.05,514.44
47.8564,510.84,511.15
47.8769,513.47,504.32
47.9014,509.78,499.66
47.9219,509.22,497.73
47.9425,507.58,494.58
47.9629,509.86,491.86
47.9834,509.69,490.69
48.0078,508.55,494.15
48.0285,510.04,493.72
48.0489,510.83,498.78
48.0695,512.47,499.02
48.0899,509.77,500.02
48.1104,508.82,501.01
48.1349,510.45,508.61
48.1555,518.76,505.09
48.1759,514.41,502.47
48.1964,505.33,504.98
48.2168,505.06,507.98
48.2413,506.25,506.39
48.2618,506,512.71
48.2823,500,512.17
48.3028,506.8,509.53
48.3236,501.64,507.23
48.3438,500.51,510.38
48.3683,505.81,517.71
48.3888,515.65,513.56
48.4093,518.92,515.25
48.4298,520.53,515
48.4503,522.63,510.6
48.4707,520.1,508.48
48.4953,508.68,516.58
48.5158,508.35,526.87
48.5363,504.68,529.29
48.5567,501.74,533.24
48.5773,482.59,541.39
48.6017,480.27,532.71
48.6223,469.62,520.37
48.6428,484.9,521.69
48.6633,479.52,515.56
48.6837,496.01,513.04
48.7043,517.21,520.64
48.7287,530.17,515.31
48.7493,530.73,514.85
48.7697,525.59,513.48
48.7902,530.27,513.58
48.8107,521.22,511.47
48.8352,514.77,514.77
48.8558,525.82,515.02
48.8764,522.85,517.01
48.8968,520.08,519.61
48.9172,523.47,518.09
48.9377,514.57,514.47
48.9622,520.46,513.38
48.9828,518.57,511.5
49.0034,522.85,509.2
49.0238,519.08,506.96
49.0443,513.67,503.57
49.0687,506.33,503.46
49.0892,505.07,502.56
49.1097,505.25,506.45
49.1303,508.4,508.16
49.1507,513.92,510.33
49.1712,509.14,511.46
49.1956,505.11,511.17
49.2164,507.69,512.74
49.2367,507.15,514.39
49.2573,505.12,511.91
49.2777,509.7,508.33
49.3022,510.56,506.06
49.3226,513.45,501.85
49.3433,514.56,498.88
49.3637,514.65,498.5
49.3842,513.92,498.6
49.4046,513.53,496.68
49.4291,516.03,496.35
49.4497,518.02,497.48
49.4701,519.42,500.58
49.4907,518.53,502.07
49.5111,517.83,503.85
49.5317,518.26,505.88
49.5561,518.01,508.31
49.5767,518.81,510.64
49.5971,517.65,512.72
49.6176,518.52,513.17
49.6382,517.61,513.74
49.6626,516.69,511.99
49.6831,516.15,509.59
49.7036,515.32,508.67
49.7241,514.66,507.14
49.7446,514.53,504.51
49.7651,512.22,502.01
49.7896,512.98,499.81
49.8101,513.78,500.05
49.8307,514.43,500.64
49.8512,514.74,503.11
49.8716,513.79,506.49
49.896,513.03,508.79
49.9167,513.43,510.83
49.9371,512.34,512.87
49.9576,513.27,514.49
49.9782,513.02,514.99
49.9985,513.41,516
50.0231,511.93,514.6
50.0437,510.95,513.28
50.064,510.76,512.22
50.0846,511.81,509.58
50.1051,512.44,507.46
50.1295,510.16,505.57
50.1501,513.32,504.06
50.1706,513.26,503.44
50.1912,514.01,504.36
50.2115,513.81,505.28
50.232,514.44,507.83
50.2565,516.56,509.66
50.277,516.04,512.73
50.2976,516.44,513.78
50.318,516.15,515.63
50.3385,516.52,516.1
50.363,514.62,517.88
50.3835,512.29,516.31
50.404,513.23,514.64
50.4247,511.59,513.12
50.445,508.87,517.89
50.4654,508.5,519.31
50.49,509,520.65
50.5105,509.2,519.12
50.5311,510.16,517.9
50.5515,511.33,518.52
50.572,513.26,518.81
50.5965,513.01,519.65
50.617,513.81,521.72
50.6375,515.65,523.78
50.6579,514.52,524.62
50.6784,512.41,525.9
50.6989,514.13,525.32
50.7235,513.1,525.05
50.7439,513.88,521.84
50.7645,512.51,518.67
50.7849,513.61,515.94
50.8055,512.28,513.15
50.8298,509.23,509.72
50.8504,506.58,505.98
50.8709,504.47,504.18
50.8914,503.57,502.95
50.9119,504.66,502.76
50.9323,504.13,503.61
50.9568,504.3,505.88
50.9774,504.44,508.11
50.9979,504.95,511.09
51.0183,505.56,513.67
51.0389,507.05,514.53
51.0594,504.44,515.03
51.0839,504.95,515.42
51.1045,507.16,514.74
51.1249,509.93,513.39
51.1454,510.94,511.11
51.1659,510.55,508.69
51.1903,511.04,506.95
51.2109,508.84,506.36
51.2315,509.47,505.69
51.2518,508.77,505.95
51.2723,509.42,506.96
51.2928,508.94,508.17
51.3173,508.35,509.94
51.3378,507.68,511.15
51.3584,508.54,513.32
51.3788,508.83,516.05
51.3994,509.47,516.44
51.4239,509.57,515.76
51.4443,510.46,515.6
51.4648,510.37,514.08
51.4853,509.49,512.67
51.5059,508.6,510.53
51.5262,510.08,508.23
51.5509,509.06,505.38
51.5713,508.05,503.51
51.5919,507.84,503.8
51.6123,508.07,504.64
51.6328,508.86,505.71
51.6572,509.09,507.57
51.6777,509.47,510.26
51.6983,508.77,513.01
51.7188,508.62,515
51.7393,510.1,516.2
51.7598,511.28,516.96
51.7843,511.22,517.77
51.8048,510.18,517.82
51.8252,510.14,515.25
51.8457,511.71,512.8
51.8663,510.57,510.24
51.8868,509.46,507.99
51.9113,509.37,507.19
51.9318,510.49,505.16
51.9524,510.99,503.72
51.9727,510.2,503.58
51.9932,510.16,504.06
52.0177,509.92,505.65
52.0382,511.54,508.12
52.0588,512.63,510.7
52.0793,512.51,514.16
52.0997,511.6,516.13
52.1202,512.88,517.3
52.1449,513.31,517.44
52.1652,512.85,516.75
52.186,511.68,515.8
52.2062,510.54,514.24
52.2267,511.03,512.79
52.2511,513.83,511.03
52.2718,516.66,508.83
52.2922,518.53,508.46
52.3127,519.42,508.37
52.3332,520.94,508.1
52.3536,520.35,508.08
52.3782,520.68,509.46
52.3987,520.34,511.97
52.4192,519.88,514.78
52.4397,518.7,517.42
52.4601,517.36,518.54
52.4846,515.09,519.23
52.5052,515.07,519.58
52.5257,515.26,519.27
52.5461,515.21,517.41
52.5667,513.56,516.13
52.5871,514.45,513.9
52.6116,513.56,511.32
52.6322,512.65,508.26
52.6527,512.32,506.21
52.6732,512.46,505.57
52.6937,511.96,506.05
52.7181,512.57,507.04
52.7387,513.46,508.43
52.7592,513.37,510.95
52.7796,513.89,513.36
52.8002,514.51,514.89
52.8206,514.41,516.91
52.8451,513.33,517.53
52.8656,512.06,517.82
52.8861,511.05,517.26
52.9067,510.44,515.81
52.9271,510.75,514.24
52.9476,509.4,512.4
52.9721,508.52,510.32
52.9926,507.82,508.25
53.0131,509.05,507.2
53.0336,508.64,505.76
53.0541,508.71,505.61
53.0785,509.57,507.09
53.0991,511.06,508.87
53.1196,510.65,510.7
53.1401,510.92,513.36
53.1605,512.13,515.09
53.181,510.91,517.47
53.2055,510.33,518.37
53.2261,509.26,518.5
53.2466,509.21,517.2
53.267,509.77,515.36
53.2875,509.41,513.09
53.312,508.13,510.67
53.3326,508.1,508.14
53.3531,507.68,505.71
53.3735,506.75,504.37
53.3941,508,504.09
53.4145,508.8,504.28
53.439,509.44,505.62
53.4596,509.95,505.9
53.48,510.56,507.72
53.5005,509.45,511.17
53.5209,509.36,513.34
53.5454,509.09,514.27
53.5659,512.07,515.42
53.5865,512.06,515.73
53.607,512.04,515.79
53.6275,512.84,515.23
53.648,513.47,514.58
53.6725,513.17,513.07
53.6931,513.34,511.45
53.7135,514.27,509.76
53.7339,514.82,507.81
53.7544,515.45,507.05
53.7789,516.36,507.24
53.7994,516.49,507.39
53.82,515.79,509.31
53.8404,514.43,511.45
53.8609,513.15,513.36
53.8814,511.52,515.49
53.9059,512.21,516.99
53.9266,511.37,518.19
53.947,510.1,518.75
53.9675,511.68,517.6
53.9879,513.14,514.48
54.0084,513.91,512.59
54.0328,513.73,511.87
54.0535,514.18,508.9
54.0739,513.15,507.32
54.0945,513.32,506.05
54.1149,513.25,505.44
54.1393,511,506.15
54.16,510.4,507.32
54.1804,511.72,508.86
54.2009,513.58,511.09
54.2213,512.66,513.67
54.2419,511.33,515.14
54.2663,509.46,516.51
54.287,510.17,517.41
54.3073,515.34,517.13
54.3279,518.47,516.5
54.3483,520.38,515.6
54.3729,519.9,512.68
54.3933,519.52,510.34
54.4139,519.62,508.28
54.4343,520.09,506.62
54.4549,520.87,505.7
54.4753,520.3,504.76
54.4998,518.64,505.41
54.5204,519.51,506.52
54.5409,518.01,508.22
54.5613,516.21,508.98
54.5818,515.17,511.78
54.6063,513.33,513.62
54.6268,513.87,514.5
54.6474,513.29,515.6
54.6678,512.63,515.28
54.6886,512.51,515.22
54.7088,512.81,513.78
54.7333,512.84,512.02
54.7538,512.88,509.62
54.7743,513.3,506.69
54.7948,514.64,504.96
54.8153,513.71,503.96
54.8398,512.57,504.17
54.8604,513.26,504.54
54.8808,513.6,506.23
54.9013,513.68,509.18
54.9217,513.75,510.75
54.9422,515.6,512.6
54.9667,513.68,514.28
54.9873,513.14,515.22
55.0077,512.71,515.78
55.0282,510.77,514.42
55.0487,511.82,513.94
55.0731,510.85,512.95
55.0937,511.68,510.76
55.1142,511.15,508.41
55.1347,510.12,506.13
55.1553,509.29,505.1
55.1756,508.23,505.28
55.2001,508.79,506.22
55.2207,511.03,508.78
55.2411,506.22,514.22
55.2616,496.78,518.38
55.2821,482.42,520.9
55.3026,469.34,522.52
55.3272,460.67,523.02
55.3477,454.94,521.81
55.3682,455.35,519.65
55.3886,454.68,517.52
55.4091,458.14,514.62
55.4336,462.72,513.09
55.4541,466.97,510.67
55.4747,471.38,507.94
55.4951,475.1,507.55
55.5156,479.28,506.04
55.536,482.43,504.83
55.5606,485.14,504.67
55.5811,486.91,504.53
55.6016,489.13,505.83
55.6221,490.5,507.66
55.6426,493.6,509.73
55.6671,493.68,512.78
55.6876,492.35,514.03
55.7081,493.28,514.42
55.7286,493.02,516.14
55.7491,493.82,515.71
55.7695,494.85,513.77
55.794,495.48,512.41
55.8146,496.39,509.53
55.835,498.51,506.63
55.8556,500.41,504.7
55.876,503.33,502.96
55.9005,505.06,502.57
55.921,505.85,502.05
55.9416,505.48,502.04
55.962,506.58,503.83
55.9825,508.87,504.87
56.003,511.29,506.89
56.0275,510.03,507.72
56.048,509.83,509.17
56.0686,512.26,510.14
56.089,510.61,510.11
56.1095,508.29,510.09
56.13,506.43,509.27
56.1545,505.74,507.82
56.175,506.4,506.65
56.1955,507.12,505.72
56.216,505.49,504.38
56.2366,505.59,503.7
56.2609,505.68,503.96
56.2815,507.14,504.17
56.302,508.11,505.74
56.3225,508.69,507.79
56.343,506.75,506.03
56.3634,514.4,503.02
56.388,529.32,501.62
56.4085,541.86,502.9
56.429,548.09,503.52
56.4494,551.87,504.81
56.4699,552.29,505.25
56.4944,549.64,504.8
56.5149,548.71,504.44
56.5355,545.17,504.15
56.5559,541.53,498.32
56.5765,543.83,494.26
56.597,545.46,491.61
56.6217,546.77,491.48
56.642,545.42,493.39
56.6625,544.53,495.31
56.683,542.23,499.05
56.7034,539.78,502.44
56.7281,537.42,505.35
56.7485,533.94,508.48
56.769,532.55,510.58
56.7895,530.84,513.07
56.8099,530.67,514.05
56.8305,529.34,514.24
56.8549,527.27,513.79
56.8754,525.42,513.24
56.8959,523.53,511.39
56.9165,521.43,508.71
56.937,519.14,507.17
56.9614,517.11,505.94
56.9819,516.69,506.15
57.0024,516.55,506.92
57.0229,513.84,508.33
57.0435,516.87,509.87
57.0638,518.9,511.89
57.0883,518.52,513.52
57.109,519.02,515.21
57.1294,519.21,516.57
57.1499,520.77,516.66
57.1703,520.02,516.72
57.1949,519.01,516.18
57.2153,518.41,514.74
57.2359,517.53,514
57.2563,516.22,512.2
57.2769,515.78,510.36
57.2973,515.62,508.49
57.3219,514.3,506.79
57.3424,515.04,509.23
57.3628,515.83,514.38
57.3834,517.06,518.91
57.4039,520.05,521.53
57.4243,519.44,523.82
57.4489,518.35,524.46
57.4694,515.88,524.57
57.4898,516.31,525.25
57.5104,515.84,526.2
57.5308,513.28,525.56
57.5552,513.02,523.65
57.5757,513.42,521.32
57.5963,514.13,518.26
57.6168,513.71,514.4
57.6374,512.57,511.72
57.6578,511.45,510.78
57.6823,511.36,510.62
57.7029,513.49,511.1
57.7235,515.59,511.08
57.7437,516.27,510.26
57.7642,515.42,512.01
57.7888,515.13,514.01
57.8093,515.11,516.21
57.8298,514.09,518.17
57.8503,513.07,519.13
57.8707,513.66,520.11
57.8913,512.52,519.68
57.9157,512.62,517.35
57.9362,511.3,515.48
57.9568,508.64,513.58
57.9772,508.11,511.67
57.9977,508.69,509.53
58.0222,508.35,507.23
58.0427,507.88,505.78
58.0633,508.5,505.82
58.0838,509,505.66
58.1042,510.2,506.73
58.1247,511.76,509.78
58.1491,513.21,512.23
58.1698,513.57,516.38
58.1903,514.45,519.3
58.2106,515.76,520.64
58.2312,515.81,520.91
58.2557,513.65,521.53
58.2762,512.92,522.63
58.2967,511.94,524.9
58.3171,512.95,526.72
58.3377,511.96,527.98
58.3581,512.77,526.38
58.3828,513.41,524.5
58.4032,513.53,521.4
58.4237,515.62,517.72
58.4442,514.9,514.38
58.4648,513.32,512.5
58.4891,514.46,510.8
58.5097,513.76,509.24
58.5302,514.01,509.19
58.5507,511.61,509.75
58.5712,511.09,510.6
58.5916,511.07,511.68
58.6161,511.26,512.35
58.6368,513,511.28
58.6571,511.2,509.02
58.6776,510.16,505.62
58.6983,509.93,504.49
58.7187,509.54,504.4
58.7432,509.44,505.52
58.7637,508.55,508.61
58.7842,508.24,513.29
58.8047,510.19,518.43
58.8252,510.95,527.15
58.8495,513.36,538.12
58.8701,516.09,546.89
58.8906,517.27,553.91
58.9111,519.62,558.13
58.9317,519.09,562.31
58.9521,518.48,567.24
58.9766,519.78,582
58.997,520.62,598.4
59.0176,523.9,617.72
59.038,526.72,638.37
59.0585,530.38,656.9
59.083,535.1,670.72
59.1036,539.08,681.58
59.1242,541.46,688.06
59.1445,544.37,691.45
59.165,545.1,694.36
59.1855,545.48,697.49
59.2101,543.38,699.19
59.2305,539.91,698.55
59.251,534.32,696.24
59.2715,526.06,688.19
59.292,516.65,673.15
59.3164,507.12,647.72
59.3371,498.69,613.38
59.3576,492.36,574.1
59.3781,489.08,528.68
59.3985,485.07,476.95
59.419,481.05,418.36
59.4435,479.04,359.89
59.4639,478.03,311.31
59.4845,479.83,284.65
59.5049,478.66,274.12
59.5254,479.33,276.29
59.546,482.06,287.84
59.5705,485.45,303.27
59.5911,486.76,321.61
59.6115,489.01,340.29
59.6319,491.01,359.83
59.6525,493.21,377.87
59.677,495.56,394.29
59.6976,496.25,409.43
59.718,497.2,421.55
59.7385,498.76,431.84
59.7589,500.21,440.67
59.7794,501.97,447.74
59.8039,502.97,454.39
59.8246,503.58,460.31
59.8449,509.26,466.45
59.8656,512.61,471.36
59.886,514.89,477.09
59.9104,516.91,482.67
59.9309,518.13,488.54
59.9515,519.5,495.03
59.9719,520.2,499.82
59.9924,519.16,503.26
60.0128,519.53,505.21
60.0374,517.82,506.37
60.0579,516.86,506.89
60.0784,516.49,507.31
60.0989,515.79,506.45
60.1193,511.83,503.36
60.1438,502.87,500.09
60.1644,492.69,498.27
60.1849,487.15,497.02
60.2054,484.72,497.21
60.2259,483.98,497.77
60.2464,483.78,498.62
60.2709,486.03,500.89
60.2913,487.02,503.31
60.3119,488.42,506.05
60.3323,490.93,508.84
60.3528,492.95,511.07
60.3773,494.36,512.86
60.3978,496.09,513.29
60.4183,496.87,513.83
60.4388,496.5,513.26
60.4594,498.2,512.41
60.4798,499.56,511.13
60.5042,501.05,508.9
60.5248,501.84,507.52
60.5453,501.87,506.02
60.5657,502.7,505.01
60.5862,503.76,505.41
60.6068,503.8,506.73
60.6312,504.84,507.38
60.6518,505.08,510.11
60.6723,505.46,512.29
60.6928,504.77,514.63
60.7132,510.81,517.3
60.7378,521.25,519.24
60.7582,527.8,519.19
60.7788,531.44,518.55
60.7993,532.15,517.04
60.8197,532.72,514.04
60.8404,531.18,511.03
60.8648,530.74,508.42
60.8853,529.79,506.94
60.9058,527.44,505.75
60.9263,526.35,505.4
60.9468,525.68,504.52
60.9711,525.14,505.82
60.9919,523.31,508.65
61.0124,522.05,509.92
61.0327,522.24,511.14
61.0532,521.39,512.91
61.0736,518.71,514.73
61.0982,519.57,515.58
61.1188,521.66,517.07
61.1393,522.93,516.45
61.1597,524.14,515.76
61.1803,524.51,515.41
61.2047,523.61,513.33
61.2252,521.09,510.86
61.2458,519.67,508.49
61.2662,517.54,507.59
61.2866,515.83,507.27
61.3073,515.86,507.62
61.3316,514.29,507.9
61.3521,512.63,509.12
61.3726,511.71,510.89
61.3931,511.36,513.71
61.4138,510.09,515.57
61.4381,510.47,517.46
61.4588,509.78,517.97
61.4793,510.02,517.57
61.4996,507.82,517.26
61.5201,505.85,517.01
61.5406,504.28,515.01
61.5651,503.83,514.4
61.5856,504.26,512.12
61.6061,504.81,509.7
61.6266,505.25,507.96
61.6471,504.4,506.97
61.6676,505.32,506.57
61.6921,507.45,507.26
61.7127,507.96,508.61
61.733,507.77,510.29
61.7536,508.02,511.03
61.7741,508.41,513.22
61.7985,508.93,515.18
61.8191,508.54,515.54
61.8396,507.64,516.03
61.86,507.31,515.03
61.8806,506.65,514.02
61.901,507.52,512.62
61.9255,507.01,510.69
61.9461,507.01,509.16
61.9666,504.81,506.72
61.987,505.25,505.58
62.0075,505.2,505.46
62.0321,506.76,505.37
62.0526,506.41,506.7
62.073,505.73,508.76
62.0935,506.98,510.81
62.114,507.38,513.04
62.1345,507.51,515.44
62.159,508.41,516.95
62.1795,508.72,518.36
62.2,508.98,518.29
62.2205,508.98,517.83
62.2409,508.59,517.06
62.2654,508.87,515.25
62.2859,508.5,512.8
62.3066,507.8,509.64
62.327,506.84,508.31
62.3475,507.87,507.45
62.3679,507.7,507.16
62.3924,508.16,506.93
62.413,509.33,506.94
62.4335,514.46,509.35
62.454,517.57,511.88
62.4745,518.25,513.11
62.4989,518.4,514.89
62.5194,519.32,515.71
62.5399,518.86,516.77
62.5605,518.89,517.61
62.581,519.31,516.89
62.6013,518.25,515.51
62.626,516.2,513.81
62.6465,515.16,511.85
62.6669,514.53,510.88
62.6875,512.02,509.3
62.7079,507.22,508.64
62.7284,503.77,507.91
62.7529,502.02,508.13
62.7735,500.62,509.5
62.7939,500.69,511.2
62.8144,500.95,512.56
62.8349,501.76,515.05
62.8593,501.61,517.24
62.88,501.49,518.59
62.9004,502.99,518.87
62.9209,502.39,519.3
62.9414,502.51,518.44
62.9619,502.21,516.95
62.9864,502.17,514.16
63.007,502.14,511.13
63.0274,501.91,508.9
63.0479,501.93,507.52
63.0685,501.34,506.42
63.0929,501.47,506.13
63.1134,503.18,506.31
63.1339,504.94,507.65
63.1544,505.55,509.92
63.1748,506.04,511.73
63.1953,506.63,512.99
63.2198,507.31,513.79
63.2404,508.25,515.43
63.2608,507.6,516.55
63.2814,507.28,516.84
63.3018,510.62,516.87
63.3264,520.9,516.7
63.3468,528.72,515.16
63.3674,532.17,514.72
63.3878,534.94,513.18
63.4083,534.35,511.74
63.4287,533.48,509.6
63.4532,531.79,508.88
63.4738,530.23,508.9
63.4943,528.58,509.92
63.515,527.07,512.34
63.5353,526.25,513.47
63.5597,524.8,515.78
63.5802,523.44,517.42
63.6009,522.35,518.54
63.6212,521.68,518.63
63.6418,518.55,518.7
63.6622,519.24,518.16
63.6868,518.79,516.93
63.7073,518.83,514.74
63.7277,517.67,512.6
63.7483,517.33,511.08
63.7687,515.87,509.66
63.7932,514.09,508.13
63.8137,513.47,507.3
63.8344,514.58,507.44
63.8548,514.06,509.15
63.8752,512.45,511.32
63.8957,511.56,513.86
63.9203,513.05,515.49
63.9408,514.64,516.39
63.9613,513.91,518.11
63.9818,513.33,519.29
64.0022,512.06,518.83
64.0227,512.45,518.47
64.0473,512.56,516.37
64.0678,511.65,514.3
64.0881,511.52,512.24
64.1086,511.41,510.39
64.1292,512.13,509.11
64.1536,511.51,507.69
64.1743,510.8,507.55
64.1947,512.04,507.64
64.2152,510.83,508.91
64.2357,511.67,509.93
64.2561,512.73,510.54
64.2806,513.19,512.84
64.3012,511.75,514.27
64.3217,512.6,515.01
64.3421,512.68,514.81
64.3627,513.34,515.05
64.387,512.88,514.64
64.4077,512.9,513.31
64.4281,512.72,511.85
64.4486,513.38,510.28
64.4692,513.1,508.62
64.4896,513.28,507.1
64.5141,513.22,506.28
64.5346,512.58,506.02
64.5551,512.46,506.42
64.5758,511.57,507.53
64.596,511.66,509.63
64.6205,512.33,511.5
64.6411,511.06,513.2
64.6616,510.45,514.16
64.6821,510.36,515.93
64.7025,510.69,516.14
64.723,510.15,515.31
64.7476,509.32,515.45
64.7681,509.06,513.56
64.7886,510.04,511.85
64.8092,511.24,510.08
64.8295,511.99,508.26
64.8541,510.79,506.61
64.8747,510.03,506.69
64.8952,509.23,506.95
64.9155,510.38,508.76
64.9361,510.3,510.01
64.9565,510.24,511.41
64.9811,510,512.93
65.0016,510.4,514.14
65.0221,511.52,515.31
65.0425,511.81,516.65
65.063,511.05,516.92
65.0836,513.64,516.94
65.108,514.31,515.75
65.1285,514.65,514.6
65.149,514.92,513.28
65.1695,515.34,510.62
65.19,514.87,509.3
65.2145,513.3,508.44
65.235,511.64,508.55
65.2555,511.71,508.24
65.276,513.57,508.79
65.2965,512.85,509.63
65.3169,514.08,511.71
65.3414,514.07,513.17
65.362,513.45,515.33
65.3825,513.56,516.87
65.4029,512.65,517.29
65.4235,511.32,517.63
65.448,509.66,516.71
65.4684,508.72,514.17
65.4889,509.18,512.33
65.5095,508.54,511.27
65.5299,508.44,509.01
65.5504,508.15,506.81
65.5749,508.72,506.05
65.5955,508.37,505.44
65.616,509.3,505.15
65.6364,510.04,505.92
65.657,510.23,507.14
65.6814,510.99,509.71
65.702,510.19,512.37
65.7225,509.75,514.69
65.7429,510.4,516.16
65.7634,510.72,517.32
65.784,509.38,517.46
65.8084,508.9,516.17
65.8289,508.52,514.93
65.8494,509.02,513.15
65.8699,510.61,511.92
65.8905,511.29,510.53
65.9148,510.63,508.83
65.9353,511.11,508.06
65.9561,511.28,506.85
65.9764,513.43,506.68
65.9968,515.54,507.14
66.0174,516.03,508.51
66.0419,516.23,510.21
66.0624,515.98,512.37
66.0828,514.59,513.7
66.1034,513.67,514.16
66.1238,513.73,515.13
66.1483,513.19,514.9
66.1688,513.35,515.32
66.1895,513.48,514.06
66.2098,512.58,510.44
66.2304,508.87,504.56
66.2508,504.89,500.84
66.2753,501.52,498.48
66.296,500.21,497.18
66.3163,498.17,496.34
66.3368,498.14,497.08
66.3573,499.51,497.66
66.3778,500.01,500.33
66.4023,500.01,503.06
66.423,500.2,505.45
66.4433,502.16,509.56
66.464,502.13,512.45
66.4843,502.9,513.56
66.5087,502.12,513.45
66.5292,503.3,512.76
66.5497,504.04,511.61
66.5703,503.43,510.68
66.5907,503.55,509.55
66.6112,503.84,506.84
66.6357,502.67,505.67
66.6562,503.34,508.94
66.6768,508.27,512.75
66.6973,516.41,514.4
66.7178,524.13,516.52
66.7421,527.51,519.02
66.7627,528,521.41
66.7834,527.6,523.33
66.8037,525.88,523.46
66.8242,525.51,522.77
66.8446,525.6,522.22
66.8693,524.88,521.97
66.8898,523.11,521.78
66.9102,522.09,520.22
66.9308,520.87,516.98
66.9512,518.69,514.18
66.9758,516.36,511.55
66.9963,515.48,509.04
67.0167,513.99,508.23
67.0372,511.59,507.18
67.0577,510.87,506.55
67.0782,511.1,506.84
67.1028,511.68,507.47
67.1232,513.14,510.18
67.1438,513.91,512.54
67.1642,515.93,514.83
67.1847,516.95,515.67
67.2092,516.56,515.73
67.2296,514.84,515.79
67.2502,514.48,514.63
67.2707,513.78,512.9
67.2912,513.62,510.92
67.3117,513.5,509.54
67.3362,513.6,508.43
67.3567,515.08,510.34
67.3772,515.26,512.08
67.3977,515.21,512.86
67.4182,513.97,513.09
67.4387,511.18,514.67
67.4631,511.54,516.34
67.4836,511.23,517.87
67.5042,510.39,519.5
67.5246,509.91,520.8
67.5451,509.13,521.04
67.5696,508.1,521.03
67.5902,507.68,520.42
67.6107,508.35,516.74
67.6311,509.28,513.79
67.6517,510.02,512.23
67.672,509.82,510.19
67.6966,510.45,506.75
67.7171,510.96,505.4
67.7375,512.57,504.12
67.7581,512.86,503.7
67.7785,512.88,503.16
67.8031,512.31,504.53
67.8237,513.25,506.62
67.8441,514.6,508.3
67.8648,514.28,510.64
67.885,512.62,511.71
67.9059,513.7,512.57
67.9302,513.36,512.85
67.9507,514.89,512.88
67.971,513.51,512.71
67.9916,512.21,511.37
68.0122,511.77,510.29
68.0365,510.41,508.83
68.057,509.73,506.87
68.0775,510.38,505.09
68.0982,511.31,504.67
68.1185,511.65,505.14
68.1391,511.32,505.51
68.1635,511.45,506.01
68.1841,512.76,507.41
68.2046,512.81,510.13
68.225,513.25,512.7
68.2455,512.2,514.56
68.2699,510.76,515.85
68.2905,511.21,516.28
68.3111,511.57,516.62
68.3315,511.65,515.9
68.3519,510.32,514.72
68.3725,509.86,512.98
68.397,509.29,511.18
68.4176,510.43,508.94
68.4381,510.74,506.96
68.4586,509.99,505.96
68.4789,509.8,505.97
68.4994,509.84,506.38
68.5239,510.67,507.7
68.5445,510.54,508.96
68.5652,510.03,509.77
68.5854,510.82,511.82
68.6059,510.46,513.65
68.6303,511.17,514.72
68.6512,510.73,515.38
68.6715,509.99,515.3
68.6919,509.99,515.04
68.7125,510.39,513.63
68.7329,510.51,512.11
68.7575,510.61,509.69
68.7781,511.29,507.95
68.7985,513.03,505.96
68.819,513.82,504.77
68.8395,515.06,504.21
68.8639,514.45,505.17
68.8843,513.96,506.14
68.9048,513.77,508.11
68.9254,515.81,509.49
68.9458,516.25,512.39
68.9663,516.2,515.31
68.9908,514.36,517.25
69.0115,513.29,517.6
69.0319,512.83,517.28
69.0523,512.46,516.82
69.0729,510.57,516.06
69.0974,510.26,513.85
69.1178,510.41,512.08
69.1384,510.92,510.06
69.1588,510.74,508.45
69.1793,510.79,507.76
69.1997,510.43,507.41
69.2242,509.55,507.33
69.2449,509.04,508.66
69.2653,509.03,510.93
69.2859,509.62,513.34
69.3063,509.5,515.47
69.3308,510.4,517.38
69.3513,510.52,518.5
69.3718,510.42,518.8
69.3925,509.33,518.44
69.4128,510.27,516.95
69.4333,511.41,515.16
69.4578,512.33,513.53
69.4784,513.86,511.42
69.4989,513.89,509.34
69.5192,514.31,506.87
69.5398,513.45,506.5
69.5643,513.56,506.4
69.5847,513.05,507.32
69.6053,514.44,508.65
69.6258,513.95,510.32
69.6462,513.36,512.66
69.6667,512.29,514.93
69.6912,511.63,515.94
69.7118,511.1,516.35
69.7323,509.08,516.88
69.7527,508.87,516.51
69.7732,508.69,516.01
69.7936,508.55,514.4
69.8182,506.84,512.52
69.8387,506.48,511.02
69.8593,506.98,510.01
69.8797,506.58,508.81
69.9002,508.27,503.25
69.9247,508.21,499.8
69.9452,508.57,499.64
69.9657,508.86,500.91
69.9862,509.69,503.33
70.0068,510.35,504.86
70.0271,510.68,505.29
70.0517,508.54,506.83
70.0722,506.63,507.87
70.0927,506.91,509.09
70.1131,506.93,509.07
70.1336,506.54,507.86
70.1581,505.83,506.69
70.1787,507.47,504.75
70.1992,507.77,502.8
70.2197,507.82,500.64
70.2403,507.45,499.51
70.2608,507.56,499.01
70.2852,508.25,500.01
70.3057,508.6,501.21
70.3262,509.08,503.56
70.3467,509.86,506.25
70.3671,510.69,508
70.3916,511.95,510.2
70.4121,511.16,512.76
70.4327,511.13,513.61
70.4531,508.5,513.69
70.4737,508.8,515.75
70.4942,506.84,527
70.5185,495.27,535.8
70.5391,476.42,537.44
70.5596,465.54,534.55
70.5801,459.23,529.84
70.6006,456.78,523.67
70.6211,458.23,517.94
70.6455,461.78,512.55
70.6661,467.42,509.24
70.6865,471.94,506.59
70.707,478.55,506.27
70.7275,482.44,506.42
70.752,486.75,506.94
70.7725,490.2,507.55
70.793,492.56,507.04
70.8136,496.45,507.03
70.834,498.76,506.82
70.8545,499.81,505.66
70.8791,501.85,504.33
70.8995,502.28,502.46
70.92,506.62,500.17
70.9406,508.7,498.14
70.9611,510.56,497.11
70.9855,511.85,497.49
71.006,512.68,498.59
71.0265,513.34,498.87
71.047,512.47,500.9
71.0674,512.18,502.72
71.0879,511.94,504.77
71.1124,512.75,506.82
71.1331,513,508.06
71.1535,512,509.04
71.1741,510.8,509.24
71.1945,511.84,508.79
71.2189,511.87,507.83
71.2395,512.7,507.86
71.26,512.16,6.16212e-39
