Program Time [s],data 0,data 1
3.21235,518.87,492.82
3.2124,518.7,498.86
3.21245,517.56,502.48
3.2125,516.45,505.59
3.21255,516.76,507.07
3.2126,518.01,506.26
3.21274,516.6,504
3.2128,514.68,500.4
4.72869,512.8,512.8
4.74931,514.24,514.04
4.76987,515.59,515.43
4.79014,515.27,515.35
4.81468,515.22,513.08
4.83518,514.38,512.06
4.85573,514.5,507.25
4.87614,514.4,502.4
4.89665,514.32,497.92
4.92116,514.46,492.74
4.94172,515.16,488.59
4.96223,515.13,486.47
4.98266,516.11,485.38
5.00312,516.28,486.1
5.02355,517.03,489.28
5.04811,517.62,493.42
5.06862,518.3,498.54
5.08913,519.24,502.83
5.10959,517.79,507.07
5.13011,517.63,510.65
5.15456,516.11,511.52
5.17509,516.48,511.22
5.1956,514.79,509.17
5.21608,514.03,506.14
5.23654,521.42,502.31
5.25711,531.54,498.65
5.28157,538.03,494.32
5.30214,539.83,490.66
5.32256,540.86,488.32
5.34306,539.69,487.26
5.36351,537.75,489.21
5.38805,537,492.17
5.40857,536,496.13
5.42906,534.6,500.51
5.44959,532.48,505.01
5.47005,530.78,510
5.49057,528.23,513.2
5.51506,527.38,513.76
5.53555,525.91,512.81
5.55607,523.92,510.25
5.57651,523.14,506.6
5.59704,520.91,501.88
5.62145,519.73,497.5
5.64205,517.78,492.8
5.66251,517.63,488.84
5.68307,518.5,486.87
5.70356,518,487.1
5.72399,518,488.28
5.74844,517.2,490.82
5.76907,516.56,495.26
5.78948,517.65,498.61
5.81014,517.32,502.89
5.83042,516.45,506.71
5.85099,515.96,508.37
5.87554,516.97,509.29
5.89609,517.38,509.43
5.91651,517.7,507.15
5.93701,515.96,502.92
5.95746,516.17,498.53
5.98198,515.74,494.03
6.00254,513.79,489.42
6.02308,512.83,485.74
6.04343,512.86,482.99
6.06393,514.69,482.19
6.08441,514.75,483.75
6.10894,514.6,486.8
6.12952,514.88,491.64
6.15001,516.31,496.71
6.17041,517.04,501.57
6.19095,517.84,506.06
6.21546,518.47,509.05
6.23595,517.97,509.44
6.25641,516.38,508.15
6.27694,515.3,505.52
6.29745,515.04,502.82
6.31785,516.03,499.45
6.34243,514.63,493.56
6.36295,513.3,488.65
6.3834,512.84,482.92
6.4039,505.67,479.54
6.42435,500.14,477.43
6.44899,495.31,478.54
6.46959,494.45,482.23
6.49003,494.36,484.39
6.51042,496.09,490.51
6.53092,497.07,498.21
6.5513,494.26,503.17
6.57588,492.2,500.93
6.59641,502.16,502.75
6.61702,516.73,501.4
6.63742,502.38,490.92
6.65793,511.91,476.93
6.68234,509.73,460.55
6.70285,503.58,457.04
6.72338,534.86,460.23
6.7438,523.49,454.58
6.7643,530.59,460.67
6.78486,534.07,463.13
6.80935,538.06,479.11
6.82989,528.65,488.29
6.85042,526.32,496.63
6.87087,523.85,504.5
6.89135,518.68,512.6
6.91181,511.55,517.48
6.93633,510.04,520.99
6.95683,508.43,521.59
6.97736,505.14,518.47
6.99777,502.92,515.98
7.01845,503.93,511.58
7.04282,501.95,507.07
7.0634,502.36,502.45
7.08392,501.29,497.76
7.10451,501.83,492.41
7.12473,505.06,488.73
7.14536,507.25,487.78
7.16982,509.4,487.43
7.19032,511.12,490.14
7.21078,515.3,495.11
7.23133,515.24,498.29
7.2517,516.19,501.83
7.27629,516.55,505.47
7.29688,518.04,508.17
7.31736,517.43,509.74
7.33798,516.55,508.19
7.35842,514.84,503.95
7.37878,515.87,500.16
7.40326,516.9,494.93
7.42372,518.32,489.54
7.44435,518.05,485.03
7.46473,519.64,479.83
7.48522,518.71,478.66
7.50963,551.37,492.33
7.53037,545.1,488.66
7.55074,528.88,504.93
7.57124,521.9,497.54
7.59177,528.32,502.64
7.61215,511.26,502.91
7.63679,492.61,506.33
7.65728,506.88,507.26
7.67776,502.51,510.61
7.69818,502.01,512.89
7.71864,515.01,511.11
7.7431,514,507.29
7.76368,511.8,501.83
7.78424,510.64,498.26
7.80461,515.71,491.21
7.82518,512.77,485.57
7.84559,516.22,480.66
7.87008,511.77,479.92
7.89072,509.62,481.14
7.91113,510.9,484.71
7.93162,509.32,487.97
7.95217,506.45,492.98
7.97267,506.36,497.38
7.99715,511.89,501.3
8.0176,513.51,502.44
8.03815,514.41,504.75
8.05879,515.93,504.4
8.07907,513.94,502.72
8.1037,513.15,500.38
8.12422,513.32,496.9
8.1448,515.06,492.52
8.16511,515.85,488.62
8.18567,516.68,483.69
8.20613,518.14,480.56
8.23059,520.71,482.44
8.25116,519.77,481.96
8.27169,519.82,480.76
8.29208,524.85,492.41
8.31269,523.48,495.13
8.33716,525.19,500.1
8.3577,526.55,506.88
8.37826,528.24,509.11
8.39874,527.19,507.28
8.41924,527.35,507.43
8.43953,524.48,505.14
8.46423,525.19,500.31
8.4847,523.95,495.45
8.50523,520.36,492.16
8.5255,518.09,482.73
8.54605,513.67,481.78
8.57049,503.74,479.23
8.59124,485.99,462.98
8.61157,447.39,453.58
8.63207,443.11,462.67
8.65263,452.49,480.93
8.67294,469.39,484.55
8.69765,466.11,489.44
8.71811,467.49,483.35
8.7385,443.39,491.08
8.75901,470.71,503.66
8.77943,475.97,503.53
8.80394,478.18,503.43
8.82448,487.54,504.94
8.84501,492.03,503.15
8.86553,495.63,498.32
8.88603,500.3,496.46
8.9064,505.24,493.57
8.93097,509.99,492.65
8.95155,515.19,491.52
8.97195,513.36,493.82
8.99249,516.28,496.85
9.01295,511.43,500.08
9.03339,508.74,504.47
9.05798,503.99,503.57
9.07854,506.99,506.46
9.09907,506,506.57
9.11943,510.4,509.05
9.14003,525.92,506.64
9.16454,523.13,504.11
9.18513,495.71,493.29
9.2055,507.77,486.83
9.22598,508.81,478.87
9.24644,505.85,476.49
9.26692,522.88,477.59
9.29143,528.1,477.88
9.31202,541.88,484.1
9.33259,552.11,492.68
9.35311,549.29,497.14
9.37356,543.83,499.72
9.398,548.26,505.37
9.4185,551.01,512.3
9.43902,544.81,516.44
9.45936,545.65,520.15
9.47997,544.12,522.52
9.50058,544.09,523.42
9.52498,539.47,519.73
9.54554,546.18,516.39
9.56591,541.34,509.91
9.5864,544.28,504.13
9.6068,545.22,499.9
9.63134,535.78,495.92
9.65181,535.02,492.94
9.67244,532.62,491.55
9.69297,525.09,493.04
9.71333,524.67,497.23
9.73377,527.34,503.79
9.75832,526.67,507.23
9.77884,527.14,510.58
9.79937,527.71,514.67
9.81979,529.57,517.53
9.84046,530.65,518.43
9.86482,529.52,517.74
9.88536,528.22,513.39
9.90583,527.38,507.91
9.92634,526.3,501.53
9.94681,523.84,494.63
9.96731,522.87,487.9
9.99174,520.1,482.32
10.0123,519.08,478.06
10.0328,517.26,475.84
10.0534,515.21,476.48
10.0739,515.17,478.38
10.0944,514.73,481.3
10.119,515.99,485.04
10.1393,515.99,489.03
10.16,516.59,492.63
10.1805,516.67,495.3
10.2009,515.74,496.04
10.2253,514.19,496.23
10.2458,513.15,494.39
10.2664,513.72,491.71
10.2868,512.18,488.57
10.3074,511.74,486.45
10.3277,512.39,482.56
10.3523,510.92,479.45
10.3727,509.53,477.56
10.3933,509.63,477.65
10.4137,511.1,479.52
10.4343,515.88,484.41
10.4587,519.3,489.73
10.4793,522.44,494.99
10.4998,523.75,500.99
10.5204,522.6,506.59
10.5407,521.68,508.67
10.5613,521.35,509.74
10.5857,520.48,510.99
10.6062,519.58,509.39
10.6267,518.87,505.11
10.6473,519.09,501.29
10.6677,518.67,496.43
10.6922,514.54,491.95
10.7127,516.23,488.56
10.7332,516.39,485.65
10.7538,516.11,485.32
10.7742,515.69,486.45
10.7946,516.35,485.96
10.8192,516.28,485.97
10.8396,520.02,489.18
10.8602,520.22,493.54
10.8806,517.38,498.43
10.9011,516.1,502.35
10.9256,515.08,503.48
10.9461,517.46,503.58
10.9667,516.57,502.67
10.9871,512.86,500.53
11.0077,510.89,496.43
11.0282,512.31,492.14
11.0525,513.85,487.71
11.0732,512.28,483.77
11.0937,511.42,481.42
11.1141,512.14,482.53
11.1348,515.51,485.03
11.1552,517.41,488.42
11.1798,516.93,493.74
11.2003,515.74,497.59
11.2206,514.59,501.07
11.2412,515.47,504.86
11.2616,514.78,507.29
11.2861,504.42,511.43
11.3065,493.74,515.54
11.3271,488.59,517.23
11.3476,486.67,515.39
11.3681,485.94,511.91
11.3886,485.55,506.93
11.4132,487.84,500.34
11.4337,490.87,494.67
11.4542,494.5,490.94
11.4747,498.2,488.15
11.4951,502.16,488.12
11.5195,506.73,489.7
11.54,509.98,491.16
11.5606,515.39,493.33
11.5811,520.51,497.66
11.6017,528.01,505.93
11.6222,537.21,517.94
11.6466,544.36,527.75
11.6673,549.69,534
11.6876,552.15,535.2
11.7081,557.72,532.96
11.7285,562.58,527.37
11.753,564.46,520.5
11.7735,564.57,513.6
11.794,563.26,507.88
11.8145,564,505.5
11.8349,565.6,506
11.8555,565.68,510.8
11.88,564.95,521.64
11.9006,564.76,535.91
11.9211,562.01,550.33
11.9415,560.8,564.26
11.962,561.84,576.61
11.9864,560.27,584.09
12.0069,558.42,586.27
12.0275,559.14,584.22
12.0479,557.91,575.77
12.0685,554.93,563.82
12.0889,551.14,551.86
12.1134,545.31,541.08
12.134,540.25,529.47
12.1545,537.2,518.97
12.1749,535.16,512.18
12.1954,531.13,506.94
12.22,528.9,503.15
12.2404,527.72,500.72
12.261,530.58,503.18
12.2815,523.66,496.74
12.3019,513.33,473.99
12.3224,498.06,442.2
12.3469,481.85,410.96
12.3675,469.48,393.57
12.388,463.18,384.45
12.4084,460.15,381.76
12.429,459.92,381.81
12.4495,459.73,383.05
12.4739,460.59,384.84
12.4944,464.27,390.87
12.5149,466.82,397.7
12.5354,470.65,406.16
12.5559,475.12,414.73
12.5803,479.3,426.98
12.601,482.44,437.38
12.6214,485.95,447.91
12.6418,488.96,459.53
12.6624,491.17,469.62
12.6828,494.33,479.9
12.7073,495.67,486.92
12.7279,497.33,491.53
12.7483,500.87,494.83
12.7688,501.29,495.66
12.7893,501.64,494.93
12.8138,502.31,494.94
12.8343,502.65,494.15
12.8548,504.32,493.32
12.8754,504.05,492.86
12.8959,502.44,491.29
12.9164,502.75,492.03
12.9408,505.8,493.42
12.9614,507.04,496.34
12.9818,508.03,500.07
13.0023,508.03,505.46
13.0228,509.02,509.77
13.0473,510.82,513.41
13.0678,509.25,513.93
13.0885,508.8,513.14
13.1089,507.84,510.12
13.1293,505.87,506.49
13.1498,506.1,501.99
13.1743,505.68,496
13.1947,505.74,493
13.2153,505.19,489.4
13.2358,506.76,484.32
13.2563,508.6,482.45
13.2767,511.48,483.56
13.3012,509.39,486.65
13.3217,509.91,490.52
13.3422,509.33,493.62
13.3627,509.46,496.89
13.3832,509.57,499.51
13.4077,509.26,502.81
13.4282,508.6,507.85
13.4488,507.28,510.48
13.4692,507.23,511.98
13.4897,506.38,511.79
13.5102,507.51,514.43
13.5346,507.2,518.94
13.5552,507.16,529.35
13.5757,509.33,547.48
13.5962,511.06,578.79
13.6166,513.45,623.03
13.6411,514.56,665.82
13.6617,515.05,699.86
13.6822,516.44,726.49
13.7026,517.35,746.59
13.7231,518.68,759.47
13.7436,516.14,766.98
13.7682,511.52,770.18
13.7887,503.21,763.95
13.8092,491.37,752.16
13.8297,475.7,734.53
13.8502,460.96,713.42
13.8747,448.97,690.34
13.8952,442.17,667.87
13.9159,440.94,645.7
13.9362,443.95,624.96
13.9567,447.76,601.56
13.9772,457.61,579.65
14.0016,472.09,557.12
14.0221,483.67,535.9
14.0428,498.74,523.52
14.0632,513.19,513.21
14.0836,525.95,497.77
14.1081,535.16,483.22
14.1285,541.13,461.17
14.1491,548.1,429.74
14.1696,552.68,386.59
14.19,555.95,337.87
14.2106,554.96,291.1
14.2351,551.97,253.28
14.2557,550.57,233.82
14.2762,548.06,228.86
14.2966,546.25,234.49
14.3172,542.6,247.39
14.3375,539.88,263.31
14.3621,539.3,282.05
14.3826,537.64,303.64
14.4031,535.31,327.31
14.4236,532.85,350.05
14.4441,530.48,370.84
14.4685,528.78,391.47
14.4891,531.43,411.78
14.5095,531.54,428.02
14.53,531.83,439.42
14.5505,529.87,447.13
14.571,527.49,451.51
14.5956,523.59,454.81
14.616,521.28,456.64
14.6367,519.22,457.72
14.6571,517.78,458.17
14.6776,517.42,457.94
14.702,518.34,460.55
14.7225,517.87,464.24
14.743,517.1,469.19
14.7637,516.88,475.75
14.7841,516.5,483.2
14.8045,515.4,490.56
14.829,513.72,497.25
14.8495,514.38,502.8
14.8701,514.1,505.44
14.8904,512.88,505.55
14.9109,512.7,504.04
14.9354,511.16,500.83
14.9561,510.73,496.27
14.9765,510.98,492.61
14.9971,511.79,486.29
15.0176,511.43,482.03
15.038,511.94,478.63
15.0624,512.96,477.5
15.083,511.96,479
15.1035,510.97,481.8
15.124,513.18,486.24
15.1444,511.94,492.19
15.1649,510.95,498.55
15.1894,511.56,504.44
15.21,511.45,508.75
15.2304,510.96,511
15.251,510.97,510
15.2714,511.17,508.4
15.2959,511.34,504.92
15.3165,509.07,499.74
15.337,499.46,493.79
15.3575,491.97,488.83
15.3778,487.57,485.47
15.3984,487.06,483.77
15.4229,488.65,482.22
15.4434,489.12,483.17
15.4639,488.29,486.14
15.4843,491.64,491.51
15.5048,494.31,497.01
15.5293,495.85,502.41
15.5499,496.88,507.73
15.5705,496.7,510.18
15.5909,498.76,510.54
15.6113,501.61,509.84
15.6318,503.69,508.27
15.6564,503.75,504.41
15.6769,505.8,499.73
15.6974,515.44,494.59
15.7178,524.15,489.07
15.7385,529.52,483.85
15.7628,533.02,481.68
15.7833,535.01,481.75
15.8039,534.61,482
15.8244,535.09,485.2
15.8451,533.27,490.16
15.8658,532.42,495.33
15.8899,530.73,500.26
15.9104,533.39,505.61
15.9308,531.91,509.29
15.9513,530.53,511.03
15.9718,529.42,512.22
15.9962,526.54,510.18
16.0168,525.83,505.74
16.0373,524.66,499.99
16.0578,523.33,494.6
16.0783,522.47,488.68
16.0987,521.17,484.14
16.1233,519.54,481.11
16.1438,519.03,479.29
16.1645,518.42,479.83
16.1848,515.74,482.87
16.2053,514.99,486.89
16.2258,514.59,492.71
16.2504,513.67,499.77
16.2708,512.54,504.42
16.2912,513.63,507.73
16.3118,514.11,509.59
16.3322,513.68,510.07
16.3566,514.75,508.46
16.3772,514,504.96
16.3978,514.2,499.57
16.4184,514.76,493.26
16.4387,514.21,487.01
16.4592,516.77,483
16.4838,517.01,480.6
16.5043,517.81,479.68
16.5248,519.25,481.35
16.5452,519.8,484.68
16.5657,518.44,489.74
16.5902,516.95,495.59
16.6107,518.56,502.07
16.6313,518.65,506.86
16.6517,517.12,510.09
16.6722,515.7,511.07
16.6927,515.16,510.86
16.7172,515.72,509.89
16.7377,515.98,505.51
16.7583,514.58,500.01
16.7787,513.47,494.41
16.7992,511.77,489.12
16.8236,512.22,486.3
16.8442,511.38,484.24
16.8646,510.5,483.39
16.8851,510.6,484.11
16.9056,510.88,487.49
16.926,512.3,492.39
16.9506,512.04,497.91
16.9712,510.43,502.93
16.9916,510.75,507.55
17.0121,514.4,509.84
17.0325,513.92,510.47
17.057,515.53,509.78
17.0776,518.23,508.22
17.0981,519.98,504.78
17.1186,522.59,500.22
17.139,522.67,495.18
17.1597,524.14,491.34
17.1841,524.11,487.07
17.2046,524.29,483.46
17.2251,523.63,482.57
17.2456,523.7,483.45
17.2661,521.36,487.16
17.2865,521.29,492.13
17.3111,520.83,497.3
17.3316,519.67,502.64
17.3521,520.53,508.11
17.3726,518.43,510.89
17.393,517.34,511.11
17.4175,516.27,510.89
17.4381,515.62,508.51
17.4585,514.89,503.81
17.4791,514.52,498.25
17.4995,514.61,493
17.52,514.09,487.2
17.5445,513.87,481.76
17.5651,512.1,479.01
17.5855,512.68,477.61
17.606,512.34,480.28
17.6264,512.27,484.43
17.651,512.22,489.74
17.6715,510.78,495.39
17.6921,509.22,500.32
17.7127,506.98,504.85
17.7329,506.58,507.88
17.7535,505.46,508.91
17.7781,506.77,508.52
17.7986,506.02,505.62
17.8191,507.21,501.5
17.8396,508.17,497.6
17.86,508.34,491.48
17.8845,509.67,486.38
17.9052,509.54,482.51
17.9256,510.03,479.4
17.946,510.02,479.72
17.9665,510.82,482.18
17.987,511.65,486.74
18.0115,511.32,492.99
18.0321,510.46,498.8
18.0524,510.37,504.04
18.073,510.89,508.83
18.0935,510.72,511.86
18.1179,509.97,514.09
18.1384,509.58,512.47
18.1589,510.26,509.38
18.1795,514.41,504.9
18.1999,518.73,501.12
18.2204,521.58,495.9
18.245,523.87,490.72
18.2654,525.89,486.17
18.286,527.31,484.14
18.3064,527.05,484.11
18.3268,524.84,485.69
18.3473,524.67,489.95
18.372,523.54,494.56
18.3925,523.63,499.45
18.413,522.1,505.16
18.4333,521.08,509.93
18.4539,519.67,512.74
18.4783,519.53,513.19
18.4988,519.03,512.55
18.5193,520.62,509.24
18.5399,522.7,506.8
18.5603,522.96,502.24
18.5808,522.57,497.39
18.6053,520.45,491.31
18.6259,519.96,485.65
18.6463,519.37,483.52
18.6669,518.7,482.82
18.6875,518.16,484.25
18.7119,516.93,488.8
18.7324,519.14,494.64
18.7528,519.31,499.91
18.7734,518.05,505.73
18.7938,518.64,510.58
18.8143,517.91,513.67
18.8387,518.33,513.53
18.8594,517.86,511.83
18.8799,517.09,508.26
18.9005,516.67,503.01
18.9208,519.14,498.21
18.9453,518.51,492.97
18.9658,518.21,486.97
18.9864,517.97,482.38
19.0068,516.97,480.1
19.0272,516.58,480.08
19.0478,516.46,482.07
19.0724,516.77,486.65
19.0928,515.62,492.32
19.1134,514.89,498.06
19.1339,513.71,503.25
19.1542,513.17,507.4
19.1787,513.54,509.52
19.1992,511.63,510.81
19.2198,513.9,510.85
19.2402,513.92,508.48
19.2607,513.94,504.38
19.2812,513.95,499.71
19.3057,514.56,493.57
19.3263,514.05,487.65
19.3468,514.84,483.52
19.3673,515.07,481.62
19.3878,514.06,481.49
19.4082,514.25,484.4
19.4327,514.8,488.92
19.4532,514.84,493.93
19.4737,514.67,499.95
19.4942,514.14,505.76
19.5146,515.11,509.61
19.5392,516.29,512.08
19.5597,516.43,512.67
19.5802,517.74,511.13
19.6007,519.39,508.31
19.6211,518.92,503.65
19.6416,519.33,498.72
19.6661,518.87,492.37
19.6868,518.69,485.9
19.7072,517.55,481.92
19.7277,517.24,480.54
19.7482,516.19,481.03
19.7726,515.96,483.42
19.7931,515.76,487.74
19.8137,514.81,493.19
19.8341,514.85,499.35
19.8546,513.88,505.08
19.8752,514.9,508.87
19.8996,514.52,511.29
19.9202,514.42,512.03
19.9406,514.33,510.43
19.9611,514.87,506.74
19.9816,514.69,502.19
20.0061,514.36,497.55
20.0266,512.88,491.24
20.0472,513.51,485.8
20.0676,515.81,482.24
20.088,516.44,479.59
20.1086,516.76,479.47
20.1331,517.4,481.98
20.1537,517.32,486.58
20.1742,516.46,492.07
20.1946,515.97,498.45
20.2151,514.57,503.96
20.2397,514.26,508.97
20.2601,513.41,512.58
20.2806,513.33,512.86
20.3011,514.26,511.09
20.3217,514.61,507.67
20.3422,515.29,502.74
20.3666,515.03,497.79
20.387,514.22,492.03
20.4076,513.78,487.23
20.4281,514.62,482.98
20.4485,514.1,480.58
20.473,513.88,481.27
20.4935,514.1,484.01
20.5143,513.88,490.01
20.5347,514.51,496.01
20.555,513.6,501.41
20.5756,512.68,506.93
20.6001,512.95,510.54
20.6205,512.36,512.63
20.6411,511.09,512.71
20.6615,509.87,511.16
20.682,511.1,507.13
20.7025,510.88,502.11
20.7271,512.3,497.08
20.7476,512.04,491.07
20.768,513.03,485.05
20.7887,516.83,481.04
20.8091,516.86,479.43
20.8335,516.69,480.35
20.854,517.95,483.08
20.8745,517.96,487.06
20.895,518.17,492.65
20.9154,517.13,498.72
20.936,515.51,504.18
20.9604,515.81,508.34
20.9809,516.25,511.07
21.0014,515.8,511.26
21.0219,515.24,509.61
21.0425,514.39,505.89
21.0669,513.71,501.71
21.0874,514.77,496.37
21.1079,515.02,490.29
21.1284,514.81,485.23
21.1489,514.65,481.59
21.1694,515.52,480.87
21.1939,515.62,481.3
21.2145,516.09,485.04
21.235,515.87,489.63
21.2553,516.1,495.7
21.2759,514.68,501.36
21.3003,514.74,506.69
21.3208,514.59,510.95
21.3414,513.08,511.96
21.3619,513.66,511.77
21.3823,513.13,508.82
21.4029,513.5,505.25
21.4274,514,500.2
21.4479,514.4,495.16
21.4684,515.52,489.53
21.4888,514.22,484.42
21.5093,514.77,480.74
21.5338,514.82,478.99
21.5544,515.86,479.19
21.5749,516.08,482.15
21.5954,516.47,486.92
21.6159,516.37,492.34
21.6363,515.3,497.87
21.6608,515.84,503.3
21.6813,516.67,507.84
21.7019,516.34,508.87
21.7223,515.67,508.5
21.7428,516.54,507
21.7633,516.03,504
21.7878,515.62,499.8
21.8083,516.3,494.24
21.8288,516.04,488.19
21.8493,517.03,483.35
21.8697,515.82,476.68
21.8944,514.86,473.35
21.9148,513.09,473.68
21.9353,513.07,476.14
21.9558,512.66,480.71
21.9763,512.13,487.17
21.9967,511.7,494.14
22.0212,511.76,501.71
22.0418,512.01,508.77
22.0624,511.21,511.01
22.0828,511.57,511.01
22.1032,510.25,509.21
22.1278,508.2,506.57
22.1483,507.76,501.45
22.1687,508.41,498.16
22.1892,507.73,495.73
22.2099,507.38,493.98
22.2303,508.71,495.59
22.2548,509.96,498.27
22.2752,512.17,498.82
22.2957,514.14,500.45
22.3162,514.31,502.76
22.3366,514.65,505.01
22.3612,515.52,506.41
22.3817,516.81,508.73
22.4023,515.65,511.18
22.4228,513.92,509.74
22.4432,513.94,506.2
22.4637,513.15,502.16
22.4882,510.32,496.13
22.5087,509.26,490.5
22.5292,507.6,483.8
22.5497,508.08,477.44
22.5702,508.27,471.55
22.5906,507.01,468.64
22.6152,507.21,468.11
22.6357,507.37,470.29
22.6562,504.89,473.83
22.6767,499.12,479.27
22.6972,495.69,485.01
22.7217,495.15,490.21
22.7422,495.12,495.57
22.7626,493.7,500.65
22.7832,500.16,503.52
22.8037,512.13,506.42
22.8243,520.5,506.14
22.8487,526.4,503.51
22.8693,529.52,499.81
22.8896,531.62,495.45
22.9101,531.29,491.56
22.9307,532.63,486.24
22.9552,532.31,483
22.9756,531.65,482.4
22.9961,530.72,482.72
23.0167,528.17,486.37
23.0371,526.34,491.7
23.0576,524.47,497.36
23.0821,521.98,502.89
23.1027,520.38,508.51
23.1231,518.71,512.21
23.1437,517.76,513.17
23.164,516.61,513.13
23.1887,517.29,510.91
23.2091,518.23,507.33
23.2295,518.99,502.46
23.2502,518.99,496.97
23.2705,517.79,491.77
23.2911,518.63,486.22
23.3156,519.51,482.98
23.3361,518.8,481.38
23.3565,518.24,481.7
23.377,517.8,484.36
23.3975,518.24,489.09
23.422,518.19,493.27
23.4425,516.95,498.62
23.4632,515.76,503.89
23.4836,515.01,507.92
23.504,514.81,509.33
23.5245,516.85,509.67
23.549,523.48,512.73
23.5696,535.98,520.79
23.5901,550.38,527.83
23.6105,561.51,529.26
23.631,568.61,526.01
23.6554,571.29,520.41
23.676,568.23,514.93
23.6965,563.78,510.54
23.717,553.43,507.23
23.7375,540.94,506.59
23.758,526.95,505.87
23.7824,512.76,503.9
23.803,499.21,502.92
23.8235,489.97,503.33
23.8441,484.77,502.87
23.8644,482.22,502.29
23.8849,480.98,501.63
23.9094,481.18,498.91
23.93,482.94,495.13
23.9505,483.76,488.9
23.9709,481.4,482.32
23.9915,475.32,474.66
24.0159,468.66,467.33
24.0365,462.13,464.26
24.0569,461.7,464.41
24.0774,463.96,465.93
24.0982,463.37,469.14
24.1184,462.1,474.51
24.1429,463.08,482.81
24.1635,464.86,493.05
24.1839,464.89,502.24
24.2045,464.71,511.19
24.2248,464.17,518.15
24.2494,466.14,522.12
24.2698,470.91,521.7
24.2904,475.33,517.76
24.3109,480.26,510.81
24.3313,486.81,503.65
24.352,493.85,495.72
24.3763,500.68,488.77
24.3969,507.14,483.82
24.4174,516.71,480.65
24.4379,527.57,481.92
24.4585,542.66,486.34
24.4828,558.13,493.07
24.5034,570.9,500.86
24.5238,582.32,509.69
24.5444,591.46,515.75
24.565,597.17,520.4
24.5853,600.53,521.72
24.6097,599.23,521.58
24.6303,593.98,519.26
24.6508,586.58,514.41
24.6714,577.67,508.73
24.6918,566.93,503.18
24.7164,558.35,496.55
24.7368,551.28,490.24
24.7573,544.62,486.79
24.7778,539.5,484.23
24.7983,536.4,484.58
24.8187,531.92,487.67
24.8433,530.53,492.33
24.8638,528.83,497.27
24.8843,525.06,502.41
24.9047,520.05,505.13
24.9252,510.24,501.9
24.9497,499.59,495.12
24.9703,493.67,490.9
24.9908,488.94,487.52
25.0113,486.75,484.42
25.0319,486.4,481.13
25.0522,486.52,476.91
25.0767,487.22,473.12
25.0972,490.57,470.5
25.1177,495.06,471.2
25.1383,498.85,473.76
25.1588,501.48,477.41
25.1793,502.58,481.53
25.2038,503.67,487.02
25.2244,505.73,493.22
25.2448,506.19,499.97
25.2653,506.95,505.38
25.286,506.96,508.5
25.3102,506.97,509.2
25.3307,507.97,508.96
25.3513,509.18,506.17
25.3717,506.94,499.54
25.3922,497.55,490.03
25.4126,489.64,482.62
25.4372,485.71,475.7
25.4578,484.37,470.16
25.4781,484.3,467.53
25.4987,485.44,466.62
25.5192,487.55,469.3
25.5436,487.24,474.44
25.5642,483.59,479.95
25.5847,474.47,485.76
25.6052,466.78,492.41
25.6258,462.82,498.53
25.6463,461.66,502.22
25.6706,462.93,504.18
25.6912,465.14,504.34
25.7117,467.51,501.47
25.7323,466.41,499.58
25.7526,465.33,493.66
25.777,464.26,484.93
25.7977,465.81,477.34
25.8182,470.65,470.48
25.8386,475.32,464.98
25.8591,481.45,463.78
25.8798,487.16,465.63
25.9042,492.53,469.5
25.9248,499.02,474.8
25.9451,504.62,480.64
25.9656,508.7,486.31
25.9862,512.36,491.25
26.0067,513.89,494.6
26.0311,516.71,496.28
26.0516,518.77,497.22
26.072,519.81,496.38
26.0926,520.85,493.7
26.113,521.88,490.76
26.1375,524.1,486.01
26.1581,524.68,481.21
26.1785,524.75,476.97
26.1991,525.4,474.57
26.2195,526.12,474.46
26.24,524.49,476.77
26.2645,524.8,480.61
26.285,526.04,485.09
26.3056,525.43,488.27
26.326,525.34,491.82
26.3464,524.07,495.05
26.371,523.66,498.24
26.3915,524.53,498.39
26.412,527.42,498.12
26.4325,528.74,492.49
26.4529,529.59,480.59
26.4734,532.07,479.08
26.498,531.46,471.66
26.5186,530.97,466.93
26.539,529.57,459.14
26.5594,529.46,456.11
26.58,532.37,460.29
26.6044,534.09,470.43
26.625,534.87,471.55
26.6454,535.5,474.84
26.666,535.2,487.47
26.6864,534.16,494.18
26.707,533.93,509.94
26.7316,532.74,506.95
26.7519,529.79,503.36
26.7727,526.64,491.69
26.7931,526.11,486.55
26.8135,522.89,476.44
26.8379,519.91,464.55
26.8584,520.13,463.04
26.8789,516.1,455.23
26.8994,514.08,446.19
26.9199,512.67,452.15
26.9404,520.13,447.92
26.9649,539.31,458.34
26.9854,564.04,469.67
27.006,590.24,481.94
27.0265,608.19,484.75
27.0471,614.95,479.4
27.0674,615.76,465.32
27.0918,610.81,462.66
27.1124,603.25,458.72
27.133,595.8,459.78
27.1534,582.44,451.42
27.1739,569.55,435.14
27.1984,562.44,427.91
27.2189,552.95,426.93
27.2395,544.36,427.34
27.2598,537.89,435.27
27.2804,530.11,432.82
27.3008,525.49,440.86
27.3253,522.39,447.88
27.3458,517.51,452.91
27.3664,518.41,468.93
27.3868,514.53,485.14
27.4074,510.22,482.51
27.4319,505.58,497.61
27.4524,504.66,505.49
27.4728,503.33,505.19
27.4935,501.26,509.75
27.5138,498.01,526
27.5344,496.41,519.8
27.5589,495.73,536.64
27.5794,492.98,534.71
27.5998,494.19,549.57
27.6203,492.15,565.86
27.6408,490.92,582.29
27.6654,491.33,594.43
27.6858,491.27,607.14
27.7063,489.81,608.51
27.7268,488.65,619.01
27.7473,491.52,622.61
27.7679,491.42,641.89
27.7924,491.73,648.31
27.8128,491.19,650.05
27.8334,494.55,625.04
27.8538,494.64,628.03
27.8743,495.91,625.42
27.8987,497.33,621.54
27.9193,498.66,613.03
27.94,499.53,599.63
27.9602,501.02,582.1
27.9808,500.42,563.28
28.0012,500.54,546.62
28.0257,502.03,533.7
28.0463,502.02,524.16
28.0668,502.42,518.73
28.0873,502.53,516.38
28.1077,506.23,510.91
28.1283,509.58,507.72
28.1528,510.67,506.38
28.1732,511.73,503.1
28.1937,512.99,499.28
28.2141,513.19,494.03
28.2346,513.35,486.62
28.2591,514.68,479.7
28.2798,512.74,470.56
28.3001,512.6,461.25
28.3208,513.48,453.6
28.3411,513.78,447.68
28.3616,514.63,442.94
28.3862,515.1,441.35
28.4066,516.08,442.08
28.4272,516.86,445.07
28.4476,517.89,452.45
28.4682,518.71,460.36
28.4926,520.97,467.49
28.5132,521.58,473.99
28.5336,523.46,478.99
28.5541,524.57,482.19
28.5746,524.66,484.16
28.5951,523.52,482.92
28.6196,521.42,479.54
28.6401,520.94,475.23
28.6607,518.75,470.99
28.6811,520,464.99
28.7015,519.8,462.39
28.7261,519.64,458.91
28.7466,517.31,457.53
28.7671,518.05,458.82
28.7876,517.04,462.66
28.808,516.83,468.33
28.8285,517.27,474.86
28.8531,520.61,480.29
28.8736,520.89,485.63
28.8941,521.71,488.71
28.9145,522.57,488.16
28.9351,523.46,487.53
28.9596,524.16,484.63
28.9801,523.93,481.1
29.0007,523.95,475.88
29.0213,523.96,471.3
29.0416,521.77,466.84
29.0621,521.21,461.87
29.0866,522.57,459.9
29.107,521.46,460.92
29.1275,522.16,462.94
29.1481,522.53,467.15
29.1685,524.23,473.32
29.1931,523.78,480.86
29.2135,522.02,489.28
29.234,520.22,496.43
29.2545,519.18,502.34
29.275,517.34,505.47
29.2956,515.07,504.38
29.3201,511.66,502.3
29.3407,509.73,497.64
29.3612,510.38,491.91
29.3817,513.7,487.93
29.4021,509.96,483.54
29.4224,518.17,474.44
29.447,523.14,471.35
29.4675,514.91,476.68
29.488,524.13,476.54
29.5085,528.5,474.43
29.5291,553.4,478.95
29.5535,565.92,486.36
29.574,542.94,475.49
29.5945,538.35,482.59
29.615,535.68,477.27
29.6355,540.54,490.22
29.6559,502.44,492.57
29.6805,526.35,478.86
29.7011,535.68,488.49
29.7215,530.34,481.39
29.7419,501.67,479.91
29.7624,496.34,480.73
29.7869,511.07,487.78
29.8075,520.46,491.43
29.828,514.57,490.14
29.8485,513.65,490.11
29.8689,510.92,494.09
29.8894,507.74,498.87
29.9139,505.99,504.3
29.9344,507.59,510.84
29.9549,505.27,514.47
29.9754,504.82,517.98
29.9959,505.06,518.98
30.0204,503.64,515.59
30.0411,502.92,513.47
30.0616,509.93,513.97
30.082,502.35,504.78
30.1024,529.28,511.42
30.123,502.42,501.34
30.1474,480.74,474.07
30.1681,461.99,462.26
30.1884,467.99,451.21
30.2089,482.19,456.76
30.2293,492.75,461.21
30.2539,497.2,466.37
30.2744,507.76,472.5
30.2949,503.01,483.2
30.3154,490.61,498.76
30.3358,523.49,498.41
30.3563,541.59,490.72
30.3809,566.47,486.18
30.4014,567.58,487.14
30.4219,572.26,483.72
30.4423,569.21,484.97
30.4629,557.57,484.78
30.4833,548.65,482.62
30.5078,541.32,473.5
30.5285,536.06,470.6
30.5489,526.65,469.68
30.5693,511.32,475.14
30.5898,520.85,478.11
30.6143,508.28,483.29
30.6347,504.63,489.43
30.6553,501.7,496.15
30.6758,499.96,502.12
30.6964,498.17,505.29
30.7168,497.74,506.44
30.7414,494.79,504.95
30.7618,495.63,501.36
30.7823,496.9,496.89
30.8028,499.72,492.11
30.8232,500.98,486.09
30.8477,501.58,479.47
30.8683,502.07,474.18
30.8888,503.45,471.14
30.9093,505.96,469.51
30.9298,508.17,470.01
30.9502,508.94,471.81
30.9749,509.55,476.65
30.9952,513.04,481.92
31.0157,513.03,488.13
31.0362,513.43,494.51
31.0568,512.54,499.01
31.0813,514.03,501.4
31.1017,513.23,501.32
31.1222,513.78,500.06
31.1427,513.82,496.05
31.1632,515.66,491.64
31.1837,516.73,486.51
31.2082,518.58,480.61
31.2288,518.07,475.29
31.2493,519.65,471.63
31.2697,519.92,469.9
31.2901,521.34,469.52
31.3147,520.27,471.62
31.3353,520.02,475.49
31.3557,519.81,481.2
31.3762,518.65,486.96
31.3968,518.32,492.17
31.4171,516.86,496.33
31.4416,515.88,498.67
31.4622,517.11,498.33
31.4827,515.89,497.67
31.5031,515.51,494.53
31.5236,516.61,490.03
31.5442,517.89,486.22
31.5686,516.11,480.98
31.5891,516.49,474.98
31.6096,515.99,471.39
31.6303,517.39,469.71
31.6508,518.51,471.17
31.6751,518.41,473.13
31.6956,516.53,478.11
31.7162,512.22,484.49
31.7366,513.98,491.19
31.7573,505.58,497.15
31.7777,512.47,501.32
31.8021,502.57,503.86
31.8227,513.86,502.69
31.8431,515.69,501.75
31.8636,519.95,497.4
31.8841,524.56,491.92
31.9085,525.85,486.94
31.9291,502.68,482.15
31.9497,509.54,476.12
31.9701,510.23,472.29
31.9905,503.39,471.84
32.011,511.11,471.27
32.0355,510.49,473.81
32.056,510.39,477.85
32.0766,510.11,483.88
32.0971,509.49,488.51
32.1175,508.39,495
32.1419,508.91,499
32.1626,503.53,501.2
32.183,505.62,502.16
32.2035,507.1,501.13
32.224,509.08,498.1
32.2444,512.26,493.28
32.269,514.01,488.83
32.2896,515.81,483.06
32.31,517.05,477.25
32.3305,517.24,473
32.351,517.79,471.2
32.3755,518.63,469.76
32.396,519.31,471.41
32.4166,518.84,476.53
32.437,519.68,482.82
32.4575,519.34,487.66
32.4779,519.47,492.73
32.5024,517.78,497.18
32.523,517.42,500.74
32.5435,517.54,501.8
32.5639,516.83,501.04
32.5844,518.66,498.03
32.6049,516.53,492.82
32.6294,515.43,487.86
32.65,515.94,482.69
32.6705,514.15,477.75
32.691,513.92,474.2
32.7115,516.94,471.56
32.7359,517.55,472.05
32.7564,517.44,474.44
32.7769,516.75,478.75
32.7974,515.8,483.8
32.818,517.04,489.04
32.8384,518.03,491.43
32.863,515.83,493.35
32.8834,514.06,491.68
32.904,519.65,492.54
32.9244,519.72,494.03
32.945,509.38,489.43
32.9694,511.1,487.54
32.99,509.68,485.03
33.0104,508.14,480.63
33.0309,510.52,474.7
33.0513,507.81,470.16
33.0719,508.85,467.53
33.0964,509.88,467.82
33.1169,513.7,470.86
33.1374,521.36,477.29
33.1579,522.29,481.83
33.1784,521.83,487.26
33.2028,520.87,492.81
33.2234,518.29,497.25
33.2439,517.43,500
33.2643,517.15,499.4
33.2848,516.32,499.12
33.3053,516.65,497.5
33.3298,516.52,493.6
33.3504,516.22,488.48
33.3709,515.58,482.98
33.3913,515.66,477.19
33.4118,516.33,472.75
33.4362,518.06,471.6
33.4568,518.25,471.48
33.4773,518.8,473.38
33.4978,519.44,477.11
33.5183,518.15,482.09
33.5388,516.52,487.27
33.5633,516.22,493.41
33.5838,514.97,498.73
33.6045,514.98,502.59
33.6248,514.58,506.67
33.6453,512.67,515.73
33.6698,514.93,530.99
33.6903,523.55,555.19
33.7109,536.84,592.75
33.7313,553.27,632.8
33.7517,568.62,663.24
33.7722,583.49,684.59
33.7967,593.39,699.07
33.8173,599.52,706.86
33.8378,601.61,710.69
33.8583,599.49,710.55
33.8788,593.59,705.84
33.8993,583.47,695.47
33.9237,571.58,678.98
33.9443,559.46,657.38
33.9648,547.77,629.31
33.9853,536.82,596.24
34.0058,525.85,553.8
34.0303,513.88,498.84
34.0508,499.91,436.47
34.0712,485.12,373.38
34.0917,472.7,320.1
34.1122,462.76,284.48
34.1326,456.41,267.18
34.1572,455.93,265.35
34.1777,457.54,272.68
34.1982,459.43,285.74
34.2187,464.15,303.79
34.2392,468.92,324.84
34.2636,473.33,346.67
34.2842,476.67,367.53
34.3047,479.13,386.23
34.3251,480.51,400.98
34.3456,483.21,412.59
34.3661,486.76,422.67
34.3907,488.81,429.73
34.4111,489.85,433.39
34.4316,492.68,436.31
34.4521,495.34,438.05
34.4726,499.07,439.24
34.4971,501.46,439.99
34.5176,502.17,441.99
34.5381,503.53,445.59
34.5587,505.03,450.48
34.5791,506.62,457.58
34.5995,507.5,465.26
34.6241,509.4,473.21
34.6446,510.12,480.97
34.6651,511.09,486.38
34.6855,510.68,490.7
34.7061,509.94,493.56
34.7305,510.75,494.25
34.751,510.2,492.8
34.7717,512.36,488.64
34.7921,512.89,484.11
34.8126,514.11,480.29
34.8331,512.09,474.83
34.8576,503.47,467.06
34.8781,493.78,462.25
34.8986,489.42,461.6
34.919,486.14,463.08
34.9395,485.71,467.67
34.96,485.37,473.53
34.9845,486.29,480.43
35.0051,487.44,487.34
35.0257,490.35,494.07
35.0461,492.28,497.26
35.0665,492.42,498.01
35.091,494.94,497.21
35.1117,496.55,496.36
35.1321,497.24,492.69
35.1526,498.19,487.95
35.173,498.55,483.36
35.1937,500.04,477.89
35.218,502.23,473.51
35.2385,503.39,470.41
35.259,505.31,470.33
35.2795,507.25,471.46
35.2999,508.2,474.97
35.3244,508.76,480.38
35.3452,510.01,485.5
35.3656,511.41,491.2
35.386,510.12,496.36
35.4065,510.1,499.29
35.4269,509.68,501.23
35.4515,508.74,502.18
35.472,508,499.75
35.4925,507.2,496.4
35.513,508.36,491.92
35.5335,507.89,486.73
35.5539,510.31,481.59
35.5784,513.25,477.07
35.5991,513.4,473.86
35.6195,513.12,473.09
35.6399,512.29,474.47
35.6605,515.64,479.17
35.6849,524.71,486.94
35.7055,533.17,494.55
35.7259,537.73,501.24
35.7464,539.19,505.19
35.7669,538.75,507.95
35.7873,538.4,508.96
35.8119,538.52,507.57
35.8325,536.22,504.66
35.853,533.77,500.33
35.8735,531.82,494.26
35.8939,531.65,488.61
35.9184,534.72,482.69
35.9388,536.58,477.75
35.9594,537.86,473.8
35.9799,538.29,472.44
36.0003,538.43,473.15
36.0208,537.55,476.12
36.0454,535.44,481.1
36.0659,532.55,487.48
36.0864,530.24,493.38
36.1069,526.99,498.91
36.1273,525.19,502.52
36.1519,523.15,504.42
36.1724,523.72,505.54
36.1929,523.18,504.23
36.2134,523.54,500.18
36.2341,522.23,494.75
36.2544,521.79,489
36.2788,520.83,482.6
36.2993,520.26,478.28
36.3199,520.01,474.62
36.3404,519.01,472.9
36.3609,517.61,473.92
36.3853,518.29,477.13
36.4058,517.83,480.51
36.4263,517.66,485.01
36.4468,516.53,490.41
36.4673,516.02,495.72
36.4878,515.02,498.98
36.5123,513.82,500.98
36.5328,513.05,500.59
36.5535,514.04,498.87
36.5738,513.23,495.1
36.5943,513.99,490.48
36.6188,514.19,484.98
36.6393,513.35,479.58
36.6598,513.88,473.67
36.6804,513.71,470.73
36.7008,513.96,469.19
36.7212,513.97,469.35
36.7458,514.98,472.88
36.7663,515.18,478.7
36.7867,514.95,484.56
36.8072,515.36,490.45
36.8277,515.29,495.56
36.8482,515.63,499.65
36.8727,516.3,501.52
36.8933,515.84,501.42
36.9137,515.47,500.13
36.9342,516.18,496.91
36.9547,513.14,489.92
36.9792,510.11,482.94
36.9997,508.49,477.15
37.0202,507.39,472.32
37.0407,507.51,469.26
37.0612,507.81,467.81
37.0817,507.25,467.44
37.1061,508.6,470.56
37.1267,509.88,476.24
37.1473,508.1,482.8
37.1678,508.08,489.64
37.1881,506.87,496.51
37.2127,506.89,500.41
37.2333,506.91,501.53
37.2537,507.53,501.62
37.2742,508.23,499.9
37.2946,507.98,495.32
37.3151,509.18,490.45
37.3397,510.35,485.56
37.3601,511.88,480.05
37.3806,513.9,475.04
37.4011,516.72,471.43
37.4218,522.98,471.95
37.446,527.78,473.96
37.4667,530.23,477.77
37.4872,531.18,483.21
37.5076,532.54,489.37
37.5281,532.04,494.5
37.5487,530.23,498.6
37.5731,527.38,502.08
37.5936,526.91,503.46
37.6141,526.32,503.37
37.6346,525.06,502.7
37.6552,524.25,499.96
37.6796,522.6,495.77
37.7002,520.68,490.21
37.7207,520.14,484.37
37.7412,521.51,478.5
37.7616,521.81,473.8
37.782,521.25,471.64
37.8066,521.2,471.11
37.8271,520.76,473.09
37.8478,521.21,476.27
37.8682,520.57,481.22
37.8885,520.25,486.77
37.909,519,492.02
37.9335,517.8,496.61
37.9541,516.64,499.89
37.9746,515.91,499.91
37.995,515.33,498.93
38.0156,514.86,496.14
38.04,515.09,491.32
38.0605,515.87,487.05
38.0812,515.9,481.84
38.1016,515.12,474.47
38.122,515.3,468.18
38.1426,515.04,464.74
38.167,515.83,464.59
38.1875,516.26,466.48
38.2081,517.01,471.98
38.2286,517.01,477.58
38.249,516.41,483.47
38.2735,516.13,489.57
38.2941,514.9,494.66
38.3145,515.32,500.13
38.335,516.26,505.1
38.3555,517.4,506.88
38.376,517.12,505.91
38.4004,516.9,501.92
38.4211,516.12,497.14
38.4416,515.7,490.51
38.462,514.56,484.41
38.4824,514.45,479.33
38.507,513.96,476.46
38.5275,513.96,475.37
38.548,514.37,476.9
38.5685,516.3,480.72
38.589,516.24,486.57
38.6094,516.99,492.06
38.6339,516.59,496.85
38.6544,516.47,500.88
38.675,516.58,502.7
38.6954,516.46,502.76
38.716,517.37,501.61
38.7404,518.1,498.69
38.761,517.08,494.15
38.7815,516.06,488.92
38.8019,515.45,482.54
38.8224,515.76,476.43
38.8429,515.41,472.14
38.8674,515.33,470.11
38.8879,517.06,470.09
38.9085,518.65,471.27
38.9289,519.32,475.82
38.9493,518.46,481.05
38.9739,517.56,486.44
38.9944,518.05,493.76
39.0149,517.64,498.2
39.0354,517.51,500.56
39.0558,516.21,500.85
39.0763,516.17,500.48
39.1009,516.13,498.18
39.1214,514.91,494.35
39.1419,514.93,489.48
39.1624,514.14,484.18
39.1829,514.51,478.15
39.2033,515.21,473.32
39.2278,515.57,471.05
39.2484,515.25,470.64
39.2688,515.4,472.11
39.2894,516.72,475.69
39.3098,518.18,480.95
39.3344,516.54,486.56
39.355,516.63,492.25
39.3754,515.11,497.4
39.3959,514.49,500.72
39.4164,513.99,500.78
39.4368,513.79,500.22
39.4614,514.23,497.98
39.4819,513.79,493.78
39.5023,512.43,489.43
39.5228,511.94,484.54
39.5432,512.15,479.03
39.5678,512.52,474.43
39.5883,512.02,471.74
39.6088,512.62,470.79
39.6293,512.89,473.23
39.6498,514.11,476.19
39.6703,512.89,480.55
39.6948,513.11,485.84
39.7154,514.09,492.27
39.7358,515.27,497.82
39.7562,516.22,501.65
39.7767,516.57,502.92
39.8014,516.46,502.54
39.8217,517.37,500.23
39.8423,516.29,496.78
39.8627,515.84,492.43
39.8832,515.67,486.54
39.9037,514.93,480.43
39.9282,515.75,474.75
39.9489,515.4,472.4
39.9692,514.52,472.32
39.9897,519.81,475.05
40.0101,532.85,482.44
40.0347,548.28,493.15
40.0553,563.43,503.72
40.0758,578.94,512.98
40.0963,591.55,521.38
40.1167,601.64,528.71
40.1371,604.51,531.97
40.1617,603.01,531.57
40.1822,599.01,528.06
40.203,593.61,522.05
40.2232,592.49,516.84
40.2437,591.79,511.67
40.2682,590.03,505.54
40.2887,587.62,499.63
40.3092,584.3,495.5
40.3296,581.44,493.4
40.3502,576.15,492.72
40.3706,570.12,494.38
40.3953,565.1,496.3
40.4156,560.08,498.64
40.4362,555.46,502.51
40.4566,550.17,505.61
40.4772,545.74,507.29
40.4976,541.19,508.83
40.5222,537.95,507.46
40.5427,535.36,504.37
40.5631,532.09,498.5
40.5837,529.87,492
40.6041,526.1,484.6
40.6286,525.88,477.28
40.6491,524.5,470.22
40.6696,522.8,466.18
40.6901,521.44,465.94
40.7106,519.75,466.95
40.731,517.8,470.56
40.7555,514.04,475.25
40.7761,506.03,476.6
40.7966,490.83,474.68
40.8171,469.46,470.54
40.8375,445.57,464.04
40.862,420.06,456.63
40.8826,406.04,453.1
40.9031,401.04,451.88
40.9236,401.63,450.91
40.9441,407.5,450.32
40.9646,414.4,450.06
40.989,422.52,449.05
41.0095,429.82,448.24
41.0301,438.05,448.59
41.0506,446.24,450.67
41.0711,454.19,453.94
41.0916,460.36,459.95
41.116,465.88,467.36
41.1366,470.91,475.29
41.157,476.13,482.63
41.1775,480.1,489.3
41.1979,483.88,493.64
41.2225,486.1,496.71
41.243,489.68,497.57
41.2636,492.55,497.46
41.284,495.24,494.97
41.3045,497.39,490.77
41.3249,499.91,485.22
41.3495,502.13,479.37
41.37,505.3,473.5
41.3904,507.64,469.4
41.4111,510.31,468.32
41.4314,511.05,468.46
41.4559,512.24,471.16
41.4765,512.79,476.13
41.497,513.83,482.91
41.5174,513.87,488.92
41.5379,513.49,494.54
41.5584,513.6,498.83
41.5829,513.88,501.47
41.6034,515.3,502.37
41.6239,514.04,501.3
41.6444,514.63,497.84
41.6649,514.51,493.27
41.6894,515.4,488.02
41.7099,516.72,482.61
41.7304,515.78,477.09
41.7509,516.02,472.67
41.7713,515.82,470.74
41.7922,516.26,471.59
41.8165,516.6,472.87
41.837,516.08,476.9
41.8575,516.27,482.52
41.8779,516.01,488.21
41.8984,516.21,494.17
41.923,515.17,499.34
41.9435,514.13,501.47
41.964,513.91,502.58
41.9845,512.33,502.26
42.0049,513.66,500.41
42.0255,513.93,498.53
42.0498,513.34,499.62
42.0704,514.27,501.1
42.0908,514.82,502.48
42.1114,514.26,501.38
42.132,513,497.51
42.1523,513,494.6
42.1768,511.8,493.08
42.1975,512.04,492.27
42.218,512.63,492.01
42.2384,511.91,495.01
42.2588,510.73,496.21
42.2833,510.98,498.57
42.3039,510.98,499.85
42.3244,511.39,503.48
42.3448,512.91,506.19
42.3655,513.73,504.15
42.3859,515.18,500.12
42.4103,515.15,494.9
42.4308,515.72,487.12
42.4514,517.17,480.89
42.4719,517.54,475.31
42.4922,517.83,471.25
42.5167,517.46,469.2
42.5375,517.37,470.16
42.5579,516.3,472.53
42.5783,515.04,477.62
42.5988,514.43,482.3
42.6192,513.94,486.84
42.6438,514.36,491.47
42.6646,514.08,491.58
42.6849,514.07,488.66
42.7053,513.65,486.53
42.7259,513.12,483.42
42.7502,513.7,479.94
42.7709,514.16,477.75
42.7914,514.53,475.2
42.8117,514.02,472.76
42.8322,514.82,471.61
42.8527,515.25,470.89
42.8773,516,471.51
42.8977,516.4,473.01
42.9183,517.12,476.01
42.9388,516.3,480.2
42.9592,515.04,484.56
42.9837,514.03,489.65
43.0043,513.62,494.72
43.0247,513.1,497.78
43.0453,512.68,498.22
43.0657,512.74,498.18
43.0861,513.39,495.94
43.1108,513.92,493.55
43.1311,515.73,492.84
43.1517,517.19,489.87
43.1722,518.55,485.5
43.1926,520.04,481.4
43.2133,519.43,478.12
43.2378,519.55,475.9
43.2583,517.44,475.52
43.2787,518.15,480.01
43.2993,516.72,484.41
43.3197,517.18,488.53
43.3442,516.74,493.62
43.3647,515.19,498.3
43.3852,514.95,500.84
43.4056,514.76,501.27
43.4261,513.81,500.22
43.4466,513.45,497.17
43.4711,512.76,491.94
43.4917,513.21,486.55
43.5122,513.77,481.04
43.5326,514.01,475.43
43.5532,513.81,470.55
43.5777,513.85,468.84
43.5981,514.28,467.87
43.6187,514.22,469.5
43.6391,514.58,473.6
43.6595,515.06,478.28
43.6802,514.85,484.42
43.7046,516.08,490.74
43.7251,515.06,495.39
43.7457,514.85,499.91
43.7661,516.08,501.53
43.7865,516.66,502.22
43.8111,516.93,499.98
43.8315,516.95,495.78
43.8522,516.56,490.23
43.8725,516.05,485.58
43.8931,516.24,479.67
43.9135,515.59,474.53
43.938,515.07,471.23
43.9586,514.86,469.98
43.9791,519.69,471.98
43.9996,535.35,482.99
44.0202,556.48,500.39
44.0445,578.38,518.51
44.0651,596.31,534.81
44.0856,608.85,546.65
44.106,616.88,555.52
44.1266,619.3,560.21
44.1471,619.44,560.97
44.1715,615.55,557.38
44.1921,609.84,551.5
44.2127,602.67,541.4
44.2331,594.74,530.52
44.2536,587.39,519.22
44.2781,580.91,509.57
44.2985,572.33,500.66
44.3191,566.86,493.33
44.3395,560.89,489.26
44.36,555.51,487.21
44.3804,551.01,489.97
44.4049,546.21,493.17
44.4254,542.57,495.54
44.446,538.65,497.63
44.4666,535.52,499.31
44.487,534.02,499.04
44.5074,532.01,499.04
44.5321,528.01,496.63
44.5526,526.21,492.3
44.5729,526.57,485.84
44.5934,526.05,478.67
44.6139,525.24,471.14
44.6384,523.79,463.91
44.6589,522.44,459.53
44.6795,521.75,457.22
44.7,521.4,456.38
44.7205,521.92,456.7
44.741,521.74,460.56
44.7655,519.99,465.25
44.786,519.19,471.8
44.8064,519.15,478.04
44.827,516.72,482.83
44.8475,516.98,486.87
44.872,517.58,488.29
44.8925,519.87,489.23
44.913,515.29,485.19
44.9333,505.23,478.55
44.954,484.59,467.64
44.9743,458.67,454.71
44.9989,430.54,441.57
45.0194,408.23,432.66
45.04,398.58,429.92
45.0604,396.87,432.34
45.081,399.69,437.07
45.1056,405.95,445.66
45.1259,413.36,454.33
45.1464,422.69,463.26
45.1669,431.35,472.61
45.1873,440.08,479.29
45.2079,449.67,484.43
45.2324,457.33,487.54
45.2529,462.87,488.23
45.2733,470.09,486.59
45.2938,477.67,485.07
45.3144,484.14,482.26
45.3349,486.91,477.81
45.3594,490.13,472.84
45.3799,493.7,469.28
45.4005,498.56,468.82
45.4209,501.85,467.46
45.4414,501.88,469.76
45.4658,501.5,475.61
45.4864,502.4,483.29
45.5068,504.12,489.43
45.5272,506.3,494.75
45.5478,507.64,500.4
45.5683,506.31,502.52
45.5928,504.85,502.41
45.6133,503.88,500.53
45.6338,504.9,497.22
45.6544,506.72,492.58
45.6748,505.38,488.06
45.6994,503.1,483.25
45.7199,504.68,477.8
45.7404,505.95,473.84
45.7609,505.96,471.27
45.7812,505.97,471.02
45.8017,506.77,472.61
45.8262,508.82,476.89
45.8468,510.05,481.31
45.8672,511.64,486.45
45.8877,510.91,491.36
45.9083,511.53,496.89
45.9327,511.83,500.31
45.9533,506.46,498.25
45.9738,498.97,494.4
45.9943,493.37,489.32
46.0149,491.1,485.06
46.0352,490.68,479.84
46.0597,490.74,474.08
46.0802,492.6,469.66
46.1008,495.28,465.53
46.1213,496.42,463.02
46.1416,497.74,462.42
46.1662,498.99,464.33
46.1868,500.39,469.07
46.2071,502.71,474.45
46.2277,503.57,480.36
46.2482,504.26,487.29
46.2688,504.61,492.63
46.2931,503.68,494.91
46.3136,503.75,495.52
46.3342,505,494.22
46.3547,505.6,492.58
46.3753,514.08,491.46
46.3957,521.66,490.17
46.4203,527.93,486.53
46.4406,530.14,482.83
46.4613,531.72,478.86
46.4817,531.77,476.69
46.5021,531.42,476.55
46.5266,530.73,477.84
46.5472,531.19,481.07
46.5676,529.35,486.06
46.5881,528.28,491.85
46.6087,525.22,497.68
46.6291,524.58,502.94
46.6536,520.66,503.95
46.6743,518.53,504.56
46.6945,515.82,502.85
46.7152,513.06,500.48
46.7355,511.65,496.18
46.76,510.12,490.75
46.7805,508.29,486.4
46.8011,498.04,482.32
46.8217,486.03,477.85
46.842,476.42,473.68
46.8628,472.74,472.95
46.8871,472.19,473.76
46.9075,473.15,476.61
46.9281,474.92,481.48
46.9485,478.14,486.39
46.9691,480.91,492.31
46.9935,481.93,498.05
47.0141,486.14,502.04
47.0346,483.51,503.03
47.055,474.81,504.62
47.0755,464.05,504.5
47.0961,458.84,501.4
47.1204,456.47,496.32
47.141,456.58,490.06
47.1615,457.46,483.04
47.182,461.77,476.64
47.2025,468.02,471.51
47.2229,472.61,469.01
47.2476,475.49,469.81
47.268,471.59,473.84
47.2885,467.47,481.08
47.3089,462.78,489.26
47.3294,461.62,495.41
47.3539,460.5,501.13
47.3745,461.6,502.9
47.3949,462.08,503.32
47.4155,466.26,500.86
47.436,471.01,496.69
47.4564,475.81,491.75
47.4809,480.45,484.8
47.5015,484.36,477.64
47.522,488.09,471.91
47.5424,491.27,466.93
47.563,494.01,464.94
47.5875,495.41,466.95
47.608,507.93,471.56
47.6284,531.14,482.45
47.649,562.92,492.76
47.6694,591.73,497.61
47.6899,617.39,500.09
47.7143,630.11,502.07
47.735,633.49,502.66
47.7554,632.59,502.52
47.7758,625.87,500.82
47.7964,619.3,497.46
47.8208,610.44,492.96
47.8414,602.75,489.17
47.8619,593.6,484.14
47.8824,584.88,481.51
47.9029,578.3,477.41
47.9234,570.44,474.53
47.9478,563.55,473.82
47.9683,557.84,473.86
47.9888,550.47,475.49
48.0094,544.18,478.99
48.0298,539.14,484.19
48.0543,534.12,490.35
48.0749,535.29,496.88
48.0954,536.03,501.51
48.1158,536.03,503.8
48.1363,534.62,504.24
48.1568,533.1,502.59
48.1814,531.08,500.08
48.2018,529.26,494.26
48.2223,528.61,488.61
48.2428,527.69,482.49
48.2635,527.15,476.39
48.2839,524.72,473.31
48.3084,524.38,472.05
48.3288,524.3,471.44
48.3493,524.04,474.15
48.3697,523.83,477.72
48.3904,521.47,483.78
48.4148,521.77,490.82
48.4355,519.62,496.26
48.4558,519.29,500.01
48.4764,518.84,502.8
48.4969,516.47,502.64
48.5172,515.57,501.72
48.5419,515.86,497.57
48.5623,516.49,493.66
48.5829,510.79,485.93
48.6033,504.83,477.74
48.6238,502.67,470.59
48.6484,501.53,465.07
48.6688,500.63,463.66
48.6893,500.5,463.53
48.7099,501.2,467.22
48.7303,502.16,472.18
48.7508,502.93,477.74
48.7753,503.74,484.19
48.7958,503.39,490.55
48.8162,504.72,496.24
48.8367,506.57,499.8
48.8572,513.46,502.64
48.8816,515.77,502.31
48.9022,519.61,501.25
48.9227,521.09,497.2
48.9433,522.27,492.96
48.9636,522.22,487.37
48.9842,521.97,482.49
49.0088,522.18,478.19
49.0292,521.74,475.36
49.0496,520.59,474.88
49.0702,520.88,477.31
49.0907,522.5,480.45
49.1113,523,486.16
49.1359,523.2,491.53
49.1561,522.76,496.82
49.1766,521.01,502.66
49.1971,521.41,504.73
49.2176,520.93,505.38
49.2421,519.74,504.9
49.2627,520.19,504.12
49.2831,520.35,504.3
49.3037,522.88,517.24
49.3242,525.51,540.39
49.3447,535.41,573.11
49.3691,544.72,605.09
49.3896,553.38,633.27
49.4102,561.1,653.22
49.4307,573.08,663.97
49.4511,577.47,661.38
49.4756,576.37,649.3
49.496,565.3,646.04
49.5168,553.04,626.03
49.5372,546.03,576.63
49.5575,534.42,531.3
49.578,521.54,475.44
49.6025,524.43,437.75
49.6231,519.75,406.4
49.6436,489.2,389.72
49.6642,497.36,370.58
49.6846,502.09,359.06
49.7091,512.27,356.65
49.7296,506.41,379.92
49.7502,510.13,373.74
49.7705,559.11,375.19
49.7911,556.48,388.35
49.8115,511.79,395.68
49.8361,520.63,388.54
49.8568,504.7,392.04
49.877,507.16,405.43
49.8975,516.93,426.14
49.918,507.34,437.31
49.9426,496.08,446.05
49.9631,494.66,457.24
49.9836,491.33,462.19
50.0042,493.06,467.15
50.0245,494.05,470.92
50.045,494.44,472.54
50.0695,495.15,471.83
50.0902,496.12,471.06
50.1107,497.7,470.65
50.1311,498.76,471.72
50.1515,499.81,474.98
50.1719,502.05,478.78
50.1965,502.44,483.63
50.217,504.15,488.5
50.2375,505.32,494.6
50.2581,505.66,499.88
50.2784,507.92,503.7
50.3029,507.14,502.96
50.3236,506.11,500.37
50.3441,505.89,497.9
50.3646,506.51,493.32
50.385,509.01,489.05
50.4056,509.81,483.44
50.43,509.25,478.75
50.4505,510.6,473
50.471,510.88,470.4
50.4914,514.3,469.12
50.512,517.04,469.9
50.5364,517.83,473.32
50.5569,519.07,478.25
50.5774,518.85,484
50.5978,519.68,488.6
50.6184,518.35,493.88
50.6389,518.48,497.11
50.6635,518.58,499.08
50.684,518.47,498.87
50.7044,518.17,496.89
50.7248,517.94,493.92
50.7454,516.75,489.73
50.7698,514.4,484.79
50.7903,515.52,476.23
50.811,516.62,469.58
50.8314,516.89,465.27
50.8519,516.31,463.81
50.8724,515.85,464.45
50.897,515.48,468.16
50.9174,515.39,473.13
50.938,515.11,479.1
50.9583,514.29,486.68
50.9789,515.03,492.75
50.9993,514.42,498
51.0238,515.74,500.2
51.0444,516.39,499.36
51.0648,518.11,498.09
51.0854,517.89,494.47
51.1058,517.71,490.18
51.1304,517.77,484.74
51.1509,518.42,479.79
51.1714,519.13,474.03
51.1919,518.11,471.43
51.2124,518.28,469.74
51.2329,518.23,470.19
51.2574,518.38,474.55
51.2778,516.91,483.84
51.2985,515.12,492.27
51.3189,514.9,500.22
51.3394,513.72,506.78
51.3637,512.98,511.02
51.3843,511.78,512.42
51.4049,510.82,511.73
51.4253,510.46,510.19
51.4461,510.97,506.75
51.4662,510.77,501.4
51.4908,510.42,496.12
51.5113,510.34,489.7
51.5319,510.87,483.36
51.5524,511.49,479.29
51.5728,512.2,477.03
51.5974,511.16,476.42
51.6177,511.13,478.94
51.6383,511.1,483.15
51.6588,510.88,488.52
51.6794,513.5,494.42
51.6998,515.8,499.73
51.7243,518.04,504.59
51.7448,519.03,506.67
51.7654,519.43,506.34
51.7857,518.34,504.67
51.8062,519.07,500.93
51.8306,518.46,495.55
51.8512,517.77,490.04
51.8719,516.81,484.43
51.8924,515.65,478.94
51.9127,515.32,474.56
51.9332,516.26,472.84
51.9576,515.81,472.48
51.9783,516.44,475.98
51.9988,516.76,479.38
52.0192,517,484.71
52.0398,516.4,490.17
52.0602,515.72,494.73
52.0847,514.98,499.19
52.1053,515.78,501.55
52.1258,514.63,502.44
52.1463,514.5,501.75
52.1667,514.4,498.4
52.1912,515.32,493.72
52.2117,515.86,489.18
52.2323,516.09,483.74
52.2527,515.67,478.19
52.2731,515.73,473.35
52.2935,515.79,472.48
52.3183,516.83,471.79
52.3387,517.46,473.63
52.3592,517.37,477.3
52.3797,517.3,482.64
52.4002,518.04,487.51
52.4246,518.03,493.41
52.4453,516.42,497.93
52.4656,515.34,499.74
52.4861,515.07,501.39
52.5067,514.66,501.32
52.5271,513.33,498.05
52.5517,513.26,492.84
52.5723,514.61,487.47
52.5927,514.29,482.18
52.6132,515.03,476.74
52.6335,515.42,471.79
52.6579,516.14,469.24
52.6788,516.31,469.59
52.6992,515.25,471.67
52.7196,515.2,475.54
52.7401,515.16,481.43
52.7606,515.33,486.94
52.7852,515.26,492.75
52.8056,514.21,497.6
52.8262,514.77,500.48
52.8466,515.01,501.59
52.8671,516.01,501.67
52.8916,516.81,499.54
52.912,517.25,495.83
52.9326,516.2,490.66
52.9529,516.76,485.33
52.9735,516.61,480.46
52.9941,516.89,476.17
53.0185,517.11,474.14
53.039,516.69,473.31
53.0596,516.55,474.65
53.0801,515.44,477.92
53.1006,515.15,482.73
53.1251,513.92,488.39
53.1456,514.14,494.31
53.1661,511.31,499.25
53.1866,512.85,502
53.207,513.68,503.6
53.2274,513.54,504.08
53.2521,515.23,501.66
53.2724,515.99,496.53
53.293,515.19,491.42
53.3135,515.15,485.34
53.334,515.52,479.47
53.3545,515.62,473.78
53.379,516.29,470.82
53.3996,517.04,470.06
53.42,516.63,472.85
53.4406,515.5,476.68
53.4608,513.2,481.34
53.4854,514.16,485.67
53.5058,513.93,491.14
53.5265,512.14,496.51
53.5471,512.31,500.01
53.5677,512.65,501.81
53.588,513.32,501.65
53.6124,514.06,499.12
53.6331,513.65,495.29
53.6535,514.12,490.03
53.6739,514.49,485.03
53.6945,514.19,479.22
53.719,513.56,474.38
53.7396,512.84,471.9
53.7598,510.88,470.72
53.7804,511.1,471.98
53.801,511.88,476.18
53.8214,513.7,481.35
53.8458,514.16,486.88
53.8664,514.93,493.5
53.887,514.74,498.6
53.9074,515.2,502.08
53.928,514.76,502.86
53.9524,515.41,502.09
53.973,513.52,500.27
53.9934,513.82,498.02
54.0139,513.06,492.82
54.0345,513.44,488.25
54.0548,513.16,483
54.0794,513.52,478.2
54.0999,513.22,475.36
54.1204,513.38,474.29
54.1409,513.9,475.03
54.1613,515.12,478.02
54.1818,516.5,482.42
54.2065,517.4,488.74
54.227,516.72,494.59
54.2475,517.17,499.67
54.2678,517.54,502.94
54.2882,517.83,504.75
54.3129,516.47,504.6
54.3334,515.77,501.48
54.3539,517.42,499.18
54.3742,515.53,493.95
54.3947,515.23,486.96
54.4153,516.98,482.77
54.4397,512.39,475.81
54.4603,515.71,471.85
54.4807,515.17,472.28
54.5013,511.93,471.82
54.5217,517.95,476.66
54.5462,522.96,480.73
54.5668,525.37,487.58
54.5873,523.69,493.67
54.6077,525.75,497.53
54.6283,522.2,501.23
54.6487,521.96,502.98
54.6734,520.77,502.78
54.6937,521.62,501.03
54.7143,519.29,497.82
54.7348,517.43,493.06
54.7553,516.15,487.25
54.7796,514.32,481.2
54.8002,514.45,475.76
54.8209,513.76,473.01
54.8413,516.01,471.6
54.8618,517.01,473.28
54.8823,518.61,476.23
54.9068,517.69,480.98
54.9271,515.95,486.59
54.9477,515.36,492.07
54.9683,515.09,496.85
54.9887,514.47,500.08
55.0133,512.58,501.87
55.0337,512.06,501.69
55.0544,511.85,499.95
55.0747,510.08,496.36
55.0952,509.86,492.09
55.1157,510.09,487.07
55.1402,510.67,481.46
55.1607,511.34,475.37
55.1812,512.27,471.09
55.2018,511.42,468.67
55.2221,512.53,468.34
55.2427,512.03,471.07
55.2673,512.82,475.66
55.2877,512.66,482.33
55.3081,511.53,488.66
55.3287,513.22,494.13
55.349,510.78,497.9
55.3736,509.42,499.52
55.3941,509.34,501.42
55.4148,510.07,499.93
55.4351,510.46,497.35
55.4558,511.16,492.68
55.4762,511.73,488.34
55.5008,511.79,482.27
55.5211,513.83,477.82
55.5416,513.66,473.26
55.5622,512.93,472
55.5826,513.74,472.2
55.607,514.6,474.36
55.6276,516.88,480.09
55.6481,516.9,486.27
55.6685,517.12,490.02
55.689,516.3,492.61
55.7096,515.84,495.09
55.7342,515.27,496.87
55.7547,514.82,497.5
55.7751,513.05,495.2
55.7956,513.44,492.36
55.8163,513.55,488.69
55.8406,514.44,484.15
55.8612,514.55,478.52
55.8816,514.24,472.02
55.902,514.99,467.81
55.9226,514.8,466.05
55.943,514.04,466.24
55.9676,514.23,469.19
55.988,513.98,473.75
56.0086,514.19,479.2
56.029,514.95,485.56
56.0494,515.16,491.25
56.0739,516.33,495.6
56.0944,515.86,497.68
56.115,515.89,498.74
56.1354,516.71,497.2
56.1559,515.17,494.56
56.1763,515.34,490.25
56.201,515.27,485.8
56.2215,515.41,480.44
56.2419,516.53,477.35
56.2624,516.63,478.28
56.2829,518.3,479.02
56.3034,518.04,480.02
56.3279,516.83,482.62
56.3485,516.27,486.69
56.3689,517.61,492.35
56.3894,516.69,497.08
56.4099,515.15,501.87
56.4343,515.12,506.29
56.4549,516.1,508.63
56.4753,515.68,508.11
56.4959,516.34,506.29
56.5163,515.87,503.03
56.5369,516.7,498.22
56.5614,516.16,493.18
56.5819,516.13,486.54
56.6025,514.9,480.03
56.6229,514.92,474.63
56.6434,515.94,472.1
56.668,514.35,472.88
56.6883,514.88,474.11
56.709,515.1,478.28
56.7295,514.28,483.63
56.7499,514.63,488.5
56.7705,514.3,494
56.7948,514.44,499.8
56.8153,513.15,502.24
56.836,513.12,502.39
56.8563,513.3,501.11
56.8768,514.04,498.49
56.9015,515.03,494.39
56.9219,516.42,488.91
56.9424,517.74,482.53
56.963,517.19,477.23
56.9834,517.35,473.58
57.0039,518.88,470.86
57.0283,518.51,470.89
57.0489,517.8,472.71
57.0695,518.04,476.57
57.09,518.24,482.26
57.1102,516.99,487.81
57.1348,516.19,493.04
57.1554,516.95,498.24
57.1758,516.96,500.79
57.1964,517.17,502.23
57.2168,516.94,502.18
57.2373,516.35,499.55
57.262,516.48,495.84
57.2824,516.78,490.87
57.3029,516.83,485.3
57.3234,516.26,479.84
57.3438,515.81,475.47
57.3643,516.45,473.18
57.3889,517.56,471.74
57.4094,517.65,472.59
57.4297,517.32,476.87
57.4503,517.65,482.3
57.4707,518.32,488.24
57.4952,518.06,493.99
57.5158,518.45,498.59
57.5362,516.56,500.87
57.5567,515.05,502.1
57.5773,516.24,500.88
57.5977,515.59,498.7
57.6223,515.07,494.96
57.6427,513.06,490.57
57.6632,513.05,486.06
57.6838,513.64,481.65
57.7042,513.91,476.32
57.7286,514.73,473.25
57.7491,514.18,472.8
57.7696,513.15,473.64
57.7902,512.92,477.51
57.8106,512.53,482.61
57.8311,514.03,488.49
57.8556,514.82,494.39
57.8762,513.46,499.31
57.8967,514.57,503.65
57.9171,514.25,504.92
57.9377,514.2,504.14
57.9622,513.56,501.11
57.9828,514.45,496.69
58.0032,514.16,491.55
58.0236,513.73,485.84
58.0442,513.98,479.87
58.0646,513.99,474.7
58.0893,514.19,471.76
58.1097,513.75,470.61
58.1302,513.8,471.49
58.1507,513.84,474.19
58.1712,513.87,479.95
58.1957,513.3,485.96
58.2161,513.04,491.37
58.2367,514.63,495.69
58.2573,514.9,498.36
58.2778,514.52,500.28
58.298,514.02,500.63
58.3226,514.22,498.7
58.3433,515.97,495.16
58.3637,514.38,489.73
58.3842,512.7,484.58
58.4046,514.56,479.47
58.425,513.65,475.17
58.4496,514.52,471.54
58.4702,515.42,470.63
58.4907,517.13,471.3
58.5112,517.51,473.64
58.5317,517.4,479.12
58.5561,516.12,484.89
58.5767,518.9,491.11
58.5973,518.72,495.69
58.6175,517.98,498.55
58.6381,517.58,499.84
58.6586,517.86,499.67
58.683,515.89,497.94
58.7035,514.71,494.35
58.724,516.17,489.08
58.7447,517.74,484.46
58.7651,519.39,479.17
58.7895,520.31,474.54
58.81,519.85,471.03
58.8305,517.88,469.22
58.851,516.1,470.58
58.8716,515.68,475.06
58.8919,516.35,480.25
58.9166,517.48,486.4
58.9371,515.98,491.32
58.9575,512.99,496.86
58.9779,509.19,500.09
58.9984,506.55,502.27
59.0229,507.84,503.21
59.0434,509.47,501.17
59.0641,509.18,497.34
59.0846,509.54,491.87
59.1051,511.83,486.5
59.1255,513.67,480.4
59.1501,514.53,475.92
59.1706,512.63,472.53
59.1911,513.9,471.83
59.2114,515.32,470.66
59.2319,517.26,472.73
59.2563,518.81,476.38
59.277,519.04,480.51
59.2976,518.44,485.81
59.318,515.75,491.64
59.3385,513.8,495.92
59.3589,513.24,498.73
59.3834,513.39,499.39
59.4041,512.11,497.71
59.4246,510.09,493.57
59.4449,509.27,489.25
59.4655,509.62,484.8
59.4859,510.29,479.64
59.5103,510.64,476.11
59.5309,511.91,476.09
59.5518,509.13,478.07
59.572,500.9,480.86
59.5924,491.52,482.89
59.6168,485.62,484.11
59.6374,482.49,487.69
59.6579,480.79,491.35
59.6785,482.44,495.28
59.699,485.35,497.42
59.7195,486.28,498.14
59.7438,489.62,497.91
59.7644,491.1,495.73
59.7848,492.28,491.78
59.8053,495.22,487.23
59.8259,495.98,482.18
59.8504,495.58,477.55
59.8708,495.67,472.84
59.8914,495.33,469.47
59.9118,497.27,468.98
59.9323,498.61,469.78
59.9529,498.49,472.42
59.9774,500.19,476.14
59.9979,503.15,482.11
60.0184,505.32,487.69
60.039,504.86,494.95
60.0594,504.69,499.56
60.0838,504.15,502.65
60.1045,504.12,504.32
60.1248,502.7,503.46
60.1455,501.96,499.96
60.1658,504.97,493.97
60.1863,506.37,488.38
60.2108,503.3,482.9
60.2315,502.64,476.32
60.2517,503.11,474.26
60.2724,511.89,476.21
60.2927,509.91,475.16
60.3172,513.53,478.13
60.3379,509.22,481.51
60.3583,511.38,486.6
60.3788,515.3,494.68
60.3993,532.04,502.35
60.4197,548.83,503.28
60.4442,558.67,507.02
60.4649,542.93,505.42
60.4853,570.95,507.33
60.5059,555.56,498.47
60.5262,548.05,491.97
60.5467,506.24,467.38
60.5712,506.79,449.7
60.5918,520.63,456.96
60.6123,542.51,452.17
60.6328,551,452.74
60.6533,548.8,457.99
60.6778,560.04,460.59
60.6982,562.23,469.07
60.7186,555.19,478.46
60.7393,556.35,495.77
60.7597,542.88,502.41
60.7802,538.1,512.53
60.8046,531.28,516.82
60.8252,524.03,517.26
60.8458,520.02,516.41
60.8662,514.62,511.33
60.8866,510.29,506.46
60.9111,509.23,501.37
60.9316,509.39,494.7
60.9521,508.91,489.36
60.9727,512.93,485.08
60.9933,512.74,481.87
61.0137,511.39,478.49
61.038,511.52,480.8
61.0586,512.41,485.84
61.0791,512.33,489.87
61.0996,514.46,495.5
61.1202,513.37,499.2
61.1446,511.3,504.36
61.1651,512.04,506.29
61.1857,514.03,503.83
61.2062,511.02,500.06
61.2267,510.62,496.25
61.2472,512.7,494.4
61.2716,514.56,488.92
61.2922,513.85,479.14
61.3128,513.28,472.31
61.3332,517.62,474.05
61.3536,519.1,471.24
61.3741,519.08,467.99
61.3986,521.86,474.79
61.419,511.49,480.23
61.4395,499.79,485.59
61.46,499.43,495.07
61.4806,498.15,501.86
61.5051,498.52,507.08
61.5257,497.81,509.67
61.5462,498.05,509.53
61.5666,499.84,508.43
61.5871,502.47,504.74
61.6074,502.78,499.99
61.6321,507.22,495.19
61.6527,509.38,489.76
61.6732,511.7,485
61.6936,512.56,479
61.714,512.65,474.8
61.7384,514.72,473.84
61.759,514.98,476.07
61.7796,513.38,480.46
61.8001,519.3,481.37
61.8205,526.44,485.49
61.8409,529.95,492
61.8656,532.56,498
61.8861,532.65,501.8
61.9066,533.92,500.44
61.927,529.74,498.55
61.9476,527.59,495.44
61.972,526.87,494.35
61.9925,522.9,488.88
62.013,526.92,486.31
62.0335,529.53,485.44
62.0539,528.03,475.56
62.0745,528.42,476.04
62.099,525.34,478.04
62.1195,525.07,470.63
62.14,523.66,475.7
62.1604,524.32,475.96
62.181,526.66,474.77
62.2055,524.93,472.62
62.2259,523.54,470.89
62.2464,520.43,462.71
62.2669,518.35,455.17
62.2875,516.08,450.14
62.3078,517.06,441.91
62.3324,517.45,430.73
62.353,513.36,425.58
62.3734,515.29,414.67
62.3941,513.63,419.73
62.4144,513.5,424.59
62.4349,514.4,429.07
62.4594,514.92,436.66
62.48,515.94,460.92
62.5006,514.95,466.14
62.521,515.96,478.91
62.5415,514.77,498.73
62.566,514.01,522.58
62.5863,510.81,549.47
62.607,507.45,568.37
62.6274,506.36,575.5
62.6478,505.89,572.4
62.6683,506.71,562.92
62.6929,507.57,549.34
62.7136,507.85,535.67
62.7338,509.08,523.33
62.7544,510.67,511.27
62.7749,511.93,501.01
62.7994,511.35,494.01
62.8199,512.48,490.21
62.8405,514.18,489.37
62.8611,514.75,491.49
62.8815,514,495.8
62.9018,514.6,500.44
62.9263,514.48,505.35
62.9468,514.38,509.88
62.9673,514.31,510.9
62.9879,514.24,512.12
63.0084,515,512.5
63.0327,516.4,508.6
63.0534,517.72,504.88
63.0738,516.37,499.3
63.0944,515.7,493.84
63.1147,514.76,487.87
63.1352,515.21,483.3
63.1597,515.97,479.64
63.1805,515.37,478.91
63.2009,515.5,479.73
63.2213,514.4,482.78
63.2419,514.92,488.03
63.2662,514.54,494.42
63.2867,515.23,500.14
63.3073,514.18,504.71
63.3278,513.75,507.57
63.3483,512.6,507.85
63.369,506.88,504.68
63.3932,503.3,501.35
63.4137,501.64,496.48
63.4343,501.11,491.18
63.4546,500.69,486.15
63.4751,500.95,480.32
63.4956,501.36,475.25
63.5202,501.89,473.8
63.5407,504.11,474.44
63.5612,507.49,476.15
63.5816,508.19,479.92
63.6023,509.75,484.54
63.6267,511.4,490.43
63.6472,511.92,494.94
63.6678,512.74,500.56
63.6882,515.79,504.44
63.7088,514.63,501.96
63.7293,515.91,497.36
63.7538,515.12,492.69
63.7741,514.5,487.95
63.7946,515.8,483.36
63.8151,515.24,477.69
63.8356,515.79,472.15
63.8601,516.43,468.72
63.8806,515.75,467.98
63.9011,520.2,469.38
63.9216,529.16,474.71
63.9421,532.73,480.76
63.9625,534.78,487.21
63.9871,534.82,493.97
64.0076,535.26,499.98
64.0281,534.21,504.78
64.0486,531.97,508.22
64.069,530.17,509.18
64.0935,528.54,508.54
64.1141,526.23,505.23
64.1348,525.18,500.19
64.1552,524.15,494.35
64.1756,522.72,488.88
64.196,520.97,482.7
64.2207,520.58,477.36
64.2412,519.46,474.09
64.2616,517.37,472.67
64.2821,518.3,473.94
64.3026,517.64,476.55
64.3271,518.11,483.04
64.3475,510.69,491.43
64.3682,495.55,498.75
64.3886,481.64,503.6
64.409,474.71,506.28
64.4295,470.97,507.02
64.454,470.18,505.42
64.4745,471.74,502.13
64.495,474.19,498.11
64.5155,477.75,492.89
64.536,481,486.91
64.5564,486,481.13
64.581,487.6,477.1
64.6015,491.48,474.88
64.622,492.99,473.91
64.6425,497.39,475.12
64.663,498.71,477.5
64.6874,501.57,483.6
64.7079,502.65,490.28
64.7285,504.32,495.22
64.749,506.06,500.38
64.7694,506.05,502.7
64.7899,506.24,503.96
64.8144,506.19,503.17
64.835,507.75,500.94
64.8554,511,496.55
64.8759,513.2,491.04
64.8964,513.56,485.03
64.9209,515.45,479.63
64.9414,516.16,474.5
64.962,517.73,471
64.9824,517.18,468.6
65.003,518.35,468.28
65.0234,518.08,470.62
65.0479,518.06,474.3
65.0684,518.25,480.44
65.0891,517.6,485.75
65.1095,518.28,491.2
65.13,518.02,494.96
65.1544,516.82,496.97
65.175,517.06,496.58
65.1956,516.04,494.66
65.2159,515.84,490.73
65.2365,514.47,486.18
65.2569,514.37,481.35
65.2815,514.7,476.28
65.3019,514.16,472.82
65.3223,514.93,470.46
65.343,516.14,468.97
65.3633,517.71,470.37
65.3839,519.37,474.9
65.4084,520.7,479.92
65.429,519.56,485.53
65.4495,519.25,490.83
65.4699,517.6,496.66
65.4904,517.08,500.33
65.5148,518.46,501.26
65.5354,518.57,501.01
65.5559,517.26,499.61
65.5764,516.2,496.49
65.5969,515.96,491.59
65.6174,515.57,487.47
65.6418,516.66,481.78
65.6625,515.33,477.02
65.6828,515.86,473.82
65.7033,516.69,472.45
65.7238,516.35,473.16
65.7484,514.08,476.53
65.769,521.46,479.62
65.7893,533.57,483.7
65.8099,544.46,488.56
65.8305,551.77,493.65
65.8508,551.81,497.52
65.8754,552.05,499.21
65.896,550.84,500.37
65.9165,548.47,498.9
65.9368,546.38,496.32
65.9574,544.1,492.05
65.9817,542.08,487.64
66.0024,537.07,482.51
66.0228,538.85,478.21
66.0434,537.28,476.37
66.0637,538.03,475.7
66.0842,536.22,476.36
66.1087,534.58,480.09
66.1293,532.26,484.67
66.1498,528.41,489.53
66.1703,527.13,495.03
66.1907,525.9,498.82
66.2151,524.52,502.46
66.2358,522.42,503.17
66.2563,521.13,504.13
66.2768,520.91,501.91
66.2974,519.93,498.13
66.3178,520.14,493.5
66.3422,519.11,488
66.3628,518.49,481.8
66.3833,518.59,476.04
66.4038,518.07,473.23
66.4242,517.26,471.99
66.4447,516.81,472.39
66.4692,519.25,475.71
66.4897,519.4,480.57
66.5101,519.92,485.45
66.5307,520.53,491.16
66.5511,519.23,496.93
66.5757,519.18,500.54
66.5962,518.35,501.84
66.6167,519.68,501.47
66.6372,518.34,499.38
66.6577,517.47,495.5
66.6781,516.58,490.6
66.7026,516.06,484.68
66.7231,516.25,477.94
66.7437,516.2,472.16
66.7642,515.76,469.12
66.7847,515.01,467.7
66.8092,516.21,468.56
66.8297,515.17,471.85
66.8501,515.53,476.48
66.8706,516.03,482.18
66.8912,515.42,489.15
66.9116,514.34,495.12
66.9363,512.87,499.29
66.9568,511.9,500.63
66.9772,511.92,501.11
66.9976,511.93,501.89
67.0181,510.95,500.91
67.0427,510.36,497.53
67.0631,511.49,493.62
67.0838,512.39,487.1
67.1041,515.11,481.88
67.1245,508.89,480.7
67.145,495.31,479.16
67.1695,483.65,477.33
67.19,476.52,477.86
67.2105,472.42,481.69
67.2311,472.93,486.35
67.2515,474.15,491.48
67.2761,476.92,495.79
67.2965,479.53,499.63
67.3171,481.03,501.9
67.3376,485.82,501.92
67.3581,490.06,499.74
67.3785,495.05,495.59
67.403,498.64,489.87
67.4235,500.91,484.5
67.444,504.13,479.6
67.4646,507.3,474.28
67.485,508.04,470.82
67.5055,507.63,468.66
67.53,507.91,469.53
67.5507,508.33,473.62
67.5711,508.26,478.9
67.5916,506.61,484.92
67.6119,507.49,490.13
67.6366,509.19,495.71
67.6572,509.15,499.37
67.6775,509.52,500.29
67.698,510.82,501.23
67.7185,511.45,500.19
67.7391,510.96,497.75
67.7636,511.37,494
67.784,512.7,489.2
67.8044,511.56,485.36
67.8249,513.85,483.09
67.8456,513.48,485.67
67.87,513.18,500.94
67.8904,511.75,526.75
