Program Time [s],data 0,data 1
6.50568,466.66,472.13
6.50569,510.19,479.5
6.5057,513.35,487.4
6.50571,514.28,496.52
6.50573,515.83,504.02
6.50574,514.66,509.21
6.50575,514.13,511.37
6.50576,511.9,511.7
6.50577,512.12,472.13
6.50577,466.66,479.5
6.50578,510.19,487.4
6.50643,513.35,496.52
6.50644,514.28,504.02
6.50645,515.83,509.21
6.50646,514.66,511.37
6.50647,514.13,511.7
6.50648,511.9,511.2
6.5065,512.12,510.36
8.02233,509.4,510.09
8.04283,512.92,508.07
8.06329,513.74,508.46
8.08376,514.19,507.57
8.1083,514.55,505.05
8.12881,512.04,504.24
8.14937,513.03,502.19
8.16978,513.63,500.15
8.19027,520.9,498.52
8.21075,526.32,494.02
8.23527,528.66,490.82
8.25576,528.33,488.25
8.27636,527.46,486
8.29678,525.17,485.2
8.31726,524.33,485.76
8.33771,520.47,488.61
8.36228,518.57,491.89
8.38276,517.46,496.31
8.40321,516.37,498.65
8.42376,516.49,501.52
8.44423,515,503.61
8.46868,515.4,502.89
8.48924,516.72,502.31
8.50972,513.97,499.45
8.53023,513.98,496.96
8.55075,512.38,493.57
8.57123,510.51,488.65
8.59568,508.61,483.12
8.61627,504.88,479.3
8.63669,503.11,479.44
8.6572,502.29,480.35
8.67776,501.63,485.28
8.7022,503.9,488.42
8.72268,503.92,491.74
8.74319,503.14,496.59
8.76367,503.11,501.87
8.78415,505.89,503.7
8.80463,505.11,505.36
8.82919,505.89,507.69
8.84973,505.51,507.15
8.87027,505.61,505.52
8.89067,505.49,502.22
8.91114,507.19,497.77
8.93562,508.15,492.62
8.95622,510.12,489.09
8.97675,510.5,488.68
8.99723,512.6,487.54
9.01765,511.08,486.83
9.03812,511.86,489.47
9.06264,510.09,494.57
9.08316,512.87,497.86
9.10366,514.5,502.09
9.12413,512.6,505.87
9.14465,509.88,509.7
9.16909,509.9,510.96
9.18976,512.52,507.37
9.21038,512.62,505.89
9.23067,505.29,500.71
9.25114,513.44,491.17
9.27161,514.55,487.34
9.29612,505.84,484.87
9.3167,500.07,479.5
9.3372,483.26,475.4
9.35759,500.21,474.92
9.37807,507.76,475.73
9.39865,504.81,479.59
9.42308,509.65,486.47
9.4437,510.32,493.58
9.46419,504.26,499.66
9.48461,504.2,505.53
9.50521,502.36,509.42
9.52955,499.89,512.74
9.55015,500.51,514.19
9.57057,500.21,514.75
9.59109,500.97,511.6
9.61152,497.97,506.68
9.63202,496.78,501.55
9.65654,494.22,498.44
9.67707,494.98,494.75
9.69754,494.78,508.2
9.71804,497.03,506.76
9.73851,502.62,507.41
9.76299,494.3,497.53
9.7837,521.44,503.62
9.8041,516.95,486.1
9.8246,533.16,487.28
9.84506,526.13,493.22
9.86552,536.5,499.38
9.88999,546.6,505.9
9.91057,545.08,523.52
9.93102,555.87,524.62
9.95149,590.69,519.09
9.97196,575.95,523.68
9.99656,575.56,519.54
10.017,570.45,517.03
10.0375,566.76,511.63
10.0581,568.21,504.5
10.0785,547.57,500.6
10.099,551.85,498.08
10.1236,539.88,503.86
10.144,539.11,504.29
10.1646,551.88,511.23
10.185,542.71,516.39
10.2054,528.97,517.71
10.2299,527.97,523.77
10.2505,519.38,525.21
10.271,532.7,523.57
10.2915,525.16,523.06
10.312,517.13,518.05
10.3325,512.1,513.44
10.3569,504.08,508.55
10.3775,501.07,506.64
10.3981,498.65,502.51
10.4185,497.52,492.01
10.4389,495.22,492.81
10.4594,492.17,493.05
10.4839,500.14,492.44
10.5046,498.31,492.55
10.525,495.85,493.44
10.5455,497.08,495.55
10.5659,502.26,500.64
10.5905,502.01,503.91
10.6109,501.41,506.93
10.6315,498.33,507.34
10.6519,503.26,507.48
10.6725,501.01,504.78
10.6928,501.81,499.62
10.7174,506.45,497.1
10.738,504.36,492.68
10.7585,502.89,489.34
10.7789,505.11,485.27
10.7993,510.29,485.22
10.8239,512.43,486.38
10.8446,514.94,492.3
10.865,514.55,495.44
10.8856,518.44,500.95
10.9058,516.16,502.56
10.9263,517.32,506.05
10.9508,521.46,507.84
10.9714,512.77,507.87
10.9919,503.81,505.5
11.0124,497.05,505.6
11.0329,492.24,503.88
11.0573,493.39,503.3
11.0778,491.51,501.04
11.0984,495.41,497.03
11.1189,498.13,494.43
11.1394,499.3,493.14
11.1598,500.04,489.71
11.1844,499.63,489.17
11.2048,499.71,489.74
11.2254,500.57,493.79
11.2458,501.05,499.43
11.2662,503.04,503.95
11.2867,505.23,506.76
11.3113,505.39,507.8
11.3318,502.91,507.04
11.3523,503.53,506.84
11.3728,503.62,505.07
11.3933,501.1,501.65
11.4178,502.48,500.32
11.4384,503.58,496.26
11.4589,507.47,490.21
11.4793,506.97,485.37
11.4999,508.38,482.69
11.5202,508.1,480.35
11.5448,507.08,482.48
11.5653,506.27,485.39
11.5857,509.01,488.91
11.6063,510.81,491.93
11.6267,510.05,496.94
11.6514,511.84,503.55
11.6718,510.87,505.64
11.6923,513.5,506.31
11.7129,514.8,507.65
11.7333,512.84,507.52
11.7537,512.67,504.82
11.7782,511.34,501.85
11.7989,513.07,497.68
11.8192,513.86,492.35
11.8397,512.88,486.28
11.8602,510.31,481.22
11.8846,504.85,479.58
11.9052,503.28,479.26
11.9257,506.82,480.21
11.9462,507.26,484.17
11.9668,507.01,489.53
11.9871,508.8,492.63
12.0118,511.24,499.5
12.0322,509.39,502.2
12.0528,509.32,504.76
12.0732,507.45,507.01
12.0937,509.36,505.21
12.1181,508.49,503.17
12.1387,508.99,500.93
12.1592,509.19,498.35
12.1798,510.15,495.08
12.2002,508.12,492.86
12.2207,514.7,490.29
12.2451,525.36,489.63
12.2656,530.69,490.11
12.2862,533.15,492.68
12.3066,534.52,496.75
12.3271,533.22,501.6
12.3476,533.77,504.88
12.3722,532.02,507.9
12.3927,531.21,509.92
12.4132,527.57,512.54
12.4336,524.06,513.03
12.4541,519.45,511.82
12.4785,517.76,509.06
12.4991,516.01,506.05
12.5196,513.4,502.44
12.5401,510.92,497.75
12.5606,507.34,494.4
12.5811,507.07,490.12
12.6056,507.86,487.1
12.6261,506.89,487.48
12.6466,508.71,491.58
12.667,505.17,495.07
12.6875,505.33,497.85
12.712,507.47,500.48
12.7325,506.97,504.39
12.753,505.18,507.31
12.7735,503.74,508.25
12.794,501.39,508.6
12.8146,499.72,508.28
12.839,498.97,504.22
12.8596,498.98,499.78
12.8801,499.78,495.42
12.9005,501.43,490.94
12.9211,502.34,486.75
12.9456,501.67,483.2
12.966,500.94,481.56
12.9865,501.75,481.25
13.007,502.8,481.4
13.0275,503.84,484.12
13.048,505.27,488.3
13.0726,506.82,493.44
13.093,508.25,497.95
13.1136,509.6,500.56
13.1342,511.68,500.25
13.1545,513.35,499.6
13.1752,514.88,499.08
13.1996,516.5,496.86
13.2202,516.2,493.89
13.2405,516.36,489.51
13.261,515.29,484.21
13.2815,514.23,476.77
13.306,512.38,473.41
13.3265,511.31,473.53
13.3469,510.25,475.03
13.3674,510.4,478.42
13.388,509.12,483.14
13.4085,505.29,487.71
13.4329,503.64,492.77
13.4535,504.51,496.61
13.4741,505.61,501.29
13.4946,505.09,505.03
13.515,503.07,506.43
13.5395,501.05,506.34
13.5601,500.04,504.27
13.5805,500.44,502.02
13.6009,499.75,497.81
13.6214,500,494.05
13.6418,499.2,490.84
13.6663,498.16,489.27
13.6869,498.93,489.02
13.7074,499.54,490.01
13.7279,501.63,494.01
13.7484,504.51,498.41
13.7729,510.41,504.13
13.7934,515.32,509.3
13.8139,518.06,514.44
13.8344,517.85,517.75
13.8549,517.08,519.4
13.8753,517.46,520.72
13.8998,517.97,519.98
13.9204,517.18,516.58
13.9411,515.54,512.27
13.9613,515.03,507.81
13.9818,517.63,503.05
14.0063,517.7,500.04
14.0269,516.96,497.03
14.0474,515.77,495.43
14.0678,514.41,493.94
14.0883,513.13,495.15
14.1088,512.91,498.92
14.1334,512.92,504.14
14.1539,511.14,507.71
14.1743,509.31,510.97
14.1948,509.05,513.37
14.2154,508.24,514.3
14.2358,507.79,513.24
14.2603,507.03,512.59
14.2808,507.23,510.67
14.3013,508.18,507.14
14.322,506.75,504.91
14.3422,506.8,501.33
14.3668,505.44,496.06
14.3874,503.75,491.25
14.4078,504.8,488.6
14.4284,506.04,488.88
14.4489,508.23,490.7
14.4692,508.59,494.76
14.4938,508.87,500.01
14.5143,508.09,504.61
14.5347,503.28,506.29
14.5553,494.42,507.63
14.5757,480.14,507.3
14.6002,467.71,505.84
14.6207,460.77,504.67
14.6414,459.21,502.94
14.6617,459.97,498.95
14.6822,461.18,495.36
14.7027,463.74,490.89
14.7273,465.99,486.91
14.7478,469.19,484.93
14.7683,471.96,484.74
14.7887,477.96,485.59
14.8093,481.97,488.88
14.8337,484.18,492.7
14.8542,488.34,496.76
14.8747,492.27,501.21
14.8952,496.62,504.97
14.9157,500.3,507.77
14.9362,500.84,509.42
14.9607,501.67,509.94
14.9812,504.74,509.15
15.0017,506.19,506.52
15.0222,507.15,501.61
15.0427,508.32,498.09
15.0632,506.46,492.27
15.0878,505.37,488.42
15.1081,506.89,486.54
15.1287,507.11,485.23
15.1491,507.09,486.18
15.1696,507.67,486.75
15.1942,508.14,490.4
15.2147,508.71,494.92
15.2351,507.17,498.53
15.2559,507.33,502.63
15.2761,508.67,506.5
15.2966,509.93,509
15.3212,506.75,509.8
15.3417,504.8,508.84
15.3622,503.44,505.87
15.3827,502.95,502.3
15.4031,502.76,498.84
15.4276,501.41,495.67
15.4483,501.73,490.94
15.4686,501.98,487.55
15.4891,503.99,486.24
15.5096,504.79,486.59
15.53,505.43,488.47
15.5546,505.74,491.58
15.5751,505.2,496.66
15.5956,506.16,502.73
15.6161,507.33,507.18
15.6365,506.66,511.15
15.661,514.93,513.12
15.6815,527.14,514.69
15.7021,533.71,513.96
15.7226,536.37,512.16
15.7431,537.1,509.33
15.7636,536.48,505.47
15.7881,534.78,500.17
15.8087,533.43,495.34
15.829,529.54,491.87
15.8496,526.03,489.9
15.87,524.83,490.52
15.8945,523.46,494.01
15.9152,524.17,498.81
15.9356,529.33,503.65
15.9562,539.27,508.32
15.9766,545.41,511.86
15.997,548.53,515.28
16.0215,548.23,516.83
16.042,545.58,516.26
16.0625,542.06,514.01
16.083,540.85,511.01
16.1034,537.68,504.81
16.1279,532.34,499.04
16.1487,531.28,494.24
16.169,528.82,488.39
16.1895,528.46,484.91
16.21,526.57,482.53
16.2305,522.45,483.02
16.255,521.56,484.02
16.2755,518.85,487.81
16.296,518.08,492.85
16.3165,517.46,497.88
16.3369,517.17,502.51
16.3575,514.54,506.2
16.382,513.43,507.56
16.4025,513.34,508.65
16.4229,513.27,508.12
16.4437,513.02,506.5
16.4641,511.62,504.2
16.4886,511.29,500.96
16.509,510.43,496.97
16.5294,510.15,492.97
16.55,508.52,489.58
16.5704,508.41,488.06
16.5909,508.93,488.65
16.6154,510.15,490.12
16.636,510.12,494.3
16.6565,509.89,499.64
16.6769,508.31,508.31
16.6974,508.05,521.45
16.7219,508.04,543.36
16.7424,509.03,573.09
16.763,507.63,608.87
16.7834,508.5,645.7
16.8039,510.6,675.56
16.8243,514.68,697.65
16.849,520.74,712.32
16.8696,530.2,718.65
16.89,540.56,718.92
16.9105,550.65,715.74
16.9308,558.32,710.79
16.9553,563.45,706.43
16.9758,567.96,703.15
16.9963,568.97,700.92
17.0168,565.18,701.13
17.0373,557.14,699.71
17.058,545.11,696.57
17.0823,531.89,690.25
17.1029,515.91,676
17.1234,500.53,652
17.1439,487.42,620.6
17.1643,477.74,582.28
17.1888,469.99,540.62
17.2094,466.19,497.9
17.2299,465.55,448.72
17.2503,467.44,390.38
17.2708,472.55,329.5
17.2913,478.44,275
17.3158,482.96,232.8
17.3365,485.56,213.24
17.3569,487.25,213.59
17.3775,489.4,227.27
17.3978,488.92,246.02
17.4183,490.34,268.62
17.4428,491.07,291.89
17.4634,493.26,315.71
17.4839,495.4,338.37
17.5044,497.12,357.1
17.5249,498.5,373.08
17.5493,500.2,385.66
17.5697,502.56,396.13
17.5902,505.65,404.5
17.6108,505.72,411.6
17.6313,506.17,419.68
17.6519,507.54,428.75
17.6763,509.63,440
17.6969,501.71,450
17.7173,484.16,459.2
17.7379,468.93,467.76
17.7582,460.95,475.41
17.7829,458.76,482.33
17.8032,459.2,488.46
17.8237,460.76,493.17
17.8443,465.81,495.53
17.8646,468.65,497.03
17.8852,473.52,497.82
17.9097,477.22,497.66
17.9303,482.17,496.93
17.9509,482.94,494.94
17.9713,485.15,491.95
17.9918,488.32,488.76
18.0122,490.86,487.21
18.0366,493.08,487.37
18.0573,496.67,488.89
18.0777,499.93,490.32
18.0982,502.15,492.05
18.1187,504.12,494.64
18.1431,499.49,499.31
18.1637,495.4,503.45
18.1842,495.52,504.96
18.2049,494.41,505.37
18.2251,493.93,503.89
18.2456,495.74,501.72
18.2701,496.8,498.97
18.2908,498.64,495.38
18.3112,500.51,490.3
18.3317,502.61,486.44
18.3522,503.09,482.55
18.3765,505.27,481.64
18.3972,505.22,480.91
18.4176,506.57,481.73
18.4382,508.66,484.39
18.4587,511.93,488.11
18.4791,513.74,493.29
18.5036,514.99,497.43
18.5241,516.19,500.74
18.5446,517.76,503.59
18.5651,519.2,504.88
18.5857,518.16,503.9
18.6101,518.93,502.52
18.6307,517.54,499.22
18.6512,516.04,495.77
18.6715,515.43,492.02
18.6921,514.14,488.61
18.7125,513.31,485.49
18.7371,513.05,483.79
18.7576,512.44,483.63
18.7781,511.55,485.71
18.7986,512.84,490.77
18.8191,516.87,495.01
18.8435,524.9,499.61
18.864,529.52,504.29
18.8847,532.22,509.03
18.905,533.37,511.62
18.9255,533.3,512.7
18.9461,530.24,511.96
18.9705,528.79,509.97
18.991,525.63,507.17
19.0116,523.31,503.34
19.0321,521.04,499.07
19.0526,518.84,494.06
19.073,516.07,490.45
19.0975,515.85,489.56
19.118,513.48,489.45
19.1385,514.79,490.76
19.159,514.03,493.21
19.1795,514.22,496.96
19.204,514.18,500.97
19.2246,512.94,504.38
19.2449,511.95,507.1
19.2655,511.16,508.28
19.2859,509.73,508.83
19.3065,509.78,511.06
19.331,511.63,512.25
19.3515,519.1,510.6
19.372,525.48,507.28
19.3925,528.19,504.22
19.4129,530.95,500.18
19.4374,531.36,495.74
19.458,530.69,493.99
19.4788,529.55,493.6
19.4989,525.84,494.88
19.5194,523.27,497.1
19.54,521.42,500.28
19.5644,520.93,503.42
19.5851,518.95,506.94
19.6055,517.16,510.15
19.6259,518.13,510.92
19.6465,517.3,511.34
19.6709,516.44,512.47
19.6914,517.15,513.98
19.7119,526.12,511.98
19.7325,536.9,509.38
19.753,543.32,504.71
19.7733,546.45,499.97
19.798,547.76,496.57
19.8189,545.61,494.46
19.8389,543.69,492.97
19.8595,540.15,493.37
19.88,537.12,495.5
19.9045,534.1,501.2
19.9249,530.08,508.16
19.9453,531.86,514.13
19.9659,537.89,517.5
19.9863,541.11,519.2
20.0069,541.69,519.36
20.0314,540.15,517.89
20.0519,537.92,515.71
20.0723,535.14,511.77
20.0929,531.91,507.62
20.1133,528.53,502.69
20.1378,526.02,497.35
20.1583,522.62,493.08
20.1788,519.89,490.47
20.1993,517.52,490.97
20.2198,516.81,491.18
20.2403,515.45,493.14
20.2648,515.56,496.31
20.2853,515.65,500.05
20.3058,513.72,504.04
20.3265,513.37,506.63
20.3468,512.7,508.51
20.3674,512.56,508.81
20.3918,512.05,509.24
20.4123,510.44,507.4
20.4329,509.35,503.52
20.4533,510.48,499.41
20.4739,509.38,494.53
20.4983,508.71,491.42
20.5187,508.97,488.54
20.5393,508.17,487.03
20.5598,508.34,486.43
20.5804,508.27,488.14
20.6007,508.02,490.51
20.6253,507.61,495.21
20.6457,509.49,499.17
20.6663,510.59,502.93
20.6868,510.87,506.95
20.7073,511.5,509.56
20.7317,511,510.45
20.7522,512.2,509.76
20.7728,511.96,508.81
20.7933,511.57,505.64
20.8138,510.05,503.72
20.8342,509.64,501.57
20.8587,509.51,497.86
20.8793,506.01,491.89
20.8997,492.61,484.51
20.9202,472.09,478.41
20.9407,450.67,474.33
20.9652,434.74,475.26
20.9857,427.59,477.81
21.0063,426.87,481.85
21.0268,428.3,486.68
21.0473,431.84,491.34
21.0676,435.87,494.27
21.0922,441.5,496.42
21.1127,448.4,497.34
21.1332,454.52,496.67
21.1536,462.21,494.73
21.1741,470.17,491.79
21.1986,474.74,487.23
21.2191,477.39,483.58
21.2398,479.51,480.47
21.2601,475.81,478.97
21.2807,471.65,478.98
21.301,469.52,481.18
21.3256,470.41,484.55
21.3461,472.93,489.24
21.3667,475.95,493.59
21.3871,480.16,497.27
21.4076,483.72,500.62
21.4281,485.98,503.49
21.4526,490.58,504.8
21.4731,493.27,505.24
21.4936,495.01,504.39
21.5141,498.61,501.91
21.5345,500.89,498.13
21.5591,501.71,494.7
21.5796,504.17,491.76
21.6001,505.54,488.81
21.6206,507.63,486.65
21.641,509.5,486.92
21.6615,510.2,487.73
21.6861,511.56,490.59
21.7067,512.05,495.27
21.7272,512.24,499.02
21.7476,512.99,502.81
21.768,514.39,506.05
21.7926,515.31,508.04
21.813,516.65,508.43
21.8335,514.72,507.35
21.8541,514.58,505.28
21.8745,513.86,502.22
21.895,512.49,499.18
21.9195,512.39,495.34
21.94,511.11,491.67
21.9606,510.89,488.14
21.981,511.51,487.31
22.0016,512.01,488.25
22.0261,512.21,489
22.0467,510.97,491.2
22.067,510.97,494.16
22.0875,512.78,498.33
22.1079,514.22,503.06
22.1285,512.58,506.45
22.1529,511.26,509.76
22.1735,513.61,511.01
22.194,522.09,511.41
22.2147,527.47,509.73
22.2349,528.58,506.18
22.2596,527.26,502.14
22.2801,527.01,497.52
22.3005,527.01,493.81
22.321,526.21,490.25
22.3415,523.76,488.4
22.3619,521.81,487.12
22.3865,521.45,486.1
22.407,521.36,485.68
22.4274,519.89,485.34
22.4479,512.51,486.07
22.4684,503.01,488.66
22.4889,498.01,492.13
22.5134,493.81,495.5
22.534,491.44,497
22.5544,490.36,497.4
22.5749,491.48,495.52
22.5954,493.39,492.62
22.6199,493.71,490.29
22.6404,493.77,487.63
22.6609,496.01,484.91
22.6814,498.01,481.93
22.7019,500.21,480.74
22.7223,503.17,481.39
22.7468,505.53,482.91
22.7675,507.43,486.53
22.7878,510.34,489.63
22.8083,512.27,493.7
22.8288,514.22,499.16
22.8534,514.77,503.93
22.8738,514.82,506.54
22.8943,515.66,507.83
22.9148,515.72,507.67
22.9353,515.58,506.93
22.9557,515.06,504.75
22.9803,513.45,502.4
23.0008,512.56,497.92
23.0213,513.45,493.93
23.0417,511.96,491.15
23.0625,510.37,489.72
23.0867,509.29,488.97
23.1073,508.44,489.78
23.1278,508.75,492.22
23.1483,509.6,495.78
23.1687,510.48,500.02
23.1893,509.98,503.02
23.2137,510.99,506.81
23.2343,509.59,508.65
23.2547,509.27,509.12
23.2753,508.82,510.9
23.2957,508.65,509.72
23.3163,508.52,506.37
23.3407,507.02,502.9
23.3612,508.81,499.12
23.3819,507.65,494.9
23.4022,507.92,491.32
23.4228,507.54,489.65
23.4472,507.23,488.72
23.4678,507.58,489.58
23.4882,507.67,491.06
23.5087,508.33,495.05
23.5293,508.47,498.64
23.5498,509.77,503.31
23.5742,510.42,508.45
23.5948,510.54,512.36
23.6152,512.63,513.69
23.6357,519.1,512.95
23.6562,529.68,509.96
23.6806,533.95,505.97
23.7012,536.36,502.77
23.7217,538.89,498.22
23.7422,538.51,494.98
23.7626,535.81,491.18
23.7832,533.45,489.14
23.8076,530.36,488.92
23.8282,529.88,491.13
23.8486,529.31,493.31
23.8691,527.65,496.84
23.8897,527.12,500.68
23.9141,526.49,505.14
23.9346,526.39,509.91
23.9551,524.72,512.53
23.9757,522.37,514.02
23.9962,520.3,514.02
24.0166,518.24,514.82
24.0412,516.59,515.45
24.0618,514.07,515.36
24.0822,516.46,515.09
24.1026,516.77,512.27
24.1231,515.81,507.82
24.1478,514.25,502.05
24.1682,509,497.64
24.1886,501,494.31
24.2091,494.4,493.05
24.2296,487.52,493.44
24.2502,482.82,494.75
24.2745,480.45,496.6
24.2951,479.16,497.48
24.3156,480.93,498.59
24.3361,482.54,498.87
24.3565,484.24,498.69
24.3771,484.79,497.16
24.4018,486.43,494.92
24.4221,488.34,491.34
24.4426,491.68,488.27
24.4631,493.94,484.02
24.4835,494.55,480.41
24.508,494.84,478.53
24.5286,496.47,478.02
24.5491,498.58,480.02
24.5695,501.66,483.42
24.5901,504.33,488.13
24.6105,505.86,491.51
24.635,506.49,492.81
24.6555,507.39,494.84
24.676,510.11,497.28
24.6965,511.69,498.22
24.717,512.15,498.18
24.7415,513.52,497.14
24.762,514.22,494.31
24.7825,515.17,492.25
24.803,513.94,489.2
24.8235,512.15,485.96
24.8439,510.92,483.37
24.8685,509.54,482.09
24.8891,509.43,481.28
24.9095,509.34,482.02
24.9299,508.68,485.62
24.9506,508.94,489.09
24.9749,510.35,493.67
24.9955,510.08,498.34
25.016,510.07,502.87
25.0365,510.45,504.5
25.057,510.76,505.8
25.0775,511.61,506.44
25.102,510.69,506.15
25.1225,508.35,504.12
25.143,508.28,500.9
25.1635,509.42,497.52
25.184,509.74,494.41
25.2084,509.79,491.73
25.2289,508.23,490.38
25.2495,506.59,490.91
25.2699,505.67,496.33
25.2905,506.14,514.66
25.3109,504.51,550.53
25.3355,501.81,600.82
25.3559,498.25,652.86
25.3765,492.2,697.89
25.397,487.16,730.11
25.4174,483.53,750.69
25.4379,481.42,762.35
25.4624,479.94,766.88
25.4829,479.55,763.5
25.5034,479.64,754.6
25.5239,479.11,742.28
25.5443,481.09,723.03
25.5688,483.07,695.82
25.5895,488.06,659.06
25.6099,496.05,615.25
25.6303,504.84,566
25.6508,515.27,512.4
25.6713,528.22,456.12
25.6958,540.17,399.29
25.7165,551.34,350.04
25.7368,560.87,312.83
25.7574,568.1,292.26
25.7778,572.48,286.01
25.8022,574.18,289.21
25.8228,573.15,297.97
25.8433,569.12,309.17
25.8638,566.89,323.34
25.8843,562.51,336.87
25.9049,555.81,350.7
25.9293,548.85,363.36
25.9499,541.88,373.69
25.9703,537.7,387.15
25.9908,535.36,400.52
26.0113,533.09,415.02
26.0358,529.67,429.21
26.0563,527.34,442.37
26.0769,524.27,454.1
26.0973,521.42,464.48
26.1177,520.53,472.78
26.1382,519.63,478.83
26.1627,518.3,484.06
26.1833,515.44,486.25
26.2037,516.15,486.6
26.2243,510.12,485.28
26.2449,497.1,483.82
26.2652,485.28,481.66
26.2899,479.02,479.33
26.3102,475.02,478.66
26.3307,474.21,479.33
26.3512,474.57,481.46
26.3717,476.06,484.97
26.3962,479.65,488.18
26.4167,484.92,492.34
26.4372,485.33,495.87
26.4577,484.07,501.3
26.4781,483.85,504.24
26.4987,485.68,506.19
26.5232,486.95,506.35
26.5437,488.56,504.88
26.5642,489.65,501.31
26.5847,490.52,497.44
26.6051,492.21,492.96
26.6296,494.17,489.56
26.6502,494.14,486.05
26.6707,494.71,485.44
26.6912,495.37,484.75
26.7116,498.49,485.6
26.7321,500.4,487.88
26.7567,501.72,491.91
26.7772,501.17,495.92
26.7976,503.74,497.74
26.8181,505.79,498.59
26.8386,508.03,499.07
26.8631,508.63,499.06
26.8836,509.1,497.65
26.9042,509.48,495.72
26.9246,509.38,493.17
26.9451,509.51,491.34
26.9656,509.21,489.07
26.9901,507.76,485.26
27.0107,507.21,483.41
27.0311,506.57,481.52
27.0516,505.26,482.22
27.0721,506,482.98
27.0965,506,488.18
27.1171,509.4,494.54
27.1378,516.32,501.04
27.1581,524.26,507.03
27.1786,526.81,510.62
27.1991,529.25,512.9
27.2235,528.8,514.32
27.244,526.64,515.25
27.2646,524.51,513.4
27.2851,522.81,509.52
27.3055,521.65,505.22
27.3261,520.12,501.97
27.3505,518.09,497.78
27.3711,515.47,494.02
27.3916,514.58,492.02
27.4122,513.86,492.62
27.4325,515.49,494.29
27.457,525.79,496.83
27.4775,534.63,500.27
27.498,539.91,504.01
27.5187,542.73,506.81
27.5391,543.18,510.25
27.5595,544.14,512.8
27.584,542.32,513.44
27.6045,540.45,512.15
27.625,536.56,510.32
27.6456,532.05,506.86
27.666,527.24,502.49
27.6905,523.19,497.59
27.711,520.55,493.87
27.7316,516.84,492.1
27.752,515.27,495.88
27.7725,511.02,499.1
27.793,499.62,501.28
27.8175,489.29,503.63
27.8381,482.43,506.3
27.8585,480.75,507.84
27.8789,480.4,509.67
27.8994,482.72,511.14
27.9239,483.17,512.51
27.9444,484.94,511.61
27.965,486.75,508.69
27.9855,487.6,498.95
28.0059,488.88,487.36
28.0265,484.3,478.09
28.0509,480.24,471.27
28.0714,476.4,466.62
28.0919,476.12,463.49
28.1125,476.89,462.19
28.1329,477.71,462.56
28.1534,479.57,463.84
28.1779,483.06,467.68
28.1985,486.45,472.14
28.219,489.76,477.71
28.2394,494.21,482.97
28.2599,497.16,487.78
28.2844,498.73,492.42
28.305,499.59,494.94
28.3255,500.47,491.95
28.3459,502.17,489.76
28.3664,502.94,487.41
28.3868,503.95,484.73
28.4115,503.16,481.78
28.4319,502.13,479.22
28.4524,502.3,476.18
28.4729,502.04,474.94
28.4934,503.23,475.36
28.5178,504.19,476.48
28.5383,504.55,479.19
28.5589,505.04,483.75
28.5793,506.23,488.6
28.5999,507.39,492.88
28.6205,508.31,497.1
28.6448,507.65,500.48
28.6654,507.52,502.39
28.6858,506.61,503.11
28.7063,507.29,501.89
28.7268,507.03,498.31
28.7513,506.23,494.25
28.7718,505.78,491
28.7924,505.42,486.8
28.8128,505.94,483.04
28.8334,506.15,480.63
28.8538,505.92,480.1
28.8783,505.94,481.08
28.8989,506.55,483.07
28.9193,507.24,486.65
28.9398,507.79,490.92
28.9603,509.43,496.34
28.9849,509.35,499.87
29.0054,510.08,502.5
29.0259,510.26,503.6
29.0463,511.21,503.88
29.0668,510.57,502.7
29.0873,510.45,500.76
29.1118,509.96,497.41
29.1323,509.57,493.73
29.1527,508.86,489.38
29.1732,507.49,485.91
29.1938,506.19,484.72
29.2142,505.75,484.18
29.2388,507,483.74
29.2592,506.8,484.79
29.2797,507.44,487.84
29.3003,509.15,491.87
29.3208,510.52,496.1
29.3452,511.62,500.08
29.3657,511.89,502.06
29.3862,511.92,504.05
29.4067,511.93,504.24
29.4272,512.95,502.59
29.4478,511.76,500.27
29.4723,511.21,496.42
29.4927,509.76,492.13
29.5132,508.01,488.51
29.5338,509.61,484.01
29.5543,510.29,482.01
29.5786,508.83,482
29.5992,507.86,482.4
29.6198,507.69,483.52
29.6402,508.55,487.22
29.6607,510.44,490.17
29.6812,509.15,494.34
29.7057,509.12,498.47
29.7262,508.9,500.98
29.7468,509.72,502.18
29.7671,508.78,501.95
29.7876,507.42,500.96
29.8121,506.14,498.77
29.8328,505.11,495.81
29.8532,505.09,490.85
29.8737,503.87,487.48
29.8942,502.9,483.58
29.9147,503.12,481.87
29.9392,502.69,481.09
29.9598,503.15,481.47
29.9802,504.12,482.78
30.0007,503.9,486.42
30.0211,504.72,490.54
30.0417,505.58,494.63
30.0661,506.26,498.31
30.0867,506.81,500.44
30.1071,506.25,501.76
30.1277,506.8,501.8
30.1481,507.04,500.04
30.1726,507.43,497.23
30.1932,507.94,493.19
30.2137,506.96,489.75
30.2342,506.76,485.4
30.2546,506.61,482.12
30.2751,506.69,479.7
30.2996,506.15,478.56
30.3202,505.52,479.25
30.3406,505.62,481.2
30.3611,506.29,484.16
30.3815,506.83,488.33
30.406,507.67,492.46
30.4266,509.13,495.97
30.447,509.71,498.17
30.4676,510.17,499.54
30.4881,510.13,500.63
30.5086,509.91,498.51
30.5331,509.93,495.8
30.5536,510.14,491.64
30.574,508.51,488.11
30.5945,508.01,485.09
30.6151,507.61,482.27
30.6395,507.69,479.62
30.66,507.15,478.7
30.6805,506.72,478.96
30.701,507.38,480.56
30.7216,507.5,483.25
30.742,508.2,487
30.7664,509.56,490.8
30.787,510.05,493.64
30.8077,510.64,496.31
30.828,511.31,499.05
30.8485,509.65,502.44
30.869,513.92,503.95
30.8935,520.74,502.16
30.914,524.99,499.53
30.9346,526.79,496.42
30.9549,526.63,494.34
30.9755,528.11,493.27
31,536.88,493.22
31.0205,549.91,493.57
31.0411,562.93,492.86
31.0615,570.54,493.69
31.082,572.63,495.55
31.1025,572.51,498.04
31.1269,569.81,498.63
31.1475,566.84,501.11
31.1679,562.08,502.68
31.1886,559.46,502.95
31.2088,553.97,502.96
31.2333,549.77,501.57
31.2539,544.82,498.25
31.2745,539.66,493
31.2949,534.92,488.8
31.3153,530.74,485.04
31.3359,523.99,481.63
31.3604,517.79,479.11
31.3809,511.83,477.29
31.4014,510.47,476.63
31.4218,509.77,478.1
31.4424,508.82,480.88
31.4668,508.46,483.91
31.4874,507.36,487.12
31.5079,506.29,490.3
31.5284,505.43,492.44
31.5488,504.95,494.75
31.5693,509.16,495.2
31.5938,518.93,493.96
31.6143,526.14,490.77
31.6349,530.51,487.62
31.6553,531.21,483.89
31.6758,529.37,479.71
31.7003,527.09,475.57
31.7208,524.28,472.46
31.7413,521.42,471.17
31.7619,520.34,471.33
31.7823,519.07,473.07
31.8027,516.06,476.65
31.8273,515.44,480.12
31.8478,512.56,482.7
31.8683,510.64,484.56
31.8888,508.12,485.45
31.9092,506.89,486.56
31.9337,505.51,486.25
31.9543,503.81,486
31.9748,501.45,483.8
31.9954,499.96,480.84
32.0158,498.17,478.07
32.0363,497.93,475.06
32.0608,497.55,472.05
32.0813,497.84,470.04
32.1018,496.67,469.03
32.1222,496.14,469.42
32.1428,496.71,471.54
32.1632,496.77,474.43
32.1878,497.81,478.54
32.2082,498.45,482.44
32.2287,498.96,486.15
32.2493,499.57,489.12
32.2697,499.25,490.1
32.2943,497.6,489.88
32.3147,496.68,490.1
32.3352,496.55,490.48
32.3557,495.04,489.78
32.3762,500.63,486.43
32.3966,507.3,482.54
32.4212,512.84,478.83
32.4417,515.67,475.27
32.4622,516.14,473.81
32.4826,514.71,473.05
32.5031,512.97,474.24
32.5276,511.58,476.39
32.5481,510.26,480.71
32.5689,509.01,485.37
32.5893,507.41,490.1
32.6097,507.13,494.48
32.6301,507.3,496.18
32.6548,507.44,498.15
32.6753,506.55,501.32
32.6959,504.04,504.05
32.7161,497.23,501.64
32.7367,487.19,497.11
32.7613,474.35,492.09
32.7817,465.68,485.87
32.8021,461.54,481.5
32.8227,461.03,479
32.8431,462.23,477.6
32.8637,465.18,479.88
32.8883,468.35,483.3
32.9087,471.48,485.64
32.9293,473.38,486.91
32.9498,481.11,489.13
32.9701,489.68,490.91
32.9906,495.95,492.32
33.0152,501.76,492.66
33.0357,505.21,491.93
33.0562,508.17,489.94
33.0766,509.33,485.55
33.0972,510.87,481.44
33.1215,511.09,477.15
33.1421,511.87,473.92
33.1628,511.9,472.14
33.1833,513.32,471.71
33.2035,515.06,474.17
33.224,516.44,476.94
33.2486,513.56,479.95
33.2691,512.84,482.56
33.2897,514.68,483.85
33.3102,517.14,486.68
33.3305,517.71,489.34
33.355,516.97,490.47
33.3756,516.58,490.38
33.396,516.66,489.7
33.4165,516.93,487.16
33.4371,515.54,484.13
33.4577,515.43,481.5
33.482,515.55,477.2
33.5026,515.44,473.16
33.5232,514.15,471.33
33.5435,512.92,470.66
33.564,510.94,471.33
33.5884,509.55,474.07
33.609,508.04,479.05
33.6295,508.23,484.64
33.65,508.99,489.31
33.6706,508.99,492.85
33.6911,509.99,495.88
33.7155,509.19,497.5
33.7361,510.15,496.8
33.7567,509.12,497.64
33.7772,507.3,498.31
33.7976,509.04,496.25
33.8219,512.03,492.8
33.8427,514.02,489.64
33.863,514.42,485.51
33.8836,514.54,481.81
33.904,513.83,479.45
33.9244,515.26,478.96
33.9489,516.21,479.57
33.9695,515.57,480.65
33.9901,515.25,483.92
34.0105,514.2,488.74
34.0309,516.16,492.79
34.0514,515.93,496.03
34.076,515.74,497.23
34.0966,515.4,496.98
34.117,513.32,495.58
34.1374,513.65,492.27
34.1579,513.72,488.81
34.1824,512.38,485.05
34.2032,511.5,480.64
34.2234,510.8,475.51
34.244,509.84,472.41
34.2643,509.87,471.13
34.2849,509.9,471.7
34.3094,508.52,474.36
34.3299,508.22,478.09
34.3504,508.17,482.27
34.3709,509.74,486.62
34.3913,510.99,490.09
34.4159,511.39,493.28
34.4365,511.11,494.42
34.4569,509.49,494.34
34.4773,508.99,493.47
34.4979,507.59,490.38
34.5184,508.08,486.1
34.5428,507.06,482.48
34.5635,507.05,478.18
34.5839,507.04,473.95
34.6044,506.03,471.36
34.6249,506.22,470.29
34.6493,506.98,470.63
34.6698,508.38,473.1
34.6904,509.51,476.88
34.711,510.41,481.31
34.7314,511.92,485.64
34.7519,513.54,489.12
34.7763,513.83,492.29
34.7969,512.87,494.63
34.8173,512.69,495.11
34.8378,512.35,493.49
34.8583,512.08,491.79
34.8788,510.27,489.03
34.9033,508.41,486.42
34.9238,508.33,483.34
34.9444,507.46,479.67
34.9648,506.57,478.34
34.9853,506.06,478.07
35.0098,506.25,480.46
35.0304,506.6,481.76
35.0509,507.48,485.61
35.0713,507.98,490.49
35.0917,508.59,494.79
35.1123,510.27,499.63
35.1368,511.01,502.31
35.1574,510.01,503.25
35.1778,509.21,504
35.1984,507.77,503.8
35.2187,508.41,501.44
35.2432,508.53,497.75
35.2638,507.23,493.6
35.2842,506.18,488.88
35.3046,506.74,484.5
35.3252,508,481.8
35.3458,508.6,480.24
35.3702,508.88,479.59
35.3909,511.7,480.88
35.4113,511.76,483.5
35.4317,513.41,488
35.4522,513.33,491.8
35.4768,512.06,496.04
35.4972,511.65,499.23
35.5177,511.72,500.79
35.5383,512.18,501.63
35.5587,511.74,501.3
35.5792,510.99,500.04
35.6036,509.79,496.63
35.6243,507.44,492.91
35.6449,507.95,488.73
35.6653,507.96,484.98
35.6857,506.77,482.58
35.7062,507.01,479.87
35.7307,505.81,479.49
35.7512,506.05,481
35.7716,506.44,484
35.7921,507.35,488.2
35.8127,507.08,491.36
35.8372,507.46,495.29
35.8577,508.97,499.23
35.8781,508.98,501.58
35.8986,508.78,501.07
35.919,508.43,500.25
35.9396,507.94,497.8
35.9641,507.35,493.64
35.9846,506.88,490.71
36.0052,507.31,485.57
36.0256,506.64,480.26
36.046,507.52,476.01
36.0707,508.41,473.6
36.0911,507.93,472.48
36.1118,507.74,473.39
36.1321,507.6,475.11
36.1526,509.68,479.29
36.1732,510.94,484.83
36.1975,511.95,488.66
36.2182,510.96,491.13
36.2387,510.77,492.3
36.2595,511.02,492.24
36.2797,510.01,491.4
36.3042,509.41,488.72
36.3246,509.33,486.17
36.3451,509.26,483.14
36.3655,508.61,478.11
36.386,507.49,473.69
36.4066,506.19,470.35
36.4312,506.35,468.88
36.4515,507.08,468.9
36.4722,507.07,467.52
36.4925,507.05,468.62
36.5132,508.64,471.9
36.5336,509.71,476.32
36.5581,509.57,480.45
36.5786,508.46,484.96
36.5991,507.77,487.97
36.6196,509.21,489.98
36.6401,509.57,491.78
36.6645,510.06,490.02
36.6851,510.64,487.22
36.7054,510.32,482.18
36.726,508.45,477.14
36.7465,507.36,473.51
36.7669,507.09,470.21
36.7917,506.67,468.57
36.812,506.54,468.65
36.8326,505.63,469.52
36.8529,504.3,472.42
36.8736,506.64,476.34
36.8979,507.91,481.27
36.9185,508.93,486.21
36.9392,507.55,490.77
36.9595,506.84,494.02
36.98,506.87,496.21
37.0004,507.1,497.17
37.025,507.48,498.34
37.0455,506.18,499.87
37.066,505.14,500.9
37.0864,504.32,502.32
37.1071,503.45,503.25
37.1314,502.16,503.4
37.1519,501.53,501.72
37.1726,502.22,498.98
37.1929,503.78,497.38
37.2135,504.42,497.31
37.2339,504.34,499.84
37.2584,502.67,502.68
37.2789,502.14,505.54
37.2995,501.71,507.63
37.3198,501.77,509.11
37.3403,501.81,509.28
37.3648,500.45,509.23
37.3854,500.76,507.98
37.4059,501.01,504.99
37.4263,501.81,500.19
37.4469,501.25,495.95
37.4674,501,491.76
37.4918,501,487.81
37.5125,501.6,488.05
37.5329,501.88,487.84
37.5535,502.3,490.27
37.574,503.84,496.22
37.5942,505.07,501.97
37.6188,504.86,509.78
37.6393,506.29,515.22
37.6599,507.43,518.18
37.6804,509.74,519.34
37.7008,511.8,516.67
37.7252,513.44,510.34
37.7462,514.95,503.87
37.7664,516.56,496.9
37.7868,516.45,489.32
37.8073,515.76,481.25
37.8279,514.41,473
37.8523,513.72,459.2
37.8729,514.78,447.96
37.8934,515.82,442.77
37.9139,516.26,442.82
37.9346,518.21,446.05
37.9588,518.37,450.64
37.9792,517.69,457.11
38.0001,517.15,463.69
38.0203,516.72,471.35
38.0408,517.38,476.48
38.0613,516.7,479.59
38.0858,515.76,481.67
38.1062,515.01,481.53
38.1268,514.41,480.83
38.1472,513.93,479.46
38.1678,512.34,479.77
38.1922,510.47,479.62
38.2127,510.38,478.09
38.2332,509.3,476.87
38.2537,510.04,476.5
38.2741,510.03,477.4
38.2946,510.43,480.92
38.3192,511.54,484.54
38.3398,512.23,488.63
38.3602,512.39,491.9
38.3809,511.91,495.72
38.4014,511.73,498.38
38.4216,511.58,500.3
38.4462,510.47,500.24
38.4669,509.17,498.59
38.4872,509.34,495.67
38.5077,509.27,492.34
38.5281,509.02,488.47
38.5527,508.61,483.78
38.5731,508.09,480.62
38.5936,507.87,478.1
38.6141,507.1,476.68
38.6347,508.08,476.54
38.6551,508.26,479.43
38.6797,508.21,484.55
38.7003,509.77,489.04
38.7206,511.01,494.83
38.7412,509.21,499.06
38.7616,506.97,503.45
38.7861,503.58,505.76
38.8067,502.06,506.81
38.8273,501.25,505.05
38.8477,502.4,502.04
38.8681,502.12,498.63
38.8885,500.3,493.3
38.9131,500.44,487.44
38.9337,499.15,481.15
38.9541,498.52,477.72
38.9748,499.42,476.58
38.9951,501.13,474.86
39.0196,502.11,474.49
39.0402,501.48,476.39
39.0606,499.39,479.71
39.0811,498.51,482.77
39.1016,499.21,485.62
39.1222,499.17,488.09
39.1466,499.53,489.67
39.167,500.03,492.14
39.1875,499.22,493.51
39.2081,498.18,495.21
39.2286,497.54,495.57
39.249,496.03,496.05
39.2735,494.23,496.04
39.294,494.78,494.83
39.3145,497.23,493.67
39.335,499.58,493.13
39.3555,500.86,492.11
39.38,502.49,493.29
39.4005,502.99,494.83
39.421,502.79,497.66
39.4415,502.64,500.53
39.462,502.31,505.02
39.4825,502.25,508.42
39.507,504.2,511.54
39.5275,505.56,513.43
39.548,505.25,514.94
39.5685,507.6,512.95
39.5889,508.08,510.96
39.6135,509.06,507.37
39.6339,509.85,503.5
39.6546,510.28,500.4
39.675,509.82,496.72
39.6955,509.26,494.57
39.7162,510.01,491.66
39.7406,511.41,489.93
39.7611,510.52,491.14
39.7815,512.02,493.91
39.8019,512.02,497.53
39.8223,512.81,501.02
39.8469,512.65,504.82
39.8674,512.92,506.66
39.8879,512.14,507.92
39.9086,512.11,507.34
39.9289,511.09,507.87
39.9494,510.87,509.3
39.9739,508.9,510.04
39.9945,509.12,508.83
40.0149,509.29,503.46
40.0355,510.03,495.97
40.0558,512.23,489.38
40.0803,513.78,482.9
40.1009,516.63,477.52
40.1215,518.7,474.22
40.142,520.96,472.37
40.1624,522.17,472.7
40.1831,524.93,474.56
40.2074,526.15,476.65
40.228,526.52,480.72
40.2484,526.01,484.37
40.269,525.41,488.3
40.2893,524.93,493.04
40.3098,524.14,509.43
40.3344,524.51,535.95
40.355,528.81,575.96
40.3755,534.65,613.17
40.3958,543.32,642.33
40.4163,555.66,662.47
40.4408,568.32,676.57
40.4616,578.66,684.86
40.4819,587.33,691.69
40.5023,591.66,695.75
40.5228,593.73,699.4
40.5434,591.98,698.72
40.5678,587.19,694.58
40.5884,576.35,682.66
40.6089,565.48,663.93
40.6293,555.58,639.14
40.6498,545.07,612.71
40.6743,535.05,581.97
40.6948,525.44,547.38
40.7154,517.15,506.5
40.7359,510.32,456.4
40.7564,503.06,401.32
40.7767,496.65,345.26
40.8013,490.12,295.21
40.8218,483.09,261.36
40.8423,476.88,247.69
40.8628,470.3,249.15
40.8833,465.24,262.12
40.9077,461.79,280.3
40.9282,462.43,300.44
40.9488,463.95,319.95
40.9692,467.36,343.76
40.9897,469.09,369.61
41.0102,472.27,401.29
41.0347,474.22,425.03
41.0554,476.37,435.62
41.0758,481.1,438.3
41.0963,486.48,436.24
41.1167,489.78,433.19
41.1411,492.03,431.35
41.1617,496.22,432.88
41.1823,498.38,435.31
41.2028,500.1,439.04
41.2232,501.28,446.44
41.2438,501.82,453.75
41.2683,503.66,461.6
41.2888,503.33,466.68
41.3092,504.66,469.54
41.3297,506.53,471.63
41.3501,507.82,474.11
41.3707,507.66,475.49
41.3953,506.93,475.79
41.4158,503.74,474.23
41.4362,503.39,472.78
41.4568,504.71,470.83
41.4771,505.37,467.86
41.5016,505.1,466.49
41.5221,503.88,467.39
41.5426,505.5,469.91
41.5631,505.4,473.53
41.5837,505.92,478.02
41.6041,505.74,483.62
41.6286,506.79,489.7
41.6493,508.43,494.16
41.6696,508.75,496.93
41.6901,508.6,499.14
41.7106,507.68,498.31
41.7351,508.14,496.65
41.7557,508.91,492.72
41.7761,507.53,488.58
41.7966,507.42,484.46
41.8171,506.94,480.37
41.8376,508.55,476.89
41.8622,510.24,474.92
41.8827,510.99,474.73
41.9032,510.39,475.99
41.9237,509.72,478.59
41.9441,509.37,482.47
41.9686,510.5,485.98
41.9891,511.6,489.38
42.0098,510.88,493.11
42.03,511.5,495.48
42.0506,511.4,497.19
42.0711,510.52,496.75
42.0957,509.02,495
42.1162,508.61,491.8
42.1367,506.89,488.64
42.1571,507.11,485.11
42.1776,505.69,476.09
42.1981,506.55,469.07
42.2225,505.84,465.66
42.2431,503.87,465.13
42.2635,503.1,465.5
42.284,502.88,468.4
42.3045,505.1,473.32
42.329,508.28,478.26
42.3495,507.63,483.21
42.37,507.1,487.56
42.3907,507.08,491.25
42.411,508.46,492
42.4314,508.57,491.8
42.4559,507.86,490.44
42.4765,507.69,486.15
42.4971,506.75,480.92
42.5176,504.8,476.14
42.538,497.24,471.91
42.5626,491.99,468.73
42.583,487.99,466.38
42.6036,486.59,466.31
42.6241,487.48,468.04
42.6446,488.38,472.04
42.665,489.7,476.03
42.6894,491.16,481.42
42.71,493.53,487.34
42.7305,495.42,492.87
42.7509,497.94,496.3
42.7714,499.75,498.44
42.7959,502.6,499.15
42.8167,502.48,498.32
42.837,502.98,495.46
42.8576,503.99,492.56
42.8779,504.59,489.45
42.8985,503.67,485.16
42.9231,503.54,481.53
42.9436,501.63,479.22
42.9639,501.9,478.98
42.9845,503.92,479.58
43.0048,504.54,482.47
43.0254,503.83,486.17
43.0501,505.06,491.54
43.0706,508.65,496.43
43.091,511.72,499.74
43.1114,512.78,503
43.132,513.02,504.8
43.1564,514.02,505.04
43.1769,514.61,504.43
43.1974,513.09,500.74
43.2179,512.87,496.8
43.2385,512.9,492.44
43.259,511.72,487.95
43.2834,512.57,483.36
43.304,511.46,480.89
43.3243,510.77,479.71
43.3449,510.41,478.97
43.3653,509.73,481.37
43.3898,508.19,485.5
43.4103,508.15,489
43.4309,509.12,493.4
43.4514,508.29,497.72
43.4719,508.84,500.78
43.4925,509.27,502.82
43.5168,508.62,502.06
43.5373,509.89,501.05
43.5578,509.11,497.64
43.5785,509.29,498.11
43.5989,508.43,500.09
43.6233,509.75,500.27
43.6438,515.8,499.42
43.6644,520.44,497.33
43.6848,522.55,495.67
43.7053,521.64,495.13
43.7257,519.31,495.71
43.7503,519.05,498.37
43.771,518.64,501.69
43.7914,517.51,504.35
43.8118,516.81,507.28
43.8324,516.25,508.23
43.8567,516.6,507.98
43.8773,515.48,506.18
43.8977,512.58,503.55
43.9182,510.07,500.64
43.9387,508.65,497.11
43.9592,508.32,492.29
43.9837,508.86,485.83
44.0042,509.89,481.26
44.0247,509.31,477.61
44.0452,508.45,475.89
44.0656,508.76,475.31
44.0861,508.41,476.25
44.1107,508.53,479.2
44.1312,509.02,485.76
44.1517,510.42,489.61
44.1722,509.53,491.89
44.1926,509.03,491.91
44.2172,507.62,490.93
44.2377,510.5,490.54
44.2582,511,489.83
44.2788,512.2,488.67
44.2992,512.16,483.33
44.3197,509.93,479.87
44.3442,511.74,475.29
44.3647,511.79,472.23
44.3852,511.83,470.19
44.4058,513.67,470.35
44.4263,511.53,476.48
44.4507,512.03,482.58
44.4713,510.22,484.87
44.4918,507.58,487.29
44.5122,509.26,489.24
44.5327,513.21,491.99
44.5531,515.37,493.19
44.5777,515.89,493.35
44.5983,515.12,491.88
44.6186,515.29,490.11
44.6392,515.23,488.88
44.6596,515.19,484.71
44.6841,511.75,479.97
44.7046,510.6,474.77
44.7253,508.08,473.42
44.746,509.66,474.33
44.7662,515.53,473.47
44.7867,525.42,470.97
44.8113,518.14,469.58
44.8317,514.51,468.46
44.8522,516.81,471.37
44.8726,515.85,473.5
44.893,515.28,477.2
44.9177,513.62,478.56
44.9381,504.5,482.05
44.9585,498.8,484.44
44.9791,506.84,485.35
44.9996,508.07,484.48
45.0201,503.46,482.98
45.0446,502.77,481.19
45.065,499.61,477.15
45.0855,498.29,473.12
45.106,498.83,470.3
45.1266,499.47,470.24
45.147,498.17,471.19
45.1715,497.34,474.35
45.1921,499.47,478.08
45.2127,499.18,482.26
45.2331,500.34,486.21
45.2535,501.47,490.57
45.2783,501.58,492.86
45.2985,501.06,495.28
45.319,501.45,496.03
45.3395,502.36,496.02
45.36,501.89,494.82
45.3807,501.91,493.25
45.405,500.33,489
45.4255,497.46,485.4
45.446,498.37,481.92
45.4665,501.3,477.74
45.4869,500.44,474.79
45.5115,502.15,474.43
45.532,504.92,476.35
45.5524,506.34,480.48
45.573,507.87,484.98
45.5934,508.49,489.59
45.6139,508.8,496.47
45.6387,510.44,501.37
45.6591,510.15,503.3
45.6794,508.12,503.04
45.7001,508.3,501.03
45.7206,508.24,499.03
45.745,508.59,495.82
45.7655,505.87,492.66
45.7859,505.9,488.33
45.8064,506.72,483.86
45.8269,507.77,480.89
45.8474,507.62,479.71
45.8719,509.1,480.17
45.8924,508.08,482.13
45.9131,507.86,487.31
45.9334,508.49,492.45
45.9538,508.79,495.96
45.9744,510.03,499.37
45.9989,510.43,501.49
46.0195,508.74,501.99
46.04,509.19,500.4
46.0605,512.75,500.12
46.0809,511,496.89
46.1053,508.6,493.71
46.1258,508.48,491.97
46.1464,505.59,488.98
46.1669,506.27,486.38
46.1875,507.01,483.71
46.2079,508.61,479.96
46.2323,509.69,479.37
46.253,509.15,479.7
46.2734,510.92,481.96
46.2938,511.14,487.17
46.3143,510.31,491.33
46.3388,516.25,495.87
46.3595,518.6,500.09
46.38,520.08,502.07
46.4003,520.66,502.26
46.4208,519.73,500.61
46.4414,519.78,497.49
46.4658,518.23,494.19
46.4863,516.78,490.35
46.5068,515.83,485.68
46.5274,513.26,481.54
46.5479,511.61,477.84
46.5723,510.69,476.67
46.593,512.55,476.53
46.6133,512.44,477.43
46.6339,511.55,481.14
46.6543,510.24,484.11
46.6748,509.59,488.29
46.6994,508.87,493.03
46.7198,510.5,495.63
46.7402,509.8,498.9
46.7608,511.44,499.32
46.7812,511.55,500.26
46.8057,510.24,498.41
46.8262,509.99,495.72
46.8468,507.79,492.38
46.8673,506.64,488.5
46.8879,506.31,485.4
46.9084,505.85,482.12
46.9328,506.28,479.9
46.9533,504.22,480.52
46.9739,506.78,481.61
46.9942,505.22,484.69
47.0149,506.38,488.75
47.0352,508.1,492.2
47.0598,509.48,494.96
47.0803,506.99,497.37
47.1008,509.39,500.1
47.1212,511.51,500.48
47.1418,511.81,499.98
47.1663,511.45,497.39
47.1867,512.36,493.91
47.2074,512.09,490.13
47.2277,509.67,486.1
47.2482,510.34,482.08
47.2687,509.47,478.66
47.2932,509.77,477.93
47.3138,509.02,477.75
47.3343,510.42,478.8
47.3548,510.33,481.84
47.3751,512.07,485.47
47.3996,512.25,489.78
47.4202,512.2,494.42
47.4407,513.16,498.14
47.4613,510.33,499.91
47.4818,510.06,500.33
47.5022,509.85,500.26
47.5266,508.88,498.41
47.5473,510.7,496.13
47.5678,510.76,493.7
47.5883,510.21,489.96
47.6086,509.17,485.97
47.6332,507.14,481.58
47.6536,507.51,479.46
47.6742,507.21,478.37
47.6947,506.77,479.49
47.7152,507.01,482
47.7357,508.81,484.8
47.7601,509.05,489.24
47.7807,509.44,492.99
47.8011,510.55,495.99
47.8216,509.84,498.59
47.8422,510.27,500.07
47.8627,511.62,500.46
47.8872,510.89,499.37
47.9076,509.92,495.29
47.9281,510.53,492.64
47.9486,509.03,488.11
47.969,507.62,483.29
47.9936,507.3,479.63
48.0141,506.24,477.9
48.0347,506.59,477.32
48.0552,507.67,477.86
48.0758,508.34,480.09
48.0962,508.47,483.67
48.1205,509.98,488.14
48.1412,509.58,492.31
48.1617,509.26,496.65
48.182,508.41,499.12
48.2025,508.13,500.49
48.227,508.7,499.2
48.2476,508.96,497.76
48.2682,509.17,496
48.2885,509.34,492.6
48.3091,507.27,488.88
48.3296,507.42,484.31
48.3541,506.33,481.05
48.3746,505.47,478.64
48.3951,504.97,478.51
48.4156,506.38,478.41
48.4361,506.5,480.33
48.4606,507,484.86
48.4809,509.2,488.89
48.5015,510.16,493.11
48.522,511.53,495.69
48.5425,512.22,498.15
48.5629,513.18,499.52
48.5874,512.94,499.22
48.6079,513.35,498.17
48.6284,511.88,495.74
48.6489,510.71,491.19
48.6694,509.77,487.95
48.694,508.81,483.36
48.7145,508.85,478.89
48.735,507.48,476.51
48.7556,507.78,475.21
48.776,508.03,475.57
48.7965,508.22,477.45
48.8209,509.58,480.16
48.8415,509.86,484.13
48.8619,511.29,488.9
48.8825,510.03,493.32
48.903,510.63,496.86
48.9233,511.3,498.49
48.9479,511.04,497.99
48.9684,512.23,496.99
48.9889,510.79,494.39
49.0094,510.23,491.71
49.0299,509.18,488.97
49.0544,508.15,484.58
49.075,507.12,481.06
49.0956,506.09,477.85
49.116,505.07,476.68
49.1364,505.66,476.74
49.1568,505.93,479.2
49.1813,505.94,483.76
49.202,506.35,487.6
49.2225,504.68,492.08
49.2428,508.55,496.47
49.2635,509.64,498.57
49.2879,511.71,499.66
49.3084,511.77,499.33
49.3288,513.21,498.26
49.3493,514.37,494.81
49.3699,512.7,489.25
49.3904,511.16,486
49.4149,510.13,481.4
49.4354,508.5,476.92
49.4559,506.8,473.94
49.4762,506.44,471.55
49.4968,510.55,471.24
49.5212,514.84,472.79
49.542,517.87,476.03
49.5624,520.1,481.23
49.5829,521.28,485.18
49.6033,520.02,488.94
49.6239,518.22,492.56
49.6482,519.17,494.84
49.6688,519.74,494.88
49.6893,518.59,494.1
49.7098,516.07,493.08
49.7302,516.06,490.06
49.7507,515.45,486.25
49.7752,517.36,482.4
49.7958,518.29,478.92
49.8163,517.23,477.34
49.8367,515.98,476.47
49.8572,516.79,476.58
49.8818,517.23,478.66
49.9023,517.98,482.93
49.9229,514.79,486.14
49.9433,513.03,490.51
49.9639,512.62,494.61
49.9842,512.7,497.09
50.0087,511.96,498.67
50.0294,510.37,499.14
50.0499,509.49,496.51
50.0701,509.6,494.01
50.0908,507.68,491.41
50.1153,505.54,488.52
50.1357,503.63,484.62
50.1563,505.11,481.5
50.1766,506.08,482.2
50.1971,506.07,485.36
50.2178,505.85,488.09
50.2423,506.28,490.27
50.2627,509.83,492.62
50.2833,512.66,496.89
50.3037,511.13,500.71
50.3242,511.1,502.97
50.3487,512.88,505.38
50.3693,514.51,503.7
50.3896,517.4,502.96
50.4103,515.52,501.97
50.4308,512.02,499.58
50.4512,511.22,495.86
50.4756,510.57,492.69
50.4961,511.26,488.35
50.5168,511.21,484.88
50.5372,511.37,481.7
50.5576,508.69,480.16
50.5822,508.35,479.53
50.6028,506.88,480.82
50.6233,506.31,483.66
50.6439,505.45,487.93
50.6641,506.36,491.74
50.6847,507.08,495.39
50.709,507.67,498.92
50.7296,510.33,500.93
50.7502,511.87,500.95
50.7706,512.49,500.16
50.7912,510.8,496.93
50.8115,509.04,494.94
50.8362,508.03,490.75
50.8568,506.82,487.4
50.877,509.06,482.92
50.8975,508.05,480.54
50.9181,506.64,478.83
50.9426,508.91,478.66
50.9632,509.53,481.13
50.9836,508.02,484.5
51.004,508.02,489.4
51.0249,509.21,492.92
51.0449,509.77,496.74
51.0697,509.22,497.39
51.09,510.97,495.91
51.1106,511.38,495.93
51.131,511.5,494.94
51.1516,511,492.76
51.1761,509.6,489.8
51.1965,509.68,486.04
51.217,509.95,482.23
51.2376,509.36,477.99
51.2581,509.09,475.39
51.2786,507.07,474.31
51.3031,507.05,474.05
51.3235,506.04,475.44
51.3441,506.43,477.95
51.3646,507.55,480.96
51.385,506.04,485.57
51.4094,506.83,491.06
51.43,508.86,495.84
51.4505,508.89,498.68
51.4711,511.11,499.94
51.4916,510.29,498.95
51.5119,511.43,497.56
51.5366,508.95,493.65
51.557,507.76,490.12
51.5775,505.81,487.3
51.598,505.64,483.44
51.6184,505.72,480.95
51.6389,505.77,478.96
51.6634,507.02,477.97
51.684,505.41,478.37
51.7044,504.33,481.9
51.725,505.07,487.52
51.7454,506.85,496.82
51.77,508.68,503.85
51.7905,509.15,509.48
51.8109,511.32,511.99
51.8315,513.25,512.99
51.8519,512,512.59
51.8723,510.6,509.87
51.897,509.28,505.7
51.9176,509.83,500.56
51.938,510.26,495.45
51.9584,508.81,490.56
51.979,510.05,485.25
52.0033,509.84,481.6
52.0241,509.07,479.68
52.0444,507.86,478.54
52.0649,507.68,481.43
52.0854,507.55,484.15
52.1059,507.44,487.72
52.1303,507.95,492.77
52.151,507.56,496.02
52.1713,508.45,497.82
52.1918,509.16,501.05
52.2125,507.13,503.64
52.2368,507.7,505.31
52.2573,508.96,504.45
52.2779,509.57,502.16
52.2983,508.06,501.13
52.319,508.44,500.7
52.3393,507.36,501.36
52.3639,504.88,501.89
52.3844,502.91,500.91
52.4049,499.93,500.93
52.4254,499.54,500.94
52.4459,500.83,500.35
52.4664,501.67,500.88
52.4908,502.13,499.91
52.5114,503.71,499.73
52.5319,504.77,500.98
52.5522,505.61,501.18
52.5727,507.49,500.55
52.5974,505.79,498.44
52.6178,504.23,494.35
52.6383,502.19,488.88
52.6589,501.75,482.7
52.6793,498.6,476.56
52.6998,495.48,470.25
52.7242,490.78,466
52.7448,486.83,464
52.7654,484.46,464.6
52.7857,484.77,466.48
52.8062,485.22,469.78
52.8306,487.17,473.83
52.8513,489.34,476.46
52.8717,492.27,480.77
52.8923,493.42,486.22
52.9127,495.53,487.77
52.9332,497.03,487.02
52.9576,497.82,486.01
52.9783,499.46,485.01
52.9988,499.17,482.81
53.0192,497.73,480.65
53.0396,497.79,476.92
53.0641,498.23,473.73
53.0846,498.18,471.79
53.1052,500.75,471.23
53.1256,502,471.38
53.1461,502.2,473.71
53.1666,501.76,476.57
53.1911,504.01,482.45
53.2116,504.41,487.56
53.2321,503.92,492.45
53.2526,503.94,495.76
53.2731,503.35,497.01
53.2936,504.08,498.01
53.3181,505.26,497.21
53.3386,507.21,494.76
53.3591,507.77,490.81
53.3796,507.62,487.85
53.4002,506.49,484.68
53.4246,506.19,481.54
53.4452,507.76,477.83
53.4656,509.6,475.87
53.4861,508.08,475.69
53.5065,506.47,477.16
53.5271,506.37,480.32
53.5516,506.5,483.66
53.5721,506.8,487.93
53.5926,507.44,492.34
53.613,508.15,495.47
53.6335,508.32,497.98
53.658,508.26,497.98
53.6785,509.01,497.39
53.6991,509,495.51
53.7195,509.2,492.61
53.74,508.56,488.29
53.7605,508.65,484.43
53.7851,506.52,481.14
53.8055,505.82,478.11
53.826,505.85,476.69
53.8465,506.88,476.35
53.867,505.91,477.48
53.8915,506.72,480.39
53.912,508.38,485.31
53.9325,511.1,489.85
53.9532,510.28,493.88
53.9736,508.83,497.7
53.9941,508.86,499.36
54.0185,509.69,499.09
54.039,509.75,498.67
54.0595,509.2,497.34
54.0799,508.36,494.67
54.1005,507.69,490.74
54.1249,507.75,487.19
54.1455,506.8,482.95
54.166,505.24,479.76
54.1865,505.39,478.21
54.2069,506.11,477.77
54.2275,507.29,478.61
54.2519,506.63,481.49
54.2725,505.91,484.99
54.2929,506.13,488.39
54.3135,507.1,491.52
54.3339,507.28,494.41
54.3544,507.62,496.13
54.379,506.3,496.1
54.3994,506.64,494.88
54.4199,507.71,493.51
54.4405,507.57,490.21
54.461,507.86,485.96
54.4854,508.08,481.97
54.5059,507.27,478.38
54.5265,508.41,475.7
54.547,507.93,474.56
54.5674,508.15,475.05
54.5878,508.92,477.04
54.6124,508.53,481.03
54.633,508.83,485.43
54.6534,509.26,490.74
54.674,509.41,495.59
54.6944,511.33,500.67
54.7188,511.66,503.54
54.7393,511.93,505.03
54.7599,511.54,503.83
54.7804,511.23,500.86
54.8008,509.79,498.09
54.8213,508.43,494.47
54.846,508.74,491.38
54.8665,509.6,492.3
54.887,512.28,495.24
54.9074,512.02,501.19
54.9279,513.22,507.15
54.9524,517.17,511.12
54.9728,519.94,512.5
54.9934,522.35,511.2
55.014,522.88,509.56
55.0343,523.3,507.25
55.0549,525.04,504.2
55.0794,525.44,501.36
55.1,528.95,498.89
55.1203,531.76,496.11
55.1408,532.81,493.09
55.1614,534.45,489.67
55.1819,536.36,486.54
55.2064,536.09,483.43
55.2269,533.87,481.74
55.2473,531.09,479.39
55.2678,530.08,478.72
55.2883,528.46,479.57
55.3129,528.17,482.26
55.3333,524.73,488.61
55.354,524.79,498.69
55.3744,524.63,513.35
55.3949,524.9,533.68
55.4153,525.32,555.34
55.4399,525.26,572.87
55.4604,528.41,589.1
55.4808,533.33,602.48
55.5013,536.46,614.38
55.5217,539.77,623.51
55.5462,543.61,633.61
55.567,549.69,641.68
55.5872,556.95,645.55
55.6077,563.16,645.84
55.6282,569.33,648.07
55.6487,574.66,649.06
55.6733,577.13,651.45
55.6937,576.51,653.56
55.7144,573.6,651.44
55.7348,568.88,645.56
55.7553,561.91,633.44
55.7798,553.93,611.36
55.8003,543.94,580.68
55.8207,533.55,540.95
55.8413,522.84,491.76
55.8618,515.07,435.21
55.8821,503.06,378.37
55.9067,489.05,332.29
55.9273,474.44,303.03
55.9476,459.55,289.23
55.9681,450.84,287.38
55.9886,447.87,293.11
56.0131,448.5,304.48
56.0336,453.4,318.59
56.0542,458.92,337.47
56.0747,462.73,357.18
56.0951,468.39,374.94
56.1156,473.31,390.35
56.1402,479.05,404.08
56.1606,486.44,416.27
56.1812,492.95,426.41
56.2016,498.36,434.73
56.2221,501.89,440.78
56.2466,503.71,445.23
56.2671,504.57,448.38
56.2877,503.26,449.11
56.3082,504.6,451.28
56.3287,505.28,452.83
56.3491,505.43,454.06
56.3736,505.14,457.65
56.3942,504.31,460.72
56.4146,505.85,464.58
56.4351,506.48,469.66
56.4555,507.78,475.73
56.476,507.43,482.18
56.5006,510.54,485.95
56.5212,510.63,488.76
56.5415,509.71,491.61
56.5621,510.17,493.48
56.5826,509.93,492.79
56.607,501.55,489.43
56.6277,488.04,485.74
56.6481,477.63,481.2
56.6687,471.7,476.36
56.6891,471.56,471.29
56.7095,471.65,467.03
56.7341,472.72,464.82
56.7546,475.98,464.86
56.775,479.18,466.89
56.7955,483.74,468.91
56.816,488,472.73
56.8405,491.6,476.18
56.861,495.48,480.75
56.8816,499.78,482.8
56.9021,503.23,485.44
56.9225,504.38,486.55
56.943,505.9,487.04
56.9674,506.12,486.03
56.988,506.7,484.23
57.0085,505.56,480.38
57.029,504.85,477.9
57.0496,503.28,474.32
57.074,507.22,474.86
57.0945,509.38,473.89
57.1152,508.1,474.31
57.1356,507.48,475.45
57.1561,507.19,478.96
57.1765,507.55,482.77
57.201,508.24,486.01
57.2217,508.79,489.41
57.242,508.63,494.53
57.2626,509.11,496.02
57.283,509.69,497.62
57.3036,509.95,496.89
57.3279,510.56,494.12
57.3486,510.25,491.49
57.3691,511,7.77721e-43
57.3896,512.8,3.87961e-29
