Program Time [s],data 0,data 1
4.61933,521.49,502.77
4.61934,522.79,507.62
4.61935,522.03,513.89
4.61936,496.92,494.74
4.61937,518.79,492.99
4.61938,520.43,492.99
4.61939,519.55,494.39
4.6194,521.64,497.72
4.61941,521.11,502.77
4.61942,521.49,507.62
4.61943,522.79,513.89
4.61944,522.03,494.74
4.61945,496.92,492.99
4.61946,518.79,492.99
4.61947,520.43,494.39
4.61987,519.55,497.72
4.61988,521.64,502.77
4.61989,521.11,507.62
4.6199,521.49,513.89
4.61992,522.79,512.4
4.61993,522.03,510.92
6.136,512.8,509.14
6.15655,516.84,506.71
6.17704,527.07,502.37
6.19746,536.46,497.09
6.21796,541.17,493.27
6.24245,544.13,492.02
6.26307,544.31,490.82
6.28354,543.85,492.85
6.30399,542.68,496.68
6.32444,540.54,501.35
6.34497,538.63,506.28
6.36945,536.31,511.22
6.38999,534.24,514.58
6.41051,531.8,515.86
6.43099,529.44,514.09
6.45144,526.35,508.67
6.4759,515.88,502.54
6.49643,497.9,497.83
6.51695,484.12,492.26
6.53752,477.5,488.81
6.55797,474,484.85
6.57839,474.2,482.08
6.60294,475.76,480.66
6.62344,478.61,482.93
6.64403,481.09,485.94
6.6644,485.07,491.76
6.6849,490.26,497.2
6.70945,493.2,503.36
6.72996,496.56,509.49
6.75042,500.05,513.19
6.77093,503.64,514.95
6.79136,505.71,515.36
6.8119,507.77,513.69
6.83641,509.62,509.55
6.85696,513.89,505.44
6.87748,516.71,501.15
6.89795,518.97,495.72
6.91839,519.58,491.58
6.94283,520.06,489.66
6.96339,520.65,490.13
6.98387,521.72,492.7
7.00437,521.98,497.36
7.02489,522.78,504.09
7.0453,522.02,510.07
7.06985,522.82,515.46
7.09035,523.46,519.77
7.11092,522.96,521.61
7.13136,523.17,521.49
7.15185,523.34,519.79
7.17227,522.87,515.63
7.19683,522.5,511.91
7.21739,522.8,505.93
7.23787,522.04,500.14
7.25834,523.03,495.51
7.27889,523.62,492.81
7.30331,524.5,492.45
7.32389,524.6,493.16
7.34433,525.08,497.13
7.36484,525.66,502.3
7.38532,525.53,507.84
7.40574,526.02,513.27
7.43045,525.22,518.02
7.45084,524.58,520.21
7.47134,523.26,521.17
7.49181,523.61,520.54
7.51224,523.29,518.63
7.53672,524.03,514.3
7.55744,524.42,509.24
7.57782,524.14,503.39
7.5984,524.91,498.72
7.61888,525.93,494.77
7.63927,526.14,492.42
7.66373,526.71,491.73
7.68431,527.17,494.19
7.70481,526.34,498.55
7.72525,526.27,502.64
7.74569,526.22,508.11
7.77023,525.57,511.69
7.79078,525.26,515.75
7.81135,525.01,517.6
7.83172,523.21,517.68
7.85223,522.16,517.74
7.87277,525.13,516.6
7.89717,537.31,513.68
7.9178,551.04,509.94
7.93824,560.44,504.15
7.95876,564.35,499.12
7.97925,566.48,495.7
8.00369,565.98,494.16
8.02433,563.39,494.13
8.0448,561.11,496.7
8.06532,557.89,500.36
8.08577,555.31,504.89
8.10625,551.85,509.71
8.1307,549.08,513.17
8.15131,546.26,514.54
8.17187,543.01,513.83
8.19249,541.21,512.26
8.21271,538.97,509.61
8.23726,536.17,505.09
8.25768,533.54,499.87
8.27832,531.43,494.7
8.29889,530.34,489.76
8.31929,529.68,487.01
8.3397,530.74,486.4
8.36436,530.39,488.52
8.38484,529.71,491.02
8.40537,527.97,496.42
8.42563,527.58,501.53
8.4462,526.46,507.23
8.46661,524.77,511.58
8.49115,525.02,513.86
8.51162,524.81,515.49
8.53215,524.45,514.99
8.55256,523.96,512.59
8.5731,524.37,508.48
8.5977,525.29,504.38
8.61819,525.44,499.9
8.63863,526.55,494.92
8.65923,525.44,491.54
8.67954,525.55,487.83
8.70005,526.64,484.86
8.7246,524.51,483.69
8.74506,513.41,486.15
8.76563,499.13,490.92
8.78603,490.7,496.94
8.8065,486.16,502.55
8.831,483.13,507.44
8.85157,483.3,510.35
8.8721,484.24,512.08
8.89251,487.59,511.47
8.91308,491.08,509.97
8.93349,494.66,506.78
8.95801,497.53,501.82
8.97854,500.62,496.86
8.99914,503.7,492.09
9.01963,506.56,489.47
9.04018,510.05,488.98
9.06449,511.24,491.58
9.08501,512.59,495.46
9.10552,514.87,501.97
9.12615,514.7,512.58
9.14646,524.16,521.46
9.16712,538.93,526.77
9.19145,548.94,530.02
9.21201,554.15,531.01
9.23248,555.72,529.41
9.25303,555.98,526.73
9.27344,554.98,521.78
9.298,553.99,515.43
9.31859,551.99,509.34
9.339,549.79,502.87
9.35944,548.03,496.9
9.37995,547.03,494.12
9.40042,544.42,493.49
9.42494,542.14,494.4
9.44552,539.11,497.12
9.466,539.29,501.69
9.48642,538.23,506.55
9.50705,538.38,510.84
9.52738,536.31,514.08
9.55193,534.25,515.46
9.57243,533,516.17
9.59295,531.6,515.13
9.61338,531.08,511.71
9.63386,534.26,507.57
9.65838,536.01,503.65
9.67895,536.61,497.92
9.69961,537.09,493.14
9.71988,537.47,490.91
9.74039,536.78,490.53
9.76091,537.02,491.82
9.78537,536.02,494.66
9.80594,536.01,499.13
9.82636,535.41,504.3
9.84693,533.13,509.84
9.86739,532.1,514.27
9.89195,530.08,517.42
9.91236,529.07,517.93
9.93299,527.25,517.55
9.95334,526.4,514.64
9.97384,525.92,509.91
9.99437,525.54,505.53
10.0189,525.83,500.62
10.0394,525.26,495.3
10.0599,525.21,491.64
10.0803,525.97,490.91
10.1008,527.38,491.73
10.1253,527.9,494.38
10.1458,527.12,498.31
10.1664,526.3,503.65
10.1869,526.04,508.32
10.2073,524.03,513.65
10.2278,522.02,516.52
10.2523,521.02,516.82
10.2729,521.22,515.85
10.2936,521.17,512.88
10.3139,521.14,509.51
10.3346,522.11,505.41
10.3588,522.49,500.92
10.3793,523.19,495.94
10.4,523.75,492.15
10.4203,523.4,489.92
10.4409,524.92,489.74
10.4613,524.94,492.79
10.4859,526.75,497.03
10.5064,528,503.23
10.5269,529.2,508.18
10.5474,530.16,513.34
10.5678,529.93,517.28
10.5922,529.34,519.42
10.6128,528.47,520.54
10.6335,528.18,518.63
10.6539,526.54,514.5
10.6745,526.23,509
10.6949,525.59,503.8
10.7193,525.67,498.84
10.7398,525.54,494.07
10.7605,525.43,491.06
10.7808,525.54,489.85
10.8012,525.03,490.68
10.8218,524.83,494.34
10.8464,525.06,499.27
10.8669,524.65,504.82
10.8873,524.92,510.86
10.9079,525.14,515.28
10.9284,524.31,518.23
10.9528,523.25,519.58
10.9733,523.8,518.87
10.9939,522.44,515.69
11.0143,524.15,510.95
11.0348,524.72,505.76
11.0554,524.18,499.81
11.0797,524.34,494.65
11.1003,524.47,491.12
11.1208,525.38,488.7
11.1413,525.5,489.16
11.1617,525,491.32
11.1862,525,495.86
11.2067,524.4,502.09
11.2273,524.72,508.67
11.2477,525.18,513.74
11.2683,526.14,517.39
11.2886,526.11,519.71
11.3132,526.29,520.37
11.3337,525.03,519.1
11.3542,523.43,515.08
11.3746,524.14,509.26
11.3952,523.71,504.61
11.4198,523.57,499.49
11.4402,524.06,494.79
11.4607,524.64,491.43
11.4811,524.32,490.35
11.5016,524.25,491.08
11.5221,525.2,494.06
11.5466,525.16,498.85
11.5671,525.13,504.08
11.5877,524.7,509.46
11.6081,524.36,513.57
11.6288,523.09,515.86
11.6531,524.47,515.69
11.6737,525.38,515.95
11.6942,525.9,512.76
11.7147,527.52,508.81
11.7351,527.22,503.65
11.7556,527.37,498.32
11.7801,529.7,492.85
11.8006,531.36,489.08
11.8211,531.89,487.87
11.8415,532.91,488.49
11.8622,534.53,488.99
11.8827,535.22,490
11.9073,534.58,494.8
11.9277,535.86,500.64
11.9481,536.09,506.51
11.9686,538.07,511.01
11.9892,538.86,513.81
12.0135,538.09,515.04
12.0342,537.87,513.44
12.0547,538.1,508.75
12.0752,538.28,502
12.0956,537.82,496.8
12.116,537.46,492.24
12.1407,535.57,487.99
12.1612,535.05,486.39
12.1818,534.04,490.71
12.202,531.43,500.77
12.2225,529.15,507.82
12.2471,528.12,515.25
12.2676,525.29,520.4
12.2881,522.04,526.32
12.3087,516.63,530.46
12.3292,512.3,529.17
12.3496,510.44,529.73
12.3739,506.15,526.39
12.3945,504.72,522.11
12.415,502.38,515.09
12.4355,504.3,509.27
12.4559,503.24,500.62
12.4804,506.19,493.49
12.5009,503.95,490.79
12.5216,497.56,489.64
12.5421,502.25,490.51
12.5624,504.6,495.21
12.583,516.28,500.17
12.6075,524.02,506.53
12.6281,522.22,512.43
12.6484,530.58,516.14
12.6691,532.06,511.31
12.6895,543.45,499.25
12.7141,544.96,481
12.7345,542.37,459
12.755,532.89,437
12.7754,523.31,418
12.796,514.85,406.4
12.8165,507.88,400.32
12.8409,501.71,399.86
12.8615,498.56,405.28
12.8821,497.45,415.03
12.9024,499.16,425.22
12.9229,501.93,441.78
12.9434,502.94,455.22
12.9681,500.95,467.38
12.9884,504.76,478.9
13.0088,509.81,489.32
13.0294,507.65,495.86
13.0498,504.12,501.49
13.0743,501.9,502.79
13.095,517.92,497.83
13.1155,527.13,498.66
13.1359,530.71,492.13
13.1563,532.57,487.71
13.177,541.45,486.96
13.2014,529.36,488.57
13.2218,539.09,488.66
13.2423,537.27,488.93
13.2628,534.82,492.14
13.2833,538.05,494.31
13.3077,532.64,496.85
13.3283,527.91,498.08
13.3489,527.33,499.26
13.3694,523.87,500.01
13.3899,521.49,501.41
13.4102,520.59,501.53
13.4348,518.67,500.42
13.4555,517.14,508.14
13.4758,514.51,533.71
13.4964,515.61,572.77
13.517,520.49,608.61
13.5414,526.19,632.49
13.5618,530.55,644.19
13.5823,533.44,641.95
13.603,534.55,630.36
13.6233,532.84,614.49
13.6438,532.87,597.19
13.6683,531.9,580.35
13.6889,532.32,563.88
13.7095,532.06,547.51
13.7299,533.44,533.41
13.7504,533.16,521.72
13.7747,533.72,512.18
13.7953,531.78,504.74
13.8159,532.42,498.99
13.8364,531.34,494.8
13.8569,530.47,492.44
13.8773,528.98,490.35
13.9017,526.38,490.28
13.9224,525.71,491.02
13.9428,524.76,492.62
13.9632,524.21,494.9
13.9837,523.37,497.72
14.0042,523.3,500.57
14.0289,522.44,503.66
14.0493,521.75,506.93
14.0698,521.4,508.74
14.0904,520.12,508.59
14.1108,521.3,508.67
14.1351,522.24,504.34
14.1557,523.79,502.47
14.1762,525.43,500.98
14.1966,526.35,500.38
14.2172,526.68,498.11
14.2377,527.14,498.08
14.2622,526.31,498.27
14.2828,525.25,498.61
14.3032,524,499.89
14.3238,524.2,501.91
14.3443,523.76,503.93
14.3687,523.01,505.14
14.3893,522.21,507.12
14.4098,520.97,507.29
14.4301,519.77,506.63
14.4507,519.02,506.11
14.4712,519.61,504.29
14.4956,517.49,501.63
14.5162,518.39,498.9
14.5367,516.11,494.72
14.5573,514.29,490.78
14.5777,514.43,488.82
14.602,517.55,488.26
14.6226,519.24,489.41
14.6432,517.99,492.33
14.6636,518.99,497.66
14.6843,521.19,502.73
14.7047,521.95,509.78
14.7293,521.96,516.43
14.7497,523.77,521.34
14.7703,525.62,524.67
14.7906,528.89,526.14
14.8111,526.31,525.31
14.8356,527.45,520.45
14.8562,528.56,516.36
14.8766,527.45,510.09
14.8972,528.56,504.47
14.9175,525.25,499.78
14.938,524.2,498.22
14.9626,524.36,496.58
14.9831,522.49,497.86
15.0036,521.79,501.09
15.0241,524.43,504.67
15.0446,523.75,509.94
15.0651,523,515.15
15.0896,522.6,518.72
15.1101,522.88,519.78
15.1305,520.7,519.02
15.1511,523.76,517.62
15.1715,525.21,515.09
15.196,526.57,509.87
15.2165,526.45,504.9
15.2371,526.36,498.72
15.2575,525.89,494.18
15.278,525.11,491.74
15.2987,524.29,490.99
15.323,521.83,492.19
15.3436,520.87,495.56
15.364,520.49,500.84
15.3845,521.19,506.28
15.4049,522.76,512.62
15.4295,522.4,517.9
15.45,521.52,521.12
15.4705,520.62,521.89
15.4909,519.69,521.91
15.5114,520.16,518.93
15.5319,519.52,514.95
15.5564,519.02,509.56
15.577,518.82,504.05
15.5974,520.25,497.44
15.6179,519.6,493.15
15.6384,520.68,490.92
15.663,522.15,490.14
15.6834,521.92,491.91
15.704,522.13,495.53
15.7244,522.71,501.02
15.745,521.17,506.62
15.7654,518.33,511.89
15.7899,516.27,515.91
15.8104,514.21,517.93
15.8309,512.97,517.95
15.8513,511.78,516.56
15.8719,513.22,511.45
15.8963,511.58,507.56
15.9168,513.86,502.44
15.9374,515.69,497.36
15.9579,516.95,493.68
15.9784,519.36,490.55
15.9989,519.29,489.84
16.0233,522.23,489.87
16.0439,521.98,492.9
16.0644,520.19,498.72
16.0849,519.55,502.97
16.1053,515.84,508.58
16.1299,517.87,512.86
16.1505,518.7,516.09
16.1711,515.96,516.87
16.1915,515.17,515.9
16.2119,522.93,514.92
16.2324,528.15,510.13
16.257,532.52,504.31
16.2775,538.61,498.45
16.2979,546.69,493.76
16.3184,549.35,491.41
16.3389,550.08,492.32
16.3593,547.07,490.86
16.3841,541.05,494.09
16.4044,548.04,499.27
16.4249,540.83,506.42
16.4453,547.67,513.13
16.4657,539.53,518.71
16.4902,534.83,522.37
16.5108,530.86,523.49
16.5313,528.69,524.79
16.5519,522.55,522.83
16.5723,523.64,518.47
16.5927,519.71,512.57
16.6173,519.37,506.26
16.6377,518.9,500.21
16.6583,519.52,495.37
16.6787,518.41,492.49
16.6994,519.53,492.19
16.7238,519.82,494.16
16.7444,519.06,498.52
16.7648,520.05,503.82
16.7854,519.24,510.26
16.8058,518.79,515.6
16.8263,519.03,519.68
16.8509,517.83,520.75
16.8714,517.46,520
16.8919,518.37,518.4
16.9124,519.09,514.92
16.9328,519.88,510.73
16.9574,521.5,505.99
16.9777,522,498.59
16.9983,523,493.27
17.0187,521,488.22
17.0393,523.2,486.77
17.0597,523.96,487.42
17.0843,524.17,489.54
17.1048,525.13,495.23
17.1253,525.11,500.98
17.1458,524.49,507.39
17.1663,524.19,511.71
17.1907,523.15,515.17
17.2112,522.12,516.33
17.2318,521.9,515.67
17.2522,520.52,513.13
17.2726,520.61,509.11
17.2931,521.09,503.69
17.3176,521.87,499.15
17.3382,522.3,494.52
17.3587,523.04,490.42
17.3792,524.43,488.13
17.3997,525.34,487.51
17.4241,525.88,489.6
17.4446,524.9,493.88
17.4651,524.72,498.51
17.4857,524.58,499.61
17.5061,523.06,500.68
17.5266,522.05,504.15
17.5511,521.44,505.12
17.5716,520.95,505.29
17.5922,520.96,504.24
17.6127,520.57,501.79
17.6333,519.46,498.83
17.6535,520.16,494.86
17.6781,519.73,490.29
17.6986,519.79,487.03
17.7192,518.63,484.63
17.7396,519.3,484.9
17.7601,522.04,488.32
17.7845,524.63,493.06
17.8051,526.51,498.05
17.8258,528.41,504.44
17.8461,527.92,509.95
17.8665,527.94,515.16
17.8871,526.55,517.33
17.9116,526.24,517.66
17.9321,527.19,516.73
17.9526,525.75,514.78
17.9731,523.4,514.63
17.9936,523.32,513.7
18.0181,517.46,508.56
18.0386,510.97,503.25
18.059,506.77,499.8
18.0796,504.62,497.64
18.1001,506.09,496.51
18.1205,506.08,498.41
18.145,505.06,501.53
18.1655,505.85,506.22
18.1861,507.88,510.98
18.2066,509.1,516.18
18.2269,510.08,519.75
18.2514,510.07,523
18.2721,512.45,523.4
18.2926,511.96,519.92
18.313,512.57,508.53
18.3335,512.46,492.83
18.3539,514.56,472.06
18.3784,515.65,447.45
18.399,516.52,423.96
18.4195,518.22,406.97
18.44,519.77,397.97
18.4605,521.02,395.38
18.4848,522.82,399.5
18.5054,523.45,409
18.526,524.76,421.4
18.5466,525.01,435.32
18.5669,525.21,448.66
18.5874,524.17,459.53
18.6119,523.73,467.82
18.6324,523.59,473.26
18.6529,522.67,477.41
18.6734,523.74,477.92
18.694,524.39,475.54
18.7144,524.51,471.83
18.739,524.01,469.27
18.7595,524.41,469.21
18.7799,525.33,470.57
18.8004,525.06,474.06
18.8209,525.25,479.64
18.8453,525,487.52
18.8659,524.4,495.01
18.8864,523.52,502.81
18.9069,522.22,509.25
18.9275,521.77,512.8
18.9478,521.42,515.44
18.9724,521.53,514.55
18.9929,521.23,511.04
19.0135,522.58,506.43
19.034,523.87,502.75
19.0543,523.49,497
19.0789,524.19,491.6
19.0994,524.16,489.28
19.1199,524.12,487.82
19.1404,523.9,488.46
19.161,522.72,490.97
19.1814,522.18,496.37
19.2058,523.54,503.5
19.2263,522.83,510
19.2469,522.87,516.6
19.2674,521.69,520.48
19.2879,520.55,523.58
19.3123,519.64,524.07
19.3329,521.31,522.85
19.3533,520.45,519.08
19.3738,519.96,514.07
19.3943,520.57,508.25
19.4148,520.06,501.8
19.4392,520.44,497.24
19.4598,520.36,493.59
19.4805,520.28,493.47
19.5007,520.03,495.18
19.5212,519.62,498.34
19.5458,519.7,503.68
19.5663,519.56,508.54
19.5868,519.45,513.83
19.6073,518.76,518.07
19.6277,517.61,520.25
19.6483,518.28,520
19.6727,518.83,518.4
19.6932,519.26,514.12
19.7137,518.61,509.5
19.7342,517.69,504.4
19.7547,519.15,498.12
19.7753,520.32,492.69
19.7998,522.06,489.96
19.8202,522.84,489.36
19.8407,523.68,489.09
19.8613,524.34,491.27
19.8817,524.47,497.22
19.9062,525.38,503.37
19.9267,525.1,509.9
19.9474,524.48,515.12
19.9678,522.59,518.7
19.9882,523.07,519.16
20.0087,523.25,519.53
20.0333,522.4,517.62
20.0537,521.92,513.3
20.0742,520.74,508.04
20.0947,520.79,502.43
20.1151,521.43,498.34
20.1397,521.75,494.07
20.1602,520.4,491.46
20.1807,519.92,491.57
20.2012,520.33,492.65
20.2218,519.87,496.32
20.2422,520.69,501.46
20.2667,519.96,507.17
20.2875,520.16,513.13
20.3076,520.13,517.51
20.3282,519.1,520.21
20.3486,519.68,520.36
20.3731,520.55,517.49
20.3936,521.04,515.39
20.4141,520.43,509.91
20.4347,519.54,505.13
20.4551,520.64,499.91
20.4756,520.31,494.52
20.5001,519.25,490.42
20.5207,520.2,488.94
20.5411,522.76,490.35
20.5616,523.61,493.88
20.582,522.09,499.7
20.6065,520.87,504.76
20.6272,520.09,510.21
20.6477,520.88,515.97
20.6681,523.5,520.17
20.6889,522.2,520.14
20.709,521.36,518.91
20.7337,520.49,515.93
20.754,521.39,511.74
20.7747,521.51,506.59
20.7951,521.61,501.88
20.8156,522.29,495.3
20.8401,521.63,491.24
20.8606,521.7,489.99
20.8811,521.96,489.79
20.9016,521.57,492.24
20.922,522.06,496.99
20.9425,523.45,502.59
20.9671,522.36,508.87
20.9876,521.89,514.1
21.0082,521.11,516.48
21.0285,520.89,517.78
21.0491,520.71,518.23
21.0734,520.97,517.38
21.094,519.77,513.7
21.1146,519.82,507.96
21.1351,518.86,502.37
21.1555,517.68,497.5
21.176,518.95,493.6
21.2006,519.16,491.88
21.221,519.53,491.5
21.2415,519.62,493.2
21.2619,519.9,496.16
21.2826,521.52,501.33
21.303,521.81,506.86
21.3276,521.25,512.49
21.348,521.4,517.59
21.3685,519.92,521.47
21.389,524.34,522.98
21.4095,526.27,521.98
21.4339,527.02,518.79
21.4544,527.21,513.83
21.475,526.57,508.26
21.4954,527.06,501.81
21.516,527.44,496.65
21.5364,527.56,494.32
21.5609,527.24,492.26
21.5816,526.2,493
21.6019,523.96,495.2
21.6224,523.77,499.16
21.6429,523.21,503.73
21.6674,522.57,509.18
21.688,523.46,514.75
21.7085,522.56,518.2
21.729,522.65,519.56
21.7493,522.32,518.65
21.7699,520.66,516.52
21.7947,521.13,512.21
21.8151,520.9,507.77
21.8355,521.92,501.02
21.8559,521.54,494.61
21.8763,521.23,490.49
21.9012,521.18,488.39
21.9215,521.55,488.31
21.942,522.24,490.05
21.9625,522.19,495.04
21.9829,522.75,500.83
22.0035,523,506.27
22.0278,522.6,512.41
22.0485,523.28,516.93
22.069,523.42,519.34
22.0894,521.94,519.28
22.1099,522.15,517.82
22.1343,520.92,513.26
22.1548,520.54,507.81
22.1753,519.23,502.64
22.1959,518.38,496.72
22.2166,518.51,491.77
22.2368,518.81,488.82
22.2612,520.44,488.85
22.2818,520.96,490.28
22.3023,521.36,494.03
22.3228,520.69,498.62
22.3433,519.95,504.7
22.3638,520.16,510.56
22.3882,519.73,515.85
22.4089,519.38,519.08
22.4293,519.31,520.46
22.4499,518.65,519.97
22.4702,519.32,516.58
22.4949,519.05,513.06
22.5153,518.84,509.25
22.5358,519.27,503.8
22.5563,520.42,498.64
22.5768,520.14,495.31
22.5972,521.31,493.05
22.6219,521.65,493.04
22.6423,521.72,495.03
22.6628,521.97,498.43
22.6834,521.98,502.94
22.7037,521.98,508.15
22.7283,521.59,512.72
22.7488,521.87,516.38
22.7692,521.7,517.5
22.7897,522.16,517.6
22.8102,522.53,515.48
22.8308,521.42,510.78
22.8552,521.54,505.63
22.8757,521.63,500.9
22.8963,521.9,495.92
22.9167,521.92,491.34
22.9372,521.74,488.67
22.9617,521.99,487.94
22.9823,522.19,488.75
23.0028,522.15,491
23.0232,523.12,494.8
23.0437,523.1,500.44
23.0641,524.08,506.15
23.0886,525.66,510.52
23.1092,526.33,513.42
23.1297,524.86,514.73
23.1503,523.49,514.79
23.1706,522.79,511.23
23.1951,521.63,506.58
23.2156,521.71,501.87
23.2362,523.17,496.09
23.2567,522.53,490.47
23.2771,521.63,486.58
23.2977,522.7,485.86
23.3221,524.36,487.09
23.3426,524.69,490.07
23.3632,525.55,495.46
23.3836,525.04,501.17
23.4041,523.83,507.53
23.4246,523.27,512.63
23.4491,522.81,516.1
23.4696,523.85,517.28
23.4901,522.68,517.62
23.5106,521.14,514.5
23.5311,520.72,510.6
23.5555,520.97,506.48
23.5761,521.38,502.18
23.5966,521.5,497.35
23.617,522.6,492.88
23.6376,522.88,490.9
23.658,522.71,490.12
23.6825,522.96,490.7
23.7031,523.37,495.56
23.7235,523.5,501.25
23.7441,522.6,507.2
23.7645,521.08,512.76
23.789,522.26,517.41
23.8096,522.01,519.12
23.8301,520.81,519.1
23.8506,520.45,517.48
23.871,520.36,513.78
23.8916,520.29,508.43
23.9161,520.63,503.54
23.9366,521.3,497.43
23.9571,522.24,492.15
23.9776,522.39,488.52
23.998,521.92,487.01
24.0225,521.93,487.81
24.0431,521.95,491.85
24.0638,521.36,496.68
24.0841,521.69,502.74
24.1045,521.15,508.59
24.125,521.72,514.08
24.1495,521.57,518.26
24.1701,521.26,519.01
24.1905,521.01,519.01
24.2111,520.61,517.61
24.2314,520.49,524.68
24.2559,520.19,543.35
24.2765,521.55,573.08
24.2971,524.04,604.06
24.3175,528.23,631.05
24.338,531.79,649.44
24.3585,535.03,659.75
24.3829,535.62,663.4
24.4034,536.7,661.52
24.424,536.76,653.82
24.4445,536.81,641.25
24.4649,535.05,625.4
24.4854,533.24,607.52
24.5099,530.79,590.22
24.5305,528.03,572.77
24.5509,526.43,555.02
24.5714,525.94,539.42
24.5919,525.15,524.73
24.6164,525.32,511.59
24.6369,525.46,499.87
24.6574,525.17,491.7
24.678,524.53,485.76
24.6985,523.43,482.4
24.7189,522.54,481.92
24.7434,522.23,483.74
24.764,521.39,488.39
24.7844,521.31,490.71
24.805,520.45,494.37
24.8253,519.36,497.5
24.8499,519.49,497.6
24.8704,517.99,498.08
24.8909,517.99,497.46
24.9114,517.79,494.97
24.9319,518.43,491.38
24.9523,518.75,487.1
24.9769,518.8,481.88
24.9974,519.84,477.7
25.0179,519.67,475.76
25.0384,523.94,475.81
25.0589,528.15,477.65
25.0834,530.12,480.72
25.1039,532.1,484.38
25.1243,531.48,490.9
25.1448,530.78,497.12
25.1653,530.42,504.9
25.1859,529.34,509.32
25.2103,526.67,511.65
25.2309,525.14,513.12
25.2514,524.11,511.5
25.2719,522.69,508.4
25.2924,521.95,505.52
25.3168,522.56,502.82
25.3373,523.25,498.65
25.358,522.2,494.72
25.3784,521.76,493.18
25.3988,522.81,491.94
25.4192,523.45,493.75
25.4439,524.36,497.6
25.4642,522.89,502.28
25.4848,522.51,507.83
25.5052,523.81,513.86
25.5257,524.85,518.69
25.5502,523.68,520.35
25.5708,522.94,519.28
25.5914,520.35,518.22
25.6118,522.28,515.98
25.6322,522.63,512.38
25.6528,522.5,507.91
25.6773,523.6,502.53
25.6977,523.08,497.82
25.7182,521.66,494.06
25.7388,518.53,491.25
25.7592,517.83,491.6
25.7797,519.06,495.28
25.8043,520.65,500.02
25.8248,520.32,504.42
25.8452,521.45,510.93
25.8658,522.56,515.55
25.8863,523.25,518.24
25.9106,523.2,519.39
25.9312,522.16,518.71
25.9517,520.53,516.77
25.9722,520.42,513.22
25.9928,521.74,507.37
26.0131,522.39,501.5
26.0376,523.11,495
26.0582,524.29,490.2
26.0787,524.83,487.16
26.0993,525.27,486.33
26.1196,524.01,487.86
26.1442,523.81,491.89
26.1647,523.65,498.31
26.1852,522.52,505.25
26.2057,522.81,511.2
26.2261,522.05,516.16
26.2466,520.64,518.53
26.2712,518.91,518.82
26.2916,517.73,518.26
26.3121,518.78,514.81
26.3326,518.63,510.24
26.3532,518.5,505.6
26.3775,519.4,500.08
26.3984,518.92,495.06
26.4186,518.14,491.65
26.4391,518.11,489.52
26.4596,520.89,489.22
26.4801,523.31,491.97
26.5046,522.65,496.58
26.5251,521.12,502.46
26.5456,519.29,508.57
26.5661,519.64,514.26
26.5867,518.71,517.4
26.611,517.57,516.72
26.6316,518.45,513.18
26.6521,515.16,507.94
26.6726,513.33,502.35
26.6932,515.06,497.28
26.7137,516.25,492.63
26.7381,516.4,486.9
26.7585,516.72,482.52
26.7792,515.98,479.82
26.7997,514.58,479.25
26.8201,510.47,482.4
26.8446,503.57,486.52
26.865,495.26,491.42
26.8856,489.21,496.73
26.9062,487.36,503.19
26.9265,486.49,507.35
26.9471,487.79,509.48
26.9715,490.83,510.78
26.9922,493.47,510.03
27.0126,494.97,506.02
27.033,495.58,503.62
27.0535,499.26,502.29
27.0741,502.21,504.24
27.0987,504.57,517.79
27.119,506.46,535.43
27.1396,503.56,552.94
27.1599,495.85,567.16
27.1807,489.28,578.12
27.2049,483.02,581.9
27.2255,478.42,579.92
27.2461,480.14,573.14
27.2665,485.11,563.51
27.2869,489.89,549.81
27.3076,496.11,535.05
27.3319,501.09,519.84
27.3525,505.67,505.27
27.373,510.34,492.82
27.3935,514.07,481.25
27.414,517.26,471.4
27.4385,522.8,460.52
27.459,527.44,454.22
27.4795,530.55,449.97
27.5,532.04,449.18
27.5205,532.64,451.34
27.5409,534.91,457.07
27.5653,536.53,460.86
27.586,540.42,467.09
27.6064,541.54,474.47
27.627,540.43,480.78
27.6473,539.54,484.02
27.6718,537.43,488.82
27.6924,537.95,493.45
27.7129,536.36,493.56
27.7334,534.49,490.85
27.754,531.79,487.28
27.7744,529.83,481.62
27.7989,528.27,478.1
27.8195,526.21,474.88
27.8399,523.97,473.7
27.8604,520.98,474.56
27.8808,518.38,478.65
27.9054,517.7,485.72
27.9259,516.16,492.18
27.9464,514.33,499.14
27.9668,513.46,504.31
27.9874,512.97,508.45
28.0079,511.58,509.56
28.0323,514.46,510.25
28.0529,515.17,507.8
28.0734,515.54,505.04
28.0939,516.43,501.23
28.1144,517.14,496.78
28.1348,517.51,492.63
28.1593,518.41,487.9
28.1799,520.33,487.52
28.2003,520.46,487.02
28.2208,523.57,490.01
28.2412,523.06,493.81
28.2658,523.65,499.05
28.2864,524.12,504.64
28.307,524.49,511.51
28.3273,523.59,516.01
28.3478,522.88,518.81
28.3684,523.9,519.45
28.3928,523.12,518.36
28.4136,522.9,515.09
28.4339,522.72,510.07
28.4542,525.17,505.45
28.4748,524.74,500.56
28.4993,524.19,495.25
28.5199,524.95,492.2
28.5403,529.76,491.56
28.5608,529.61,492.05
28.5812,530.69,495.84
28.6017,531.75,500.67
28.6262,532.8,505.94
28.6468,531.84,511.35
28.6673,530.67,516.48
28.6878,529.54,519.78
28.7083,529.23,520.83
28.7327,529.18,521.06
28.7532,527.55,518.65
28.7737,526.24,514.92
28.7942,525.59,509.14
28.8146,524.87,503.91
28.8352,523.7,498.33
28.8596,523.56,494.66
28.8802,523.45,492.53
28.9008,521.96,491.82
28.9212,522.57,493.86
28.9417,523.25,499.09
28.9662,523.8,504.67
28.9867,523.04,510.54
29.0072,521.43,515.03
29.0277,521.55,520.02
29.0482,520.84,522.62
29.0686,519.87,522.69
29.0931,519.3,520.36
29.1137,518.64,516.68
29.1342,519.51,511.95
29.1547,520.01,507.36
29.1751,521.81,501.09
29.1996,524.44,495.87
29.2201,524.36,493.3
29.2406,524.48,492.04
29.2612,524.79,492.43
29.2817,524.83,495.34
29.3022,524.06,498.67
29.3266,523.65,504.34
29.3472,523.32,510.07
29.3677,522.86,515.06
29.3881,521.69,518.25
29.4085,522.15,518.8
29.4291,522.12,519.64
29.4536,521.29,517.51
29.4742,522.44,512.61
29.4946,521.95,508.29
29.5152,521.76,503.03
29.5356,520.81,498.02
29.56,520.85,494.22
29.5806,522.08,492.57
29.6011,522.46,492.66
29.6216,523.37,493.93
29.642,523.1,492.14
29.6626,525.28,492.31
29.6872,534.62,495.05
29.7078,545.3,499.44
29.7281,551.84,504.35
29.7487,554.47,506.48
29.7691,554.78,507.59
29.7935,554.42,507.07
29.814,552.14,505.45
29.8347,550.71,502.56
29.8551,548.37,498.25
29.8755,546.29,493.8
29.896,544.24,489.84
29.9206,541.79,485.47
29.9411,540.03,483.18
29.9616,543.02,484.14
29.9823,549.42,487.91
30.0025,552.74,493.93
30.0269,555.19,500.14
30.0475,554.35,505.92
30.0681,551.88,511.93
30.0885,548.7,516.15
30.1091,545.96,517.52
30.1295,541.57,517.81
30.1539,538.46,515.45
30.1747,536.57,513.36
30.1951,535.45,519.49
30.2155,534.36,525.59
30.236,531.69,525.67
30.2604,529.15,523.74
30.2812,527.32,520.39
30.3017,526.66,517.51
30.3221,525.13,516.61
30.3426,524.1,518.09
30.3631,523.28,520.47
30.3875,521.82,523.18
30.4081,520.46,526.14
30.4286,519.77,528.11
30.449,519.21,528.89
30.4696,519.77,527.71
30.4941,520.22,525.37
30.5146,519.37,521.3
30.5352,519.5,516.84
30.5556,518.4,513.67
30.5761,518.32,511.94
30.5965,517.86,507.15
30.6211,518.48,497.32
30.6416,520.79,486.06
30.6621,525.23,477.64
30.6826,529.18,474.72
30.703,530.75,476.37
30.7235,531.2,480.3
30.7479,530.76,484.84
30.7685,530.01,490.87
30.7891,529.41,495.7
30.8094,528.92,498.56
30.83,527.74,500.85
30.8545,526.59,500.68
30.8749,525.67,498.94
30.8956,525.34,496.35
30.9159,524.47,492.08
30.9365,523.98,487.87
30.957,522.58,486.89
30.9815,521.07,486.31
31.0022,522.85,487.25
31.0225,523.68,489.8
31.0429,525.35,493.64
31.0634,524.68,498.71
31.0878,524.34,504.37
31.1085,524.47,510.1
31.129,523.38,514.68
31.1495,523.5,517.14
31.1699,523,518.71
31.1905,522.4,518.77
31.2149,522.32,516.22
31.2354,521.06,512.77
31.2559,520.65,507.82
31.2765,520.52,500.65
31.297,521.01,493.32
31.3214,518.41,487.86
31.342,515.93,485.49
31.3626,513.54,485.79
31.3829,512.83,489.03
31.4034,512.67,493.03
31.4239,511.73,498.82
31.4484,511.79,504.86
31.4689,510.43,511.09
31.4895,509.94,514.87
31.5099,509.56,516.69
31.5304,509.84,517.96
31.5549,510.28,517.16
31.5754,510.22,513.73
31.5958,511.38,509.59
31.6163,510.9,504.67
31.6369,513.52,499.13
31.6574,514.22,494.91
31.6819,515.37,492.13
31.7025,516.5,491.1
31.723,516.6,491.48
31.7434,517.88,494.98
31.7638,518.1,500.19
31.7844,517.48,507.15
31.8088,521.19,513.52
31.8294,525.35,518.82
31.8498,528.08,522.25
31.8703,529.46,522.6
31.8907,529.77,521.28
31.9152,529.42,518.23
31.9357,529.73,512.18
31.9563,529.39,506.54
31.9768,528.31,501.24
31.9972,527.65,496.19
32.0177,526.72,491.75
32.0422,525.97,489.6
32.0628,525.98,488.88
32.0832,526.58,490.3
32.1037,527.27,494.24
32.1242,527.41,499.99
32.1487,527.73,505.8
32.1692,527.18,510.84
32.1897,526.35,515.07
32.2103,526.08,516.06
32.2308,524.06,517.24
32.2513,523.65,517.2
32.2757,522.52,513.56
32.2962,522.02,509.45
32.3166,521.41,504.96
32.3371,521.13,500.36
32.3577,521.9,495.29
32.3821,521.72,491.23
32.4026,522.58,490.59
32.4231,523.06,490.67
32.4436,523.25,492.94
32.4641,524,498.15
32.4845,523.2,503.92
32.5091,522.36,509.54
32.5297,525.49,515.03
32.5501,525.99,518.22
32.5707,527.79,520.38
32.5911,526.63,520.5
32.6156,526.31,518.4
32.6361,527.25,515.32
32.6567,527,510.26
32.6772,527.6,504.81
32.6976,527.68,498.64
32.7181,527.34,493.32
32.7425,526.27,490.85
32.7631,526.42,490.08
32.7836,526.54,492.67
32.804,525.83,495.53
32.8245,524.86,500.83
32.845,524.49,506.06
32.8695,524.99,510.45
32.89,523.39,512.36
32.9105,521.32,512.89
32.9311,513.65,513.31
32.9515,507.32,512.25
32.9761,503.26,510.4
32.9966,500.81,506.52
33.0171,500.24,502.01
33.0375,499.4,497.21
33.058,499.92,492.37
33.0785,501.53,488.9
33.103,503.83,487.72
33.1235,505.86,489.17
33.144,508.29,491.94
33.1645,509.63,496.75
33.185,510.71,502.2
33.2095,513.36,508.36
33.2301,514.69,514.29
33.2505,515.75,518.83
33.271,516.8,521.86
33.2915,516.64,522.49
33.3119,516.31,520.39
33.3364,518.05,516.51
33.357,514.84,510.81
33.3775,508.67,505.05
33.3979,505.14,499.64
33.4184,503.31,494.11
33.4429,504.45,490.69
33.4634,504.76,488.75
33.4839,506.01,488.4
33.5045,507.61,490.92
33.5249,508.48,495.54
33.5454,509.59,500.63
33.57,509.27,506.7
33.5905,510.42,511.76
33.611,511.73,514.81
33.6314,513.59,516.65
33.6519,514.07,516.12
33.6764,515.26,514.49
33.6969,514.8,511.2
33.7175,516.04,506.56
33.7379,515.03,502.45
33.7585,514.63,497.36
33.7789,514.3,492.89
33.8034,514.64,489.91
33.8239,516.51,489.33
33.8444,517.21,491.26
33.865,517.97,494.81
33.8854,519.17,500.65
33.9058,517.94,505.92
33.9303,519.55,511.93
33.9509,520.64,516.75
33.9713,521.51,520.2
33.9918,520.61,521.56
34.0123,519.49,520.45
34.0368,517.99,518.36
34.0574,517.79,513.69
34.0779,517.43,508.15
34.0983,518.95,502.32
34.1188,519.16,497.26
34.1393,519.33,492.8
34.1638,520.06,490.44
34.1843,520.65,490.15
34.2048,522.32,491.72
34.2254,522.86,495.78
34.2458,522.28,501.82
34.2702,523.23,507.66
34.2909,522.98,514.33
34.3113,522.39,521.26
34.3318,525.71,529.21
34.3522,537.77,535.17
34.3728,555.01,537.33
34.3973,570.41,535.87
34.4178,579.73,531.49
34.4383,581.98,525
34.4587,578.39,516.8
34.4793,574.51,506.64
34.5038,569.01,499.91
34.5243,561.41,495.93
34.5449,555.92,492.54
34.5652,549.54,493.43
34.5858,544.43,497.15
34.6063,540.95,498.72
34.6307,537.36,498.77
34.6513,525.29,500.02
34.6717,505.83,501.62
34.6923,492.06,502.69
34.7128,482.85,502.95
34.7372,477.68,499.96
34.7578,474.34,496.97
34.7782,476.28,491.98
34.7987,478.62,489.78
34.8193,481.7,485.42
34.8397,485.16,482.94
34.8642,487.73,484.95
34.8848,493.58,483.56
34.9055,498.66,489.45
34.9258,500.93,493.16
34.9462,519.35,501.93
34.9706,523.88,503.94
34.9913,521.9,507.95
35.0117,517.72,511.76
35.0322,516.78,514.01
35.0526,518.42,517.21
35.0732,517.74,515.37
35.0976,516.79,512.89
35.1182,514.23,509.31
35.1387,514.59,507.05
35.1593,512.87,504.24
35.1796,511.89,501.39
35.2005,508.72,497.91
35.2246,502.97,496.53
35.2453,501.58,496.83
35.2657,501.66,501.26
35.2861,500.93,504.41
35.3066,499.14,507.13
35.3312,500.92,510.5
35.3516,503.53,514.4
35.3721,506.43,517.32
35.3927,507.34,521.66
35.4132,507.07,521.33
35.4336,509.46,516.66
35.4581,516.77,514.13
35.4786,535.61,508.9
35.4991,556.29,505.52
35.5196,566.43,499.82
35.54,571.35,492.65
35.5645,571.08,489.72
35.5852,568.46,488.78
35.6056,565.57,488.42
35.6261,563.46,494.14
35.6466,558.76,496.71
35.667,555.01,499.97
35.6916,550.01,506.37
35.7122,546.61,511.5
35.7326,539.49,515.8
35.7531,522.19,522.24
35.7736,497.95,516.99
35.798,485.56,525.19
35.8186,473.05,536.15
35.8392,509.04,528.32
35.8596,505.63,510.46
35.88,510.1,496.37
35.9005,527.68,489.89
35.9251,513.95,475.12
35.9455,501.76,479.29
35.9661,480.01,480.23
35.9866,503.4,478.99
36.007,498.52,481.19
36.0315,507.42,483.95
36.0521,520.34,483.56
36.0725,528.47,501.05
36.0931,520.97,506.84
36.1135,524.58,517.27
36.134,527.46,519.82
36.1584,522.37,524.25
36.179,517.7,523
36.1995,528.56,509.6
36.22,543.65,503.88
36.2404,562.72,501.31
36.2609,555.37,506.64
36.2855,577.9,500.32
36.306,590.12,496.85
36.3265,588.3,497.68
36.347,585.64,508.15
36.3674,583.71,512.12
36.3919,573.17,512.69
36.4125,564.33,519.75
36.4329,558.67,522.6
36.4534,557.33,524.68
36.4739,550.47,524.75
36.4945,542.37,525.4
36.5189,529.5,523.72
36.5396,526,518.57
36.56,526.4,513.86
36.5806,522.52,510.89
36.601,523.22,504.91
36.6254,524.37,506.73
36.6459,530.5,501.78
36.6664,528.8,508.83
36.6869,520.04,514.26
36.7074,525.63,514.01
36.7279,531.1,522.81
36.7524,528.08,531.45
36.773,529.27,536.16
36.7934,524.21,541.33
36.8141,520.77,541.26
36.8343,527.22,539.41
36.8589,528.57,539.33
36.8794,522.66,537.06
36.8999,521.93,532.65
36.9204,521.74,528.12
36.9408,521.79,523.7
36.9614,522.23,522.36
36.9859,523.99,520.09
37.0063,518.99,522.87
37.0268,518.79,520.49
37.0473,521.23,522.4
37.0678,526.19,525.32
37.0923,523.55,526.25
37.1128,520.84,529.8
37.1334,518.87,529.04
37.1538,517.7,529.63
37.1743,512.96,529.11
37.1949,509.77,527.09
37.2192,505.41,522.87
37.2399,505.33,519.89
37.2604,506.66,514.52
37.2808,505.93,509.61
37.3013,506.55,505.69
37.3257,507.44,502.35
37.3463,510.75,501.68
37.3668,513.8,502.15
37.3872,513.44,505.72
37.4078,512.95,508.97
37.4282,512.16,514.58
37.4527,512.93,519.46
37.4733,515.94,524.37
37.4938,514.95,528.3
37.5143,515.16,529.44
37.5347,515.93,529.55
37.5553,518.74,528.04
37.5797,523.4,525.63
37.6003,525.52,522.71
37.6208,525.41,517.96
37.6412,527.93,512.77
37.6617,528.34,510.42
37.6862,530.88,507.73
37.7067,531.3,507.39
37.7272,532.24,509.51
37.7478,533.39,513.01
37.7683,535.11,516.41
37.7888,535.49,520.32
37.8133,536.39,523.86
37.8338,536.71,527.09
37.8542,536.77,529.47
37.8747,536.22,531.58
37.8952,532.17,531.06
37.9197,531.94,527.45
37.9402,533.75,523.96
37.9607,536.2,519.97
37.9812,536.76,515.57
38.0016,535.61,510.66
38.0221,534.29,507.73
38.0468,535.03,506.98
38.0672,535.02,508.39
38.0877,533.42,511.11
38.1081,532.94,514.89
38.1287,531.75,518.31
38.1531,530.8,523.05
38.1737,528.44,527.64
38.1941,526.95,530.91
38.2147,524.76,531.33
38.2351,522.21,530.46
38.2556,520.37,528.97
38.2801,522.69,525.78
38.3007,524.95,521.62
38.3211,526.36,518.5
38.3417,527.69,513.8
38.3621,530.95,510.24
38.3867,531.56,508.99
38.4072,531.85,508.19
38.4276,531.48,508.95
38.4481,530.58,512.36
38.4686,530.47,517.69
38.4891,530.57,523.95
38.5137,531.86,528.76
38.5341,529.89,533.21
38.5546,527.51,535.77
38.575,527.61,537.01
38.5956,527.69,537.41
38.62,527.95,535.13
38.6405,528.36,531.1
38.6611,527.29,526.88
38.6816,527.63,522.11
38.702,527.9,517.68
38.7225,528.32,513.55
38.747,528.26,512.64
38.7677,529.61,511.71
38.7881,529.69,513.37
38.8088,530.75,516.49
38.8291,530.2,520.8
38.8535,529.96,523.84
38.874,526.97,527.27
38.8945,525.97,529.62
38.915,524.58,530.69
38.9355,522.06,529.15
38.9561,519.85,528.12
38.9806,518.48,524.7
39.001,519.58,520.96
39.0216,518.87,515.37
39.0421,519.29,510.09
39.0625,520.64,505.47
39.087,521.11,502.38
39.1075,520.89,500.5
39.1281,520.11,502
39.1485,518.89,505
39.1689,520.31,510.8
39.1895,521.05,516.64
39.2139,522.24,521.11
39.2345,522.59,524.69
39.2551,522.07,527.75
39.2755,518.26,529.4
39.296,517.41,527.32
39.3166,517.53,523.86
39.3409,519.42,518.89
39.3615,519.14,514.11
39.382,518.51,508.69
39.4025,517.81,503.75
39.4229,519.65,499.4
39.4474,518.92,497.32
39.468,518.73,497.66
39.4885,516.79,499.32
39.5089,518.63,504.06
39.5294,519.9,508.65
39.5499,520.32,514.52
39.5744,518.06,520.01
39.595,516.05,523.81
39.6154,515.04,527.05
39.636,515.43,527.64
39.6565,514.34,526.71
39.6808,516.08,525.57
39.7014,515.46,521.26
39.722,516.97,516.4
39.7424,518.57,511.12
39.7628,519.26,506.7
39.7833,519.61,503.96
39.8079,517.49,502.57
39.8285,518.59,502.65
39.8489,518.07,505.12
39.8693,517.06,509.3
39.8899,519.05,515.44
39.9144,519.64,520.95
39.9349,520.31,524.96
39.9554,519.45,528.17
39.9759,519.36,528.73
39.9964,521.09,529.19
40.0169,521.27,527.15
40.0415,519.82,523.92
40.0619,519.25,519.74
40.0823,520.6,516.39
40.1031,521.88,511.71
40.1234,523.11,508.17
40.1478,523.08,506.34
40.1683,524.67,507.07
40.189,525.93,508.65
40.2094,526.35,512.52
40.2299,527.68,519.02
40.2503,527.34,523.82
40.2748,528.27,529.05
40.2953,526.42,532.64
40.3158,525.14,533.71
40.3363,525.11,532.57
40.3568,520.49,533.26
40.3813,513.59,533.01
40.4018,507.87,524.4
40.4223,518.3,512.92
40.4428,501.84,503.14
40.4632,513.07,503.91
40.4837,513.66,499.53
40.5085,497.52,499.62
40.5287,502.22,501.1
40.5492,507.38,506.48
40.5698,497.3,512.18
40.5904,503.44,518.95
40.6147,505.55,525.96
40.6353,508.04,531.97
40.6558,507.63,535.97
40.6763,508.31,538.78
40.6968,508.45,539.22
40.7172,507.36,537.78
40.7416,507.89,534.22
40.7622,507.71,530.58
40.7827,509.57,525.06
40.8032,509.25,519.25
40.8237,508.8,514.2
40.8442,508.84,511.76
40.8687,510.07,512.61
40.8892,514.86,512.29
40.9098,524.69,515.83
40.9302,533.75,519.86
40.9507,538.6,524.09
40.9751,542.48,528.27
40.9958,541.98,532.42
41.0162,542.99,534.53
41.0366,543.79,534.83
41.0571,543.03,534.86
41.0776,542.03,531.49
41.1021,539.42,527.39
41.1228,537.94,522.11
41.1433,538.15,517.89
41.1637,534.92,513.11
41.1842,529.54,508.49
41.2087,527.03,504.79
41.2292,526.42,503.23
41.25,527.94,505.39
41.2705,527.95,509.71
41.2906,525.16,514.97
41.3112,525.73,520.77
41.3357,524.78,528.62
41.3562,522.43,537.7
41.3766,521.54,549.56
41.3972,521.43,565.85
41.4177,523.15,595.28
41.4422,524.32,631.62
41.4626,531.85,668.7
41.4831,543.08,698.36
41.5036,557.87,720.89
41.5241,573.09,733.11
41.5446,585.87,741.49
41.5691,597.3,744.99
41.5896,602.44,747.59
41.6101,603.15,746.27
41.6305,597.32,740.42
41.651,588.66,724.54
41.6756,577.73,701.83
41.696,564.18,669.26
41.7166,550.34,630.21
41.7371,538.08,580.97
41.7575,528.86,520.77
41.778,519.29,452.22
41.8025,511.03,383.58
41.8231,502.82,328.46
41.8436,492.46,295.17
41.864,482.97,280.73
41.8845,479.17,279.19
41.909,477.94,287.35
41.9295,479.55,300.88
41.95,479.84,318.5
41.9705,481.67,341
41.9912,486.74,362.4
42.0115,490.59,384.52
42.036,494.07,404.62
42.0566,495.66,422.69
42.077,497.13,437.96
42.0975,496.7,449.76
42.118,499.96,459.61
42.1385,502.37,466.89
42.1632,503.5,470.91
42.1836,504.8,472.73
42.204,506.84,473.18
42.2246,507.87,473.75
42.245,507.9,475.4
42.2695,510.72,477.52
42.2902,512.77,481.01
42.3106,515.82,486.61
42.331,516.25,494.29
42.3514,518,501.03
42.372,519.2,509.03
42.3965,520.96,515.02
42.4171,520.57,519.22
42.4376,521.06,522.77
42.458,520.24,525.02
42.4784,519.4,525.01
42.5029,521.32,523.01
42.5234,520.65,520.01
42.544,519.92,516.61
42.5645,520.14,511.29
42.585,521.11,506.23
42.6055,521.89,503.38
42.6299,520.11,503.11
42.6505,521.09,504.69
42.6709,522.87,507.95
42.6915,524.3,513.16
42.7119,523.64,517.33
42.7364,522.91,523.66
42.7569,516.73,528.13
42.7774,502.18,530.3
42.7979,485.55,531.24
42.8183,475.24,530.59
42.8388,469.19,527.28
42.8634,467.15,523.02
42.8839,467.72,517.62
42.9044,470.38,512.49
42.9248,473.5,507.39
42.9453,477.2,504.12
42.9658,481.96,502.89
42.9903,486.37,504.11
43.0111,490.1,507.49
43.0313,491.28,512.79
43.0518,492.22,519.43
43.0723,494.78,524.75
43.0968,496.62,530
43.1174,499.3,533.6
43.1379,500.04,534.28
43.1584,501.83,533.22
43.1788,503.46,531.38
43.2001,504.77,527.1
43.2238,506.42,523.48
43.2444,509.53,518.59
43.2648,511.03,513.47
43.2853,512.62,508.77
43.3058,515.5,506.02
43.3303,516.2,504.62
43.3508,516.56,505.49
43.3714,517.65,508.19
43.3919,518.72,512.56
43.4122,518.57,516.24
43.4328,519.46,522
43.4572,518.57,523.8
43.4778,517.65,525.84
43.4983,523.12,527.27
43.5187,526.3,527.22
43.5394,526.64,524.97
43.5637,528.11,520.98
43.5842,530.29,517.98
43.6048,532.23,514.79
43.6252,531.78,510.83
43.6458,530.43,507.86
43.6664,530.54,505.89
43.6908,529.63,505.71
43.7113,529.71,506.57
43.7317,528.37,510.66
43.7523,526.29,514.92
43.7727,528.23,520.14
43.7972,527.19,525.11
43.8177,526.15,529.09
43.8382,524.52,531.67
43.8587,523.42,532.54
43.8793,522.73,532.03
43.8997,522.19,529.22
43.9242,521.35,524.38
43.9448,521.68,519.5
43.9652,521.94,513.8
43.9856,522.35,508.84
44.0062,522.88,505.67
44.0306,523.71,503.94
44.0511,523.77,504.95
44.0717,524.21,507.36
44.0923,523.77,511.89
44.1127,523.62,516.91
44.1332,523.09,522.13
44.1576,521.47,527.5
44.1782,521.58,531.6
44.1988,522.66,532.88
44.2192,521.93,532.71
44.2397,522.34,531.56
44.2602,522.28,528.85
44.2846,522.42,524.08
44.3051,522.34,519.47
44.3257,520.67,514.77
44.3462,521.14,510.82
44.3666,521.71,508.45
44.3911,522.17,507.56
44.4116,522.13,508.85
44.4322,523.11,511.48
44.4527,523.09,517.18
44.4732,522.27,522.75
44.4935,523.61,527.8
44.5182,523.29,532.24
44.5386,523.83,538.59
44.5592,523.27,544.47
44.5795,525.21,545.98
44.6001,528.37,544.78
44.6245,532.3,540.83
44.6451,532.84,535.66
44.6656,532.67,529.93
44.686,532.54,523.54
44.7066,532.03,518.43
44.7271,530.82,514.95
44.7516,530.86,512.36
44.7721,530.09,512.89
44.7926,531.07,516.31
44.8132,530.26,520.25
44.8335,528,524.8
44.858,528.2,529.64
44.8786,526.76,532.91
44.8991,526.01,534.73
44.9196,524.81,534.18
44.94,524.05,532.35
44.9605,523.64,529.28
44.985,523.11,525.22
45.0055,523.29,521.58
45.0261,522.63,517.86
45.0465,522.7,513.89
45.0669,523.16,508.51
45.0915,521.13,504.81
45.112,527.9,504.05
45.1325,542.92,505.84
45.153,552.94,509.27
45.1736,559.15,514.42
45.194,561.52,519.33
45.2184,562.02,523.47
45.2392,561.01,527.77
45.2594,558.21,528.22
45.28,555.97,528.57
45.3004,553.77,525.86
45.3249,550.22,523.49
45.3454,547.38,519.59
45.366,543.7,514.87
45.3865,539.36,509.5
45.4069,536.89,505.4
45.4275,535.71,503.12
45.452,535.17,502.49
45.4725,534.53,503.4
45.493,533.83,507.52
45.5135,532.66,513.41
45.534,530.53,519.53
45.5584,529.42,525.02
45.579,528.74,528.62
45.5995,526.99,530.5
45.6199,524.79,530.2
45.6405,516.43,528.56
45.661,510.15,527.45
45.6854,507.32,522.96
45.7059,505.45,517.57
45.7264,506.96,511.45
45.7471,506.17,507.76
45.7674,506.34,505.41
45.7879,507.27,504.73
45.8124,508.02,504.18
45.833,509.01,504.95
45.8533,510.61,510.36
45.8739,513.09,517.89
45.8943,513.47,523.51
45.919,512.78,529.21
45.9394,512.62,531.57
45.9601,514.3,531.65
45.9804,515.44,531.92
46.0009,516.35,530.54
46.0213,517.08,527.23
46.0459,516.26,522.58
46.0664,514.81,516.87
46.0869,514.85,511.29
46.1074,516.68,507.83
46.1278,517.94,506.87
46.1523,518.15,506.89
46.1729,518.52,508.72
46.1933,519.42,512.37
46.2139,519.94,517.7
46.2343,521.75,524.96
46.2548,531,530.97
46.2793,539,535.17
46.2998,543.4,537.94
46.3203,544.32,538.75
46.3409,544.66,538
46.3612,544.12,535.6
46.3857,543.1,530.88
46.4062,540.68,525.9
46.4268,538.54,519.92
46.4473,537.23,514.74
46.4677,534.79,510.99
46.4883,533.83,509.59
46.5128,532.46,509.47
46.5332,531.37,510.98
46.5537,529.1,514.58
46.5744,528.08,519.67
46.5947,527.26,525.13
46.6193,526.41,529.51
46.6399,526.73,533.41
46.6603,526.18,535.92
46.6807,524.15,535.14
46.7012,523.72,534.11
46.7217,523.77,530.69
46.7463,523.62,525.35
46.7668,522.7,518.88
46.7873,523.36,512.9
46.8079,523.68,507.52
46.8282,523.95,505.22
46.8528,523.16,504.18
46.8733,523.13,503.94
46.8938,521.1,507.75
46.9143,520.68,512.6
46.9347,520.74,517.28
46.9553,521.6,521.83
46.9797,517.08,525.26
47.0004,508.66,527.41
47.0207,503.33,528.53
47.0413,501.06,529.02
47.0617,499.25,527.22
47.0823,499.4,524.37
47.1067,500.72,519.9
47.1273,501.58,515.72
47.1476,502.46,507.78
47.1682,504.37,499.22
47.1887,507.5,493.98
47.2132,510.2,492.78
47.2337,512.36,494.82
47.2544,514.69,499.06
47.2748,516.75,506.05
47.2952,517.6,511.84
47.3157,518.48,517.87
47.3402,518.18,523.7
47.3607,518.75,526.96
47.3811,517.4,528.97
47.4017,517.52,528.17
47.4223,517.21,525.54
47.4468,517.97,521.63
47.4672,517.58,517.3
47.4877,518.26,513.04
47.5082,518.61,509.03
47.5288,519.29,505.83
47.5492,517.83,504.66
47.5735,516.66,505.73
47.5942,515.13,508.98
47.6147,514.51,512.99
47.6352,513.8,517.39
47.6556,513.04,523.11
47.6802,513.43,528.29
47.7006,513.75,533.23
47.7212,514.6,535.99
47.7416,514.28,537.19
47.7621,522.02,535.15
47.7826,533.42,528.32
47.8071,540.53,524.06
47.8277,541.03,519.05
47.8482,541.82,515.24
47.8685,542.66,509.39
47.8892,541.93,507.51
47.9136,540.54,506.81
47.9342,539.23,509.45
47.9547,537.39,512.36
47.9752,537.31,516.89
47.9955,537.65,522.51
48.0161,535.32,528.01
48.0407,533.05,532.41
48.0612,530.44,534.92
48.0816,528.35,535.54
48.1021,526.08,535.43
48.1225,525.27,533.15
48.1471,524.41,528.92
48.1676,522.13,524.53
48.1881,520.9,518.43
48.2085,521.12,512.74
48.2291,520.9,510.39
48.2496,520.32,514.91
48.274,518.86,518.13
48.2945,522.48,522.71
48.3151,525.99,528.56
48.3356,526.39,533.25
48.356,526.51,537.6
48.3804,526.21,541.28
48.401,525.77,542.62
48.4215,523.61,541.9
48.4421,523.49,541.12
48.4624,523.19,538.5
48.4831,524.15,534
48.5075,524.32,528.8
48.528,522.26,522.84
48.5485,523.41,516.67
48.5689,523.93,510.94
48.5896,523.74,507.75
48.6098,522.19,507
48.6345,522.75,509.4
48.6551,522,509.92
48.6755,521.6,511.74
48.6961,513.88,514.19
48.7165,500.71,517.55
48.7409,487.56,521.24
48.7614,481.85,524.39
48.7819,477.28,526.31
48.8023,475.83,525.85
48.823,476.46,523.68
48.8434,479.37,520.74
48.868,482.09,518.2
48.8885,484.48,516.16
48.909,485.98,512.33
48.9294,487.18,509.86
48.95,488.35,509.29
48.9745,491.48,509.23
48.9949,494.98,511.98
49.0155,496.99,515.39
49.036,499.79,519.91
49.0564,501.63,524.93
49.077,504.3,529.34
49.1014,505.04,533.87
49.1221,506.64,535.3
49.1425,507.11,535.64
49.163,507.89,534.71
49.1834,509.71,531.57
49.2079,511.17,526.66
49.2285,510.33,520.52
49.2488,517.27,515.22
49.2695,521.21,510.58
49.2898,523.97,507.66
49.3104,525.78,506.73
49.3349,527.42,507.38
49.3554,528.14,510.51
49.3759,528.31,516
49.3964,528.25,522.8
49.4169,527.4,528.24
49.4415,527.72,531.99
49.4619,528.37,534.2
49.4823,527.5,535.16
49.5028,525.6,534.73
49.5234,524.88,532.38
49.5437,523.7,529.1
49.5683,522.76,524.88
49.5887,521.61,519.31
49.6094,520.89,512.45
49.6298,521.31,506.76
49.6503,521.45,503.61
49.6708,520.76,502.48
49.6954,520.01,503.39
49.7158,519.81,505.71
49.7364,519.64,510.97
49.7568,520.12,516.97
49.7772,519.09,523.18
49.8017,518.07,528.74
49.8224,518.66,531.79
49.8428,515.33,533.84
49.8634,512.66,533.87
49.8838,510.53,530.69
49.9044,510.42,527.36
49.9287,509.54,523.28
49.9494,509.83,518.63
49.9698,510.66,514.7
49.9902,512.73,511.56
50.0108,513.19,510.65
50.0353,514.35,511.12
50.0557,514.68,513.5
50.0762,514.14,517.6
50.0966,515.51,522.28
50.1171,516.21,527.82
50.1378,517.37,532.86
50.1621,517.9,536.29
50.1827,517.12,537.83
50.2031,518.09,538.46
50.2237,516.87,535.97
50.2441,516.9,531.98
50.2688,517.32,528.18
50.2891,517.66,522.54
50.3098,518.32,517.24
50.3302,516.46,512.39
50.3506,514.57,510.51
50.3711,514.65,509.41
50.3956,513.92,511.53
50.4161,514.34,514.82
50.4367,514.27,519.46
50.4571,514.42,524.17
50.4775,515.53,530.13
50.5021,516.43,534.71
50.5226,516.74,537.16
50.5431,517.39,537.33
50.5636,516.91,536.47
50.584,517.53,532.57
50.6045,517.23,527.46
50.629,520.38,521.97
50.6496,522.3,515.97
50.6701,523.84,510.38
50.6908,524.27,507.9
50.711,524.82,506.72
50.7355,525.06,507.78
50.7561,525.64,510.62
50.7766,526.52,515.3
50.7971,525.21,520.64
50.8176,524.97,526.91
50.838,523.58,531.93
50.8627,524.06,536.74
50.8831,522.45,538.79
50.9036,523.16,539.04
50.9241,523.13,536.83
50.9445,521.7,533.66
50.969,521.76,528.93
50.9896,522.01,523.74
51.01,520.81,518.2
51.0305,520.25,514.36
51.051,520.2,511.29
51.0715,520.76,510.23
51.096,520.41,512.18
51.1165,520.32,516.15
51.137,519.66,520.72
51.1574,519.73,524.97
51.178,519.58,530.18
51.2024,519.27,535.14
51.223,519.21,537.91
51.2436,518.17,539.73
51.2641,517.34,538.99
51.2845,516.47,534.99
51.305,516.18,529.79
51.3295,516.74,524.63
51.3499,518.59,518.51
51.3706,519.67,513.6
51.3909,519.14,510.08
51.4114,520.11,507.67
51.432,520.89,508.13
51.4564,521.11,510.91
51.477,521.49,515.73
51.4974,521.19,522.58
51.518,520.75,527.06
51.5383,520.6,533.05
51.5629,520.68,537.84
51.5835,520.35,540.67
51.6039,521.08,540.54
51.6245,518.86,538.43
51.6448,517.89,535.34
51.6654,519.11,531.48
51.6899,517.89,526.18
51.7105,518.51,520.34
51.7308,520.41,514.88
51.7514,520.93,512.1
51.7719,520.54,511.08
51.7963,522.23,511.06
51.8168,522.19,515.05
51.8376,521.75,520.04
51.8579,521.8,525.03
51.8784,521.44,529.83
51.8989,521.55,533.66
51.9234,520.64,535.73
51.9439,520.51,536.78
51.9644,520.21,535.83
51.9849,519.97,532.46
52.0053,518.97,530.37
52.0298,518.98,529.9
52.0504,516.98,531.52
52.0709,522.59,533.61
52.0918,536.47,534.09
52.1118,552.18,532.67
52.1323,563.54,531.34
52.1569,568.63,530.47
52.1773,569.31,530.38
52.1978,568.64,531.7
52.2183,565.72,533.36
52.2388,561.77,535.89
52.2632,558.42,538.31
52.2838,554.13,538.85
52.3043,550.31,536.88
52.3248,546.85,534.1
52.3453,543.08,530.28
52.3658,539.06,523.63
52.3903,538.05,517.5
52.4108,536.44,510.8
52.4314,535.75,506.04
52.4518,535.2,500.83
52.4723,534.36,499.07
52.4967,532.49,500.45
52.5174,531.99,504.36
52.5377,530.79,509.29
52.5583,530.03,514.03
52.5788,527.43,517.63
52.5992,523.94,518.3
52.6237,522.55,518.64
52.6444,522.04,519.71
52.6647,522.83,520.37
52.6854,522.67,518.9
52.7057,521.13,517.92
52.7262,518.51,515.73
52.7507,519.01,511.99
52.7712,519.4,508.79
52.7917,519.32,506.43
52.8122,520.26,504.55
52.8327,521.81,506.04
52.8571,522.25,508.83
52.8776,522.2,513.86
52.8983,521.96,519.49
52.9187,521.57,524.79
52.9393,521.65,531.03
52.9597,521.12,534.03
52.9842,520.1,536.42
53.0047,520.28,537.74
53.0252,519.82,539.59
53.0457,520.26,542.47
53.0661,521.61,541.98
53.0906,522.09,540.78
53.1112,522.27,535.43
53.1317,521.61,530.14
53.1521,521.89,525.91
53.1726,522.11,523.53
53.1931,522.09,522.02
53.2176,522.47,523.42
53.2382,522.18,526.94
53.2586,522.14,531.75
53.2791,520.71,536.2
53.2996,520.97,539.16
53.324,520.58,541.33
53.3447,520.86,541.46
53.3651,521.29,540.97
53.3856,520.43,538.38
53.4062,520.55,534.3
53.4266,520.04,528.44
53.451,520.63,522.95
53.4716,520.7,517.76
53.4922,521.36,514.21
53.5125,520.49,511.97
53.533,520.19,511.97
53.5576,520.75,516.38
53.5781,521.6,526.3
53.5988,520.28,539.84
53.6191,520.63,547.87
53.6396,522.7,555.9
53.66,519.36,557.52
53.6846,518.49,553.22
53.7052,519.79,546.77
53.7257,520.03,534.22
53.746,524.23,524.37
53.7665,519.98,510.7
53.791,520.38,493.96
53.8116,519.31,476.77
53.8323,517.85,460.21
53.8526,513.68,445.17
53.873,509.14,433.34
53.8937,504.91,427.67
53.9182,498.73,425.34
53.9385,495.38,426.47
53.9591,493.31,432.17
53.9797,493.45,440.94
54,493.96,451.55
54.0245,495.57,464.64
54.0452,498.05,480.71
54.0657,502.04,499.77
54.086,503.43,524.62
54.1066,506.95,563.29
54.1269,514.96,615.23
54.1514,526.37,667.39
54.172,541.69,709.51
54.1924,561.15,736.41
54.213,580.72,755.13
54.2336,599.18,767.1
54.2541,616.94,772.68
54.2785,628.55,774.34
54.2991,635.44,771.28
54.3195,638.15,764.62
54.3399,634.32,752.7
54.3605,627.06,732.76
54.385,615.45,705.01
54.4054,600.76,667.6
54.4261,585.41,617.68
54.4467,568.13,552.55
54.4671,548.7,482.24
54.4874,525.36,415.99
54.5119,499.09,368.59
54.5326,476.27,342.67
54.553,460.02,334.34
54.5736,450.61,334.27
54.594,446.09,341.82
54.6185,447.27,355.85
54.639,449.42,372.08
54.6595,455.33,390.87
54.6799,458.07,410.69
54.7004,463.45,429.35
54.7209,469.96,444.28
54.7455,477.97,456.03
54.7661,481.78,466.02
54.7866,484.02,474.62
54.807,488.22,479.49
54.8275,495.37,482.2
54.8519,502.3,483.36
54.8724,503.44,483.08
54.893,503.55,482.87
54.9134,507.04,479.49
54.934,510.83,479
54.9544,516.47,480.8
54.9788,518.97,485.84
54.9993,518.78,492.67
55.0198,517.22,499.94
55.0404,517.18,507.75
55.0609,516.54,514.6
55.0814,517.83,518.08
55.1059,517.07,518.66
55.1265,516.85,522.93
55.147,516.28,524.34
55.1675,515.63,527.48
55.1878,516.1,527.98
55.2124,517.28,525.98
55.233,520.02,522.19
55.2536,518.22,520.95
55.2739,519.38,516.36
55.2943,519.9,513.49
55.3149,519.72,511.99
55.3393,519.98,515.59
55.3598,520.18,522.07
55.3802,522.95,528.26
55.4008,522.56,531.21
55.4214,522.04,534.77
55.4459,523.04,537.41
55.4664,520.83,537.73
55.4869,519.66,536.78
55.5074,519.73,532.43
55.5277,522.18,529.14
55.5483,521.55,522.71
55.5728,519.04,516.57
55.5934,519.63,510.86
55.6137,518.5,507.69
55.6343,517.4,506.95
55.6547,516.92,506.36
55.6794,515.94,508.09
55.6997,515.35,511.27
55.7204,509.28,515.22
55.7407,502.22,519.77
55.7612,499.78,526.42
55.7818,497.22,529.53
55.8063,496.18,530.03
55.8268,497.54,531.82
55.8474,499.23,527.66
55.8678,497.39,524.13
55.8882,499.11,523.5
55.9128,494.49,520.6
55.9332,492.59,514.08
55.9538,520.67,507.46
55.9742,533.94,494.57
55.9948,485.55,501.86
56.0152,484.44,496.89
56.0396,496.75,499.11
56.0602,506.6,507.49
56.0808,495.88,510.19
56.1012,472.11,520.55
56.1218,467.08,522.64
56.1423,480.67,521.31
56.1667,462.93,521.05
56.1873,468.35,521.04
56.2078,468.08,519.83
56.2283,478.06,517.87
56.2487,490.05,512.49
56.2732,497.84,507.39
56.2938,503.27,502.12
56.3142,507.02,498.49
56.3347,512.01,499.99
56.3553,515.21,500.4
56.3756,520.37,503.72
56.4001,520.5,509.97
56.4208,523.6,516.78
56.4411,525.88,525.62
56.4617,526.9,532.7
56.4821,522.72,539.16
56.5066,519.58,539.33
56.5272,520.26,539.26
56.5476,517.21,536.41
56.5681,518.17,532.73
56.5886,518.53,526.98
56.6091,521.03,520.19
56.6337,522.62,513.35
56.6542,525.1,507.48
56.6747,526.48,503.58
56.6951,529.18,505.27
56.7157,531.15,505.21
56.7401,535.52,507.37
56.7605,538.01,513.9
56.7812,539.21,523.12
56.8015,543.37,523.49
56.822,542.89,518.6
56.8425,529.92,519.28
56.867,505.73,513.02
56.8875,508.79,502.02
56.9082,503.83,504.41
56.9286,497.86,506.73
56.9493,507.69,505.18
56.9736,521.35,507.95
56.9941,515.68,504.16
57.0146,514.15,501.93
57.0351,511.32,501.54
57.0557,521.65,503.03
57.0761,515.52,508.63
57.1006,520.82,512.7
57.1211,518.65,519.96
57.1416,522.92,524.57
57.1621,525.14,531.46
57.1825,519.91,534.96
57.207,518.33,537.97
57.2275,515.66,539.98
57.2481,517.33,540.98
57.2686,518.26,538.19
57.289,524.21,533.15
57.3096,527.17,527.32
57.334,529.54,521.05
57.3545,530.83,514.64
57.375,531.86,510.12
57.3956,532.29,507.49
57.4159,531.03,506.79
57.4363,528.83,505.83
57.461,529.86,505.87
57.4816,541.29,509.49
57.5019,558.23,513.8
57.5225,574.78,518.64
57.543,580.03,523.11
57.5674,579.82,525.09
57.588,575.46,525.27
57.6086,568.97,525.22
57.629,565.17,521.77
57.6494,560.34,518.42
57.67,554.27,513.73
57.6944,549.62,507.39
57.7149,542.29,502.51
57.7354,535.63,501.61
57.7559,530.71,501.09
57.7763,529.57,502.67
57.8008,524.65,506.94
57.8214,520.52,512.35
57.8421,518.22,518.68
57.8625,515.57,524.14
57.8829,515.06,528.71
57.9034,511.85,531.77
57.9279,510.88,533.02
57.9485,511.1,532.21
57.9689,510.48,529.17
57.9894,510.79,524.94
58.01,510.23,520.15
58.0343,510.78,514.72
58.0548,511.03,509.78
58.0754,511.42,506.22
58.0959,511.74,504.58
58.1164,513.59,504.46
58.1368,513.87,506.17
58.1614,513.1,510.54
58.182,513.08,516.83
58.2025,514.06,523.06
58.2229,513.85,529.45
58.2434,515.48,535.16
58.2678,520.18,537.13
58.2884,525.55,537.7
58.3089,526.64,536.76
58.3294,529.31,533.61
58.3498,528.25,529.29
58.3704,527.6,523.03
58.3948,528.08,517.42
58.4152,527.26,512.14
58.4358,527.21,509.31
58.4564,527.77,508.25
58.4767,528.21,509.6
58.5014,527.17,512.68
58.5219,526.34,517.54
58.5423,524.47,523.03
58.5628,524.38,528.03
58.5834,520.9,532.42
58.6037,518.92,535.54
58.6284,519.74,536.43
58.6489,520.79,535.34
58.6694,519.23,530.68
58.6899,519.39,525.74
58.7101,516.91,519.99
58.7347,512.53,514.19
58.7552,507.82,508.96
58.7757,505.26,504.56
58.7962,506.01,502.45
58.8167,508.2,503.56
58.8371,507.16,506.25
58.8616,506.33,511.4
58.8822,506.26,517.12
58.9026,507.81,522.9
58.9232,509.25,528.52
58.9437,510.4,532.41
58.9641,509.72,534.93
58.9886,511.18,536.54
59.0092,510.74,534.24
59.0297,511.79,530.39
59.0501,512.63,525.51
59.0706,513.11,519.81
59.0952,514.29,514.45
59.1157,515.03,508.56
59.1361,514.22,503.65
59.1566,514.58,503.32
59.1772,515.46,504.05
59.1976,517.37,507.24
59.2221,517.7,512.19
59.2426,518.16,518.56
59.2631,518.13,524.84
59.2837,518.1,531.08
59.304,517.68,533.66
59.3286,516.14,536.73
59.3493,513.92,536.78
59.3696,515.93,534.83
59.3901,515.75,530.86
59.4106,515.4,526.49
59.431,514.52,520.99
59.4558,517.01,515.19
59.4761,518.81,510.75
59.4966,520.85,508
59.5171,521.88,507.6
59.5375,521.3,507.88
59.562,522.84,511.91
59.5826,523.07,517.52
59.6033,522.26,522.42
59.6235,521.41,527.34
59.644,519.93,531.07
59.6645,519.74,533.05
59.689,519.59,533.24
59.7096,519.67,532
59.73,519.34,529.2
59.7505,517.87,525.96
59.771,518.5,520.57
59.7954,519.2,515.65
59.816,519.56,509.52
59.8365,520.65,505.42
59.857,520.72,503.93
59.8774,521.97,504.35
59.898,521.18,506.88
59.9225,520.94,511.5
59.9429,520.95,517.4
59.9635,520.56,523.52
59.9839,519.05,530.02
60.0046,517.84,535.21
60.0289,517.67,538.37
60.0494,516.34,538.7
60.07,515.67,536.16
60.0905,514.74,531.53
60.111,512.99,525.62
60.1315,514.19,519.7
60.1559,515.75,513.56
60.1764,515.6,508.45
60.1969,515.48,505.76
60.2174,515.19,504.81
60.2379,514.35,506.24
60.2584,515.28,509.4
60.2829,515.42,514.12
60.3034,516.94,519.89
60.3239,516.15,524.71
60.3444,515.72,529.37
60.3649,515.18,532.1
60.3894,515.14,532.88
60.4099,514.91,532.7
60.4304,515.13,529.56
60.4509,515.5,524.85
60.4714,515.4,520.28
60.4918,516.52,515.02
60.5164,517.82,509.22
60.5369,518.05,505.98
60.5573,518.44,503.78
60.5779,519.35,503.42
60.5984,519.88,506.54
60.6228,519.91,512.23
60.6434,520.13,517.79
60.6639,519.5,523.83
60.6844,519.8,528.46
60.7049,519.24,531.77
60.7253,518.19,534.82
60.7499,518.35,535.05
60.7704,518.88,534.44
60.7908,518.11,531.35
60.8114,518.49,526.48
60.8319,519.39,520.59
60.8563,522.51,514.67
60.8768,529.61,509.54
60.8973,537.29,505.83
60.9178,541.23,503.66
60.9383,542.38,504.33
60.9588,543.71,508.86
60.9833,544.17,513.89
61.0039,541.53,519.91
61.0243,539.63,525.93
61.0449,537.9,531.54
61.0653,535.92,534.64
61.0898,533.34,534.91
61.1102,530.67,533.73
61.1308,529.94,530.98
61.1513,527.35,526.39
61.1717,526.88,521.71
61.1923,524.7,516.77
61.2168,525.96,509.61
61.2374,525.57,503.89
61.2578,527.46,501.51
61.2782,528.16,500.81
61.2987,528.73,502.85
61.3232,528.99,507.28
61.3438,527.59,513.02
61.3643,526.07,518.82
61.3848,524.46,525.45
61.4053,523.37,529.56
61.4257,523.69,531.05
61.4502,522.55,531.84
61.4707,521.64,531.67
61.4912,520.11,529.34
61.5117,522.29,525.07
61.5323,526.43,520.86
61.5567,528.75,515.89
61.5773,529.4,510.91
61.5978,529.72,506.93
61.6183,529.57,504.34
61.6389,529.86,505.27
61.6591,529.49,508.42
61.6836,527.79,514.33
61.7042,526.03,520.47
61.7248,524.63,526.57
61.7451,524.5,531.06
61.7657,524.2,534.25
61.7862,522.36,535.2
61.8108,520.29,534.76
61.8314,519.63,532.81
61.8518,519.5,527.25
61.8722,519.4,522
61.8927,518.12,516
61.9172,519.1,510.2
61.9377,519.88,505.76
61.9582,519.9,503.41
61.9788,519.32,503.73
61.9991,519.26,504.98
62.0196,519.21,509.18
62.0442,519.77,514.55
62.0646,519.41,520.84
62.0851,518.33,526.27
62.1057,518.06,531.02
62.1262,517.65,533.21
62.1506,517.32,533.57
62.1711,516.46,532.46
62.1918,516.17,528.77
62.2122,516.33,524.41
62.2326,517.27,518.73
62.2531,517.21,513.78
62.2777,517.97,508.03
62.2981,519.58,504.22
62.3186,520.66,502.18
62.3391,520.53,502.94
62.3596,520.02,506.15
62.384,522.22,511.52
62.4046,522.37,517.82
62.4253,521.3,524.05
62.4456,519.44,528.64
62.4661,518.55,532.52
62.4865,519.64,535.81
62.5111,520.91,536.25
62.5316,521.13,534.6
62.5521,520.7,531.08
62.5726,521.16,526.66
62.5931,522.73,521.53
62.6175,522.98,515.02
62.6382,522.99,510.62
62.6586,522.19,507.9
62.679,523.15,506.72
62.6996,523.32,508.77
62.72,522.86,512.22
62.7446,522.29,518.17
62.7651,521.63,523.54
62.7856,520.7,529.23
62.8061,519.56,534.39
62.8266,519.05,536.71
62.851,518.44,536.57
62.8716,517.55,535.45
62.8921,517.44,532.16
62.9125,518.15,527.33
62.933,517.92,521.46
62.9535,518.34,514.77
62.9779,519.27,509.02
62.9985,519.02,505.21
63.019,519.81,504.17
63.0396,519.05,504.94
63.06,519.24,507.15
63.0844,520.39,511.52
63.105,521.51,517.22
63.1255,521.41,522.97
63.146,519.13,527.38
63.1665,518.5,531.1
63.1869,518.4,533.08
63.2114,517.92,533.47
63.232,516.94,533.57
63.2525,516.15,530.86
63.273,517.72,526.29
63.2934,518.98,521.63
63.3139,520.98,514.9
63.3384,522.18,510.12
63.359,522.35,506.7
63.3794,523.48,505.56
63.4001,523.58,507.25
63.4204,523.47,510.8
63.445,522.97,515.44
63.4655,520.98,520.55
63.4859,520.58,525.64
63.5064,520.27,530.31
63.527,519.81,534.65
63.5473,520.05,539.32
63.5719,519.44,542.86
63.5924,518.15,541.48
63.613,518.92,536.59
63.6333,519.34,530.47
63.6539,518.87,524.98
63.6784,519.5,518.98
63.6988,519.8,514.18
63.7194,519.44,512.35
63.7399,521.15,511.28
63.7604,522.32,512.02
63.7809,521.66,515.62
63.8053,521.12,519.89
63.8258,519.7,524.92
63.8463,518.96,530.13
63.8668,520.37,534.11
63.8873,520.49,535.68
63.9118,520.6,534.35
63.9323,521.08,532.08
63.9529,519.06,528.26
63.9733,518.45,524.21
63.9938,517.56,517.97
64.0143,515.65,511.17
64.0388,511.12,503.94
64.0593,503.29,499.95
64.0798,496.64,497.96
64.1003,493.91,496.77
64.1208,493.93,501.02
64.1453,495.94,508.01
64.1658,494.35,516.41
64.1864,494.88,522.93
64.2069,497.51,528.14
64.2273,497,532.71
64.2478,496.2,534.57
64.2723,494.96,534.46
64.2928,493.37,533.77
64.3133,493.9,529.01
64.3337,495.52,523.81
64.3543,498.01,517.45
64.3788,499.21,512.16
64.3992,501.97,506.93
64.4197,504.78,504.14
64.4403,505.82,503.31
64.4608,508.46,504.45
64.4813,510.36,508.96
64.5058,513.09,515.37
64.5262,515.87,521.89
64.5467,516.7,529.92
64.5672,516.96,534.93
64.5876,518.17,537.75
64.6082,520.53,538.8
64.6328,522.23,538.44
64.6533,521.98,535.15
64.6738,520.59,529.72
64.6943,521.87,520.18
64.7147,523.69,509.14
64.7393,532.36,502.31
64.7597,544.28,501.25
64.7802,546.63,498.8
64.8007,548.9,499.04
64.8213,547.92,500.03
64.8417,546.14,503.03
64.8662,543.11,507.02
64.8867,540.89,511.42
64.9072,537.71,515.33
64.9276,534.77,518.27
64.9481,532.01,521.61
64.9728,528.41,523.49
64.9931,527.93,521.79
65.0137,525.14,516.63
65.0342,524.91,512.11
65.0546,525.73,509.89
65.0751,526.19,507.11
65.0997,519.55,502.69
65.1202,508.44,500.55
65.1407,501.95,500.64
65.1612,499.36,501.31
65.1818,499.69,504.05
65.206,502.75,507.64
65.2267,506.6,512.71
65.2471,508.88,518.17
65.2675,509.9,523.34
65.2881,509.32,526.47
65.3085,510.66,527.37
65.333,512.53,526.1
65.3536,513.22,523.68
65.3741,512.18,519.34
65.3945,513.74,514.88
65.415,515.59,510.3
65.4395,512.67,506.44
65.46,511.34,502.55
65.4805,510.87,501.24
65.501,510.7,500.59
65.5215,509.96,503.07
65.5421,509.77,506.26
65.5665,510.61,511.81
65.587,513.69,517.05
65.6075,513.35,522.44
65.628,514.88,526.35
65.6485,516.91,528.48
65.669,517.52,528.18
65.6935,518.82,526.35
65.714,517.46,523.48
65.7345,516.56,518.78
65.755,515.45,515.03
65.7754,515.96,510.42
65.8,516.77,505.94
65.8205,516.02,504.15
65.8411,516.01,502.52
65.8615,517.81,504.82
65.882,518.25,508.45
65.9024,518.8,513.96
65.927,519.64,519.17
65.9476,520.11,524.14
65.9681,519.49,528.91
65.9886,521.39,532.73
66.0089,520.91,534.78
66.0334,520.53,534.43
66.0539,520.22,534.34
66.0745,519.78,532.47
66.095,520.42,528.18
66.1154,521.34,523.34
66.1359,521.47,519.07
66.1605,520.58,515.06
66.181,521.06,512.65
66.2014,522.05,512.12
66.222,521.64,513.49
66.2424,521.91,516.6
66.2668,523.13,521.08
66.2875,521.9,526.06
66.3079,522.52,530.65
66.3284,522.42,534.12
66.349,521.13,535.5
66.3694,519.91,534.6
66.3939,520.53,533.48
66.4144,523.42,531.18
66.435,523.14,527.35
66.4553,521.51,524.68
66.4759,521.41,519.54
66.5003,522.13,514.43
66.5209,523.1,510.95
66.5413,522.08,508.96
66.5618,522.86,508.77
66.5824,521.49,511.61
66.6029,520.99,515.89
66.6273,520.59,520.51
66.6479,521.08,526.61
66.6684,523.06,532.49
66.6889,520.85,540.19
66.7093,519.68,554.95
66.7338,518.34,594.56
66.7545,517.87,652.65
66.7748,520.9,703.72
66.7953,528.72,744.98
66.8158,539.78,4.04558e-29
66.8363,550.02,7.41287e-43
