Program Time [s],data 0,data 1
4.74021,505.33,579.40
4.75918,506.78,579.95
4.77898,507.47,583.75
4.80068,508.45,579.48
4.81946,509.71,579.88
4.84038,512.31,579.09
4.86118,507.76,580.75
4.88039,507.52,578.45
4.89989,506.64,577.95
4.92150,508.16,577.06
4.94031,507.12,573.52
4.96040,505.11,574.68
4.98047,506.11,573.86
5.00212,505.00,576.36
5.02110,503.33,575.72
5.04291,500.98,578.84
5.06334,502.38,577.92
5.08331,500.71,577.67
5.10270,498.74,577.12
5.12253,497.45,573.93
5.14252,500.40,576.18
5.16281,498.75,573.67
5.18349,500.75,572.80
5.20363,502.02,573.65
5.22265,501.56,570.50
5.24386,497.60,567.45
5.26322,497.42,565.91
5.28419,495.99,560.51
5.30320,498.65,559.77
5.32486,496.32,559.23
5.34470,493.81,556.12
5.36340,493.25,559.79
5.38351,493.67,558.36
5.40330,495.41,561.35
5.42318,494.76,564.27
5.44353,490.68,562.44
5.46468,491.58,562.94
5.48323,491.44,565.37
5.50454,489.59,565.37
5.52465,492.20,570.43
5.54362,493.85,568.27
5.56305,491.84,565.07
5.58349,492.26,564.27
5.60429,496.13,563.32
5.62466,497.94,566.58
5.64447,500.68,566.27
5.66428,499.56,562.11
5.68428,500.17,564.54
5.70325,498.53,561.95
5.72403,499.15,561.20
5.74288,498.64,559.11
5.76448,499.19,561.90
5.78453,498.62,562.20
5.80346,497.49,564.43
5.82434,492.06,566.55
5.84299,493.08,566.92
5.86358,495.14,567.46
5.88439,492.02,569.68
5.90301,492.21,574.32
5.92411,492.76,575.46
5.94458,496.58,578.65
5.96418,498.03,579.48
5.98326,496.85,579.38
6.00347,498.34,579.12
6.02426,500.29,578.08
6.04288,501.45,578.49
6.06352,500.70,574.10
6.08288,504.28,573.48
6.10329,504.19,570.74
6.12387,505.62,567.35
6.14467,504.40,570.35
6.16456,501.61,581.90
6.18280,498.62,595.09
6.20404,497.02,609.46
6.22378,495.40,612.61
6.24365,493.16,611.20
6.26374,492.92,609.10
6.28356,492.33,604.78
6.30472,489.71,599.33
6.32495,489.35,596.28
6.34436,490.80,589.01
6.36395,491.64,583.13
6.38416,492.60,582.74
6.40484,494.72,578.00
6.42444,493.38,576.78
6.44404,496.01,573.92
6.46344,495.81,569.90
6.48337,498.22,572.20
6.50439,496.93,567.71
6.52413,497.67,571.56
6.54393,497.25,568.46
6.56442,499.60,569.58
6.58448,496.68,571.00
6.60337,498.91,569.24
6.62420,501.37,567.89
6.64314,501.20,569.92
6.66388,499.42,569.19
6.68289,499.11,564.84
6.70446,502.05,565.66
6.72383,501.46,565.64
6.74370,502.17,567.10
6.76405,498.44,566.01
6.78318,500.78,565.69
6.80385,502.01,562.16
6.82404,499.92,562.51
6.84391,499.30,562.02
6.86509,500.08,560.49
6.88515,499.23,545.92
6.90477,501.19,529.48
6.92538,496.95,509.01
6.94387,496.91,488.63
6.96500,496.23,472.54
6.98446,496.51,458.18
7.00472,497.13,453.76
7.02517,494.30,449.32
7.04478,492.40,450.60
7.06430,493.13,453.18
7.08486,491.41,461.63
7.10445,493.92,470.84
7.12411,493.85,478.28
7.14412,491.58,484.56
7.16528,490.58,493.02
7.18447,495.07,501.82
7.20403,494.92,508.77
7.22509,494.15,519.64
7.24555,495.34,527.26
7.26551,494.86,532.31
7.28487,496.05,537.65
7.30558,495.93,541.29
7.32636,497.21,547.12
7.34585,496.18,549.04
7.36678,500.17,552.77
7.38549,499.02,557.75
7.40515,497.42,556.59
7.42651,500.34,560.41
7.44486,499.15,563.57
7.46669,497.92,564.03
7.48513,499.95,565.90
7.50624,499.85,568.57
7.52677,500.48,571.57
7.54549,497.56,571.70
7.56471,499.43,571.21
7.58665,496.58,571.60
7.60574,496.59,571.86
7.62561,499.34,572.38
7.64563,499.65,571.40
7.66529,500.87,567.71
7.68568,499.76,569.97
7.70605,499.56,570.80
7.72618,498.95,567.50
7.74627,499.11,578.70
7.76521,502.03,601.91
7.78550,503.45,640.26
7.80649,509.22,687.10
7.82608,510.80,720.35
7.84575,513.00,737.44
7.86568,512.46,742.98
7.88497,508.77,733.94
7.90615,508.58,719.15
7.92491,505.81,701.22
7.94553,502.60,680.04
7.96643,499.29,665.78
7.98570,502.16,652.49
8.00550,500.29,640.23
8.02507,498.91,630.29
8.04619,501.10,619.24
8.06483,498.02,612.65
8.08522,497.75,606.06
8.10514,498.40,600.78
8.12568,497.62,597.84
8.14603,498.04,592.44
8.16645,500.00,591.66
8.18529,498.44,587.83
8.20657,500.88,583.85
8.22719,498.98,586.10
8.24637,499.68,583.07
8.26601,498.99,579.92
8.28711,501.56,579.69
8.30680,504.78,582.63
8.32560,504.67,579.63
8.34709,503.94,579.70
8.36721,501.66,584.02
8.38642,503.95,581.38
8.40612,502.50,578.95
8.42690,502.93,580.34
8.44774,504.10,579.31
8.46622,503.27,580.56
8.48607,504.31,581.87
8.50624,504.62,582.21
8.52748,502.87,580.24
8.54630,502.83,582.94
8.56700,503.19,580.78
8.58702,505.94,582.99
8.60743,505.26,579.28
8.62615,505.27,579.90
8.64724,504.61,579.25
8.66690,504.71,579.54
8.68704,503.07,581.97
8.70727,503.71,580.12
8.72679,503.23,576.92
8.74670,502.66,578.90
8.76700,503.05,573.84
8.78731,503.72,573.65
8.80616,504.25,573.18
8.82655,501.18,573.09
8.84759,503.54,577.24
8.86602,500.14,567.75
8.88588,501.36,553.92
8.90681,496.87,535.07
8.92570,497.02,511.44
8.94695,493.42,489.38
8.96628,491.08,469.21
8.98679,489.37,457.57
9.00671,488.69,447.98
9.02711,488.66,445.90
9.04615,488.75,448.08
9.06636,489.38,450.01
9.08771,487.84,460.27
9.10616,492.51,469.08
9.12621,494.62,476.23
9.14656,494.33,490.10
9.16678,495.85,497.68
9.18595,495.76,506.53
9.20664,497.18,518.23
9.22746,498.10,525.65
9.24638,497.66,533.38
9.26664,500.93,539.89
9.28730,499.07,543.00
9.30706,501.49,549.42
9.32589,501.34,553.40
9.34625,501.87,558.51
9.36708,500.26,561.20
9.38647,500.40,565.67
9.40741,501.49,568.94
9.42592,503.64,568.69
9.44686,500.22,571.82
9.46702,500.59,574.31
9.48751,501.41,575.34
9.50629,501.27,573.41
9.52564,502.94,574.47
9.54652,501.89,577.56
9.56620,504.63,575.13
9.58702,504.68,577.79
9.60593,504.19,575.39
9.62768,506.63,580.09
9.64630,506.15,585.04
9.66792,510.15,588.69
9.68657,509.99,587.77
9.70781,508.36,589.12
9.72853,509.40,591.02
9.74707,510.62,589.43
9.76884,510.48,586.48
9.79003,508.25,596.80
9.81059,512.53,625.19
9.82869,516.60,658.04
9.84979,519.36,685.92
9.86872,518.93,715.63
9.89035,522.93,736.62
9.90966,521.70,740.21
9.92973,522.35,733.67
9.95063,519.64,721.38
9.96955,517.97,701.80
9.98996,516.95,688.59
10.00954,514.91,673.21
10.03035,513.90,658.76
10.04946,512.88,647.78
10.06970,514.01,639.09
10.08933,514.28,631.08
10.10879,510.12,620.30
10.13003,510.29,616.81
10.14954,510.53,610.70
10.16888,509.93,608.02
10.18994,507.74,602.41
10.21040,509.05,597.11
10.23030,507.02,596.47
10.25028,507.43,594.06
10.26984,507.63,590.48
10.29008,505.63,589.89
10.31032,505.72,588.24
10.33063,503.87,584.45
10.35061,504.27,585.07
10.36962,501.82,584.94
10.39001,502.02,585.38
10.40931,502.08,585.01
10.42963,504.79,582.07
10.44873,504.09,580.64
10.46986,503.21,583.16
10.48965,500.21,579.30
10.50874,499.41,579.22
10.53022,498.80,580.34
10.54892,501.65,581.15
10.57066,499.48,580.36
10.59018,501.22,578.33
10.60985,500.11,578.75
10.62924,500.37,577.89
10.65034,498.36,579.11
10.67016,499.04,580.36
10.68896,499.85,576.77
10.71053,501.12,576.80
10.72996,502.65,574.41
10.74943,504.91,576.14
10.76888,504.83,576.27
10.78924,503.90,584.14
10.81014,505.08,582.39
10.82870,503.53,574.68
10.84950,504.15,564.53
10.86914,500.46,546.04
10.88960,499.51,532.17
10.90907,495.84,512.98
10.93057,493.98,499.19
10.95017,493.89,483.89
10.97050,491.14,474.65
10.98960,491.41,463.13
11.00998,491.33,456.50
11.02970,491.85,452.13
11.04942,489.60,453.74
11.06971,491.44,459.45
11.08891,490.84,462.87
11.10936,495.04,469.72
11.13035,492.42,476.34
11.14992,493.93,484.14
11.16856,496.31,490.85
11.19069,497.47,501.54
11.20992,495.95,511.49
11.22887,499.15,519.57
11.24987,496.29,526.60
11.26977,497.32,534.84
11.29048,497.34,540.39
11.30940,498.52,545.23
11.32940,498.95,548.66
11.35001,498.14,552.70
11.36947,498.71,553.69
11.38913,499.78,556.77
11.41040,501.34,562.11
11.42883,497.43,562.16
11.44905,499.55,566.75
11.46970,499.55,568.20
11.49013,501.87,569.50
11.51054,500.50,568.59
11.52995,500.85,568.66
11.55066,500.92,571.76
11.56915,500.82,571.64
11.59009,499.47,571.32
11.61029,501.29,574.55
11.63021,503.31,575.53
11.65049,504.02,573.01
11.66863,503.58,574.09
11.69067,503.93,572.74
11.70880,503.12,575.32
11.72910,502.19,575.97
11.74996,501.12,574.83
11.77026,501.86,573.77
11.79007,501.67,577.21
11.80931,502.57,573.83
11.83005,501.12,577.31
11.85066,499.92,595.26
11.87021,502.68,622.38
11.88925,506.69,658.82
11.90895,508.62,697.79
11.92960,507.82,727.30
11.95039,506.98,752.83
11.96884,508.80,762.90
11.99053,507.62,759.03
12.01159,509.11,743.02
12.03069,505.65,723.75
12.05042,506.84,702.82
12.07098,502.83,685.22
12.09126,503.21,667.17
12.11081,501.28,649.61
12.13259,501.76,635.66
12.15103,500.08,624.44
12.17112,498.00,617.82
12.19153,496.99,609.58
12.21299,498.56,605.06
12.23208,499.04,598.30
12.25327,499.65,595.21
12.27200,496.08,588.64
12.29335,500.26,585.74
12.31210,499.72,581.76
12.33298,498.72,581.52
12.35175,498.09,580.25
12.37266,499.07,579.94
12.39279,499.20,576.16
12.41362,499.64,576.56
12.43346,503.46,575.44
12.45287,503.37,572.45
12.47377,505.93,568.74
12.49409,503.15,569.64
12.51429,505.44,568.53
12.53371,502.94,567.53
12.55426,500.76,570.53
12.57299,501.86,567.87
12.59413,501.12,566.53
12.61318,500.61,569.20
12.63447,503.29,568.77
12.65325,502.87,570.21
12.67286,501.66,570.76
12.69377,501.66,569.25
12.71456,502.89,567.90
12.73459,501.28,567.57
12.75312,502.05,570.98
12.77402,500.62,568.94
12.79486,500.14,567.31
12.81501,500.78,570.21
12.83529,501.18,570.34
12.85358,499.89,569.17
12.87460,498.61,565.55
12.89401,500.40,559.37
12.91451,500.37,557.02
12.93554,499.40,558.77
12.95488,497.48,557.30
12.97416,499.76,557.31
12.99533,500.11,559.88
13.01501,498.60,561.66
13.03546,500.82,564.22
13.05459,500.76,563.57
13.07419,502.61,565.51
13.09479,499.20,564.98
13.11416,500.82,565.49
13.13490,501.91,563.42
13.15469,503.09,558.04
13.17533,503.22,548.69
13.19498,501.55,536.29
13.21377,497.88,523.36
13.23484,499.10,509.73
13.25531,496.83,498.42
13.27557,493.08,487.00
13.29433,491.46,476.76
13.31408,491.28,471.55
13.33449,488.43,465.02
13.35396,489.59,466.98
13.37444,487.57,466.16
13.39363,486.51,471.14
13.41468,487.41,473.23
13.43531,491.45,477.69
13.45431,492.41,485.81
13.47431,492.51,491.58
13.49525,494.95,500.08
13.51549,498.22,508.34
13.53512,496.44,516.07
13.55403,498.00,520.39
13.57557,497.99,529.33
13.59481,496.82,535.64
13.61522,500.58,540.19
13.63470,498.00,543.52
13.65434,497.80,545.87
13.67526,497.10,549.16
13.69478,496.34,553.87
13.71400,495.95,555.40
13.73420,496.74,556.71
13.75383,498.46,557.72
13.77402,501.49,559.11
13.79567,505.44,560.08
13.81513,506.35,562.35
13.83603,506.35,563.20
13.85541,507.03,566.91
13.87513,506.26,565.75
13.89508,506.53,567.50
13.91524,505.42,569.73
13.93542,504.29,570.49
13.95516,505.51,571.74
13.97496,502.18,571.35
13.99687,504.52,572.26
14.01743,502.11,572.32
14.03703,504.36,573.62
14.05592,504.30,573.24
14.07688,504.52,575.57
14.09756,505.04,580.67
14.11689,502.01,579.67
14.13619,503.61,577.99
14.15705,505.50,582.13
14.17649,505.37,578.02
14.19675,505.82,577.68
14.21751,503.88,577.74
14.23700,503.92,578.23
14.25723,506.34,575.49
14.27680,504.18,576.01
14.29709,507.62,582.31
14.31716,509.72,607.80
14.33789,511.40,641.15
14.35734,511.42,674.37
14.37725,509.31,705.33
14.39750,511.02,721.26
14.41825,511.54,735.68
14.43814,512.46,742.02
14.45821,510.17,732.20
14.47658,513.04,720.47
14.49720,510.01,702.36
14.51760,509.86,686.47
14.53800,511.55,668.80
14.55845,509.87,652.55
14.57791,506.79,643.75
14.59835,503.63,634.19
14.61795,503.63,622.02
14.63667,505.36,616.42
14.65833,503.06,610.65
14.67764,505.90,604.21
14.69757,504.21,598.82
14.71689,505.15,597.89
14.73836,508.41,591.53
14.75787,509.50,591.34
14.77760,509.11,587.92
14.79699,509.45,585.17
14.81822,506.17,583.79
14.83753,506.27,582.87
14.85838,506.89,578.14
14.87734,508.43,577.25
14.89779,511.18,576.94
14.91810,509.36,575.93
14.93929,505.71,575.80
14.95882,506.52,577.22
14.97861,505.41,577.04
14.99842,504.10,576.92
15.01764,504.05,574.39
15.03956,504.22,576.59
15.05810,504.09,574.93
15.07766,505.13,577.19
15.09855,504.62,575.59
15.11945,506.01,574.62
15.13865,503.62,573.85
15.15799,504.91,573.31
15.17896,503.76,573.35
15.19807,505.98,575.13
15.21821,504.55,575.53
15.23799,504.82,574.59
15.25833,502.49,575.24
15.27891,501.57,569.76
15.29861,496.51,560.23
15.31863,490.56,548.80
15.33775,489.22,533.94
15.35785,484.19,522.82
15.37845,481.44,508.11
15.39773,480.55,498.41
15.41900,479.39,486.94
15.43793,483.46,482.64
15.45859,485.55,475.55
15.47887,488.97,472.00
15.49887,490.53,467.92
15.51853,495.79,466.55
15.53884,494.93,468.88
15.55881,502.63,468.59
15.57825,503.99,473.11
15.59756,504.67,477.97
15.61848,506.30,484.72
15.63809,508.98,488.58
15.65779,509.53,498.81
15.67933,507.31,505.25
15.69885,511.83,509.68
15.71932,508.51,519.21
15.73943,511.59,522.87
15.75867,507.88,530.53
15.77829,508.28,535.94
15.79764,508.14,541.89
15.81906,507.52,546.07
15.83944,505.51,550.90
15.85907,505.08,554.47
15.87871,503.66,560.56
15.89903,507.41,565.67
15.91911,505.42,569.15
15.93808,506.72,573.32
15.95812,505.84,575.53
15.97779,503.69,573.69
15.99776,503.93,574.32
16.01893,501.79,576.29
16.03949,502.20,576.03
16.05849,503.77,575.57
16.07926,504.97,574.04
16.09884,505.32,576.19
16.11827,504.13,576.58
16.13922,505.95,578.00
16.15927,503.25,578.19
16.17838,503.27,579.97
16.19769,503.03,581.66
16.21780,501.55,584.05
16.23879,504.88,583.84
16.25887,501.78,584.26
16.27850,504.10,582.51
16.29920,502.15,583.19
16.31820,499.83,579.12
16.33787,500.83,579.75
16.35963,499.28,578.29
16.37849,500.10,578.86
16.39765,501.91,575.92
16.41919,502.91,574.20
16.43814,503.34,570.98
16.45815,503.58,571.28
16.47772,504.40,570.84
16.49782,500.38,566.14
16.51775,502.41,565.98
16.53873,502.26,563.89
16.55864,498.58,567.30
16.57923,500.26,565.94
16.59850,500.88,567.38
16.61790,502.64,565.65
16.63808,502.31,566.44
16.65922,500.15,567.84
16.67803,500.21,569.08
16.69838,500.41,570.18
16.71845,502.30,571.61
16.73837,500.35,570.34
16.75879,498.64,568.05
16.77760,498.54,569.77
16.79765,498.70,581.84
16.81759,503.78,605.85
16.83843,507.52,645.94
16.86018,508.57,682.89
16.87907,509.92,716.16
16.89994,509.02,734.70
16.91922,509.07,735.47
16.94021,506.51,727.11
16.95943,506.65,714.54
16.98036,506.06,696.00
16.99979,504.81,681.56
17.02031,501.16,667.19
17.03957,500.70,651.93
17.05980,499.88,639.91
17.07885,499.95,629.71
17.09969,501.20,621.00
17.11866,501.06,613.90
17.14014,496.88,607.21
17.16024,497.49,597.83
17.17974,500.98,592.64
17.20023,501.85,586.06
17.21998,501.90,585.00
17.24048,501.16,579.87
17.25979,503.07,578.93
17.27874,500.60,575.13
17.29859,498.80,570.66
17.31907,499.54,572.98
17.34035,499.31,568.39
17.35968,500.39,570.02
17.38111,498.97,567.81
17.40037,497.12,568.02
17.42134,497.03,567.21
17.44192,496.45,565.53
17.46200,496.45,567.28
17.48103,498.29,566.36
17.50218,498.20,565.73
17.52222,497.40,564.36
17.54077,497.56,566.75
17.56129,500.61,566.21
17.58189,499.36,569.60
17.60182,497.04,569.42
17.62112,498.02,567.01
17.64181,500.41,552.92
17.66173,497.64,539.04
17.68160,498.99,526.91
17.70199,495.95,511.05
17.72075,498.56,497.45
17.74230,494.69,489.58
17.76176,494.92,480.37
17.78044,494.84,471.18
17.80119,492.62,464.85
17.82161,493.40,460.34
17.84247,495.38,460.93
17.86198,493.86,461.89
17.88108,497.47,463.61
17.90198,495.18,468.76
17.92178,494.01,473.32
17.94308,495.20,478.62
17.96175,494.57,487.96
17.98284,495.14,495.03
18.00179,494.51,503.57
18.02190,494.64,508.42
18.04238,495.86,515.84
18.06319,494.07,524.76
18.08211,494.97,527.98
18.10184,495.69,533.86
18.12327,494.41,539.15
18.14261,495.33,540.57
18.16187,497.03,546.81
18.18284,493.77,549.77
18.20226,496.68,552.14
18.22313,496.83,553.85
18.24171,497.32,555.65
18.26154,497.44,557.80
18.28194,498.23,558.75
18.30218,495.94,561.96
18.32250,496.03,563.68
18.34172,496.20,560.94
18.36269,498.11,565.17
18.38296,496.89,565.23
18.40231,496.18,564.36
18.42253,498.49,564.71
18.44172,498.18,567.45
18.46153,498.99,567.74
18.48232,496.63,567.18
18.50309,497.77,565.71
18.52212,498.68,566.84
18.54256,497.53,565.00
18.56301,499.76,566.29
18.58345,501.40,565.74
18.60194,497.10,565.58
18.62308,498.31,572.92
18.64321,498.98,592.92
18.66263,501.72,628.34
18.68267,506.30,664.92
18.70328,506.77,693.89
18.72299,507.65,720.50
18.74275,508.88,734.71
18.76324,506.94,746.35
18.78333,508.82,747.27
18.80324,508.95,739.76
18.82287,505.69,725.91
18.84357,508.83,706.44
18.86173,505.72,690.97
18.88321,506.08,672.81
18.90348,503.83,656.89
18.92302,502.29,643.56
18.94284,503.44,630.24
18.96329,501.89,618.31
18.98344,502.34,612.06
19.00191,501.20,604.72
19.02144,499.82,594.82
19.04226,500.36,590.07
19.06233,501.93,581.27
19.08303,498.00,574.37
19.10289,499.91,569.29
19.12282,498.61,563.92
19.14328,500.38,557.51
19.16310,499.94,557.33
19.18139,500.07,554.76
19.20219,499.24,555.08
19.22183,500.17,554.90
19.24308,501.33,551.89
19.26274,499.20,552.66
19.28277,500.10,553.02
19.30238,499.91,555.29
19.32227,503.11,558.15
19.34220,503.22,559.91
19.36195,499.34,558.87
19.38243,500.32,560.88
19.40142,497.60,560.86
19.42160,500.73,564.42
19.44265,498.82,565.33
19.46194,498.17,562.75
19.48197,501.26,565.63
19.50261,500.37,563.21
19.52310,500.08,565.75
19.54232,497.76,566.22
19.56222,496.56,568.19
19.58176,500.79,560.34
19.60199,500.83,549.91
19.62202,505.21,535.68
19.64273,503.94,524.25
19.66181,504.04,509.31
19.68274,507.24,493.09
19.70201,509.91,482.12
19.72150,508.69,472.60
19.74319,507.37,470.01
19.76211,504.88,465.59
19.78314,505.57,459.09
19.80197,503.76,457.83
19.82338,504.47,461.52
19.84268,499.65,461.71
19.86271,499.97,465.52
19.88192,499.03,469.87
19.90288,495.94,473.23
19.92221,494.88,478.21
19.94152,495.87,484.97
19.96212,496.41,494.35
19.98225,494.80,499.77
20.00185,493.85,509.02
20.02187,492.42,517.12
20.04161,493.50,521.65
20.06326,497.15,529.96
20.08296,496.36,535.66
20.10347,496.73,539.58
20.12301,498.79,545.03
20.14170,497.61,550.86
20.16216,497.40,554.87
20.18313,499.61,561.02
20.20144,500.53,561.75
20.22446,500.21,565.82
20.24424,501.12,571.51
20.26296,499.23,574.53
20.28333,500.05,576.81
20.30254,499.79,574.16
20.32321,497.74,576.33
20.34539,501.24,576.45
20.36481,498.74,574.73
20.38355,500.98,572.89
20.40503,500.80,574.49
20.42544,502.55,573.77
20.44521,504.45,575.67
20.46523,505.35,576.02
20.48433,503.36,575.49
20.50423,507.77,576.06
20.52530,504.67,573.70
20.54376,505.14,575.22
20.56366,504.44,573.58
20.58377,503.57,575.75
20.60514,502.39,573.98
20.62404,504.13,576.28
20.64401,503.21,592.86
20.66492,505.49,625.30
20.68444,508.13,673.42
20.70423,508.21,716.19
20.72456,511.52,752.73
20.74464,511.52,765.31
20.76492,512.14,772.59
20.78463,513.97,765.64
20.80352,509.25,751.21
20.82373,508.77,729.42
20.84410,508.70,711.40
20.86391,506.47,687.12
20.88453,504.44,670.45
20.90454,501.59,652.76
20.92441,502.41,639.94
20.94373,502.27,624.51
20.96462,501.16,617.95
20.98542,504.33,609.71
21.00491,503.34,603.47
21.02353,504.46,598.52
21.04429,500.64,593.18
21.06506,502.92,588.53
21.08428,505.91,585.10
21.10382,507.36,581.83
21.12405,506.79,579.78
21.14483,505.56,575.73
21.16411,505.62,578.15
21.18360,506.68,574.39
21.20480,505.86,572.95
21.22546,504.93,575.94
21.24397,505.33,576.16
21.26427,503.84,576.60
21.28440,506.75,577.20
21.30378,503.80,579.40
21.32407,507.43,577.47
21.34418,503.86,575.77
21.36507,507.97,575.32
21.38432,507.02,576.81
21.40354,507.75,576.00
21.42519,504.84,575.91
21.44444,502.34,576.59
21.46531,502.08,579.21
21.48341,504.28,576.01
21.50464,501.11,576.29
21.52493,503.85,574.25
21.54498,503.59,574.89
21.56511,502.81,572.03
21.58445,504.74,575.14
21.60476,503.80,575.49
21.62433,502.72,576.77
21.64506,499.79,575.28
21.66433,503.73,567.53
21.68444,502.26,552.54
21.70394,501.70,535.85
21.72527,504.05,517.62
21.74474,500.53,505.62
21.76548,497.73,491.80
21.78535,498.69,480.22
21.80472,497.19,469.23
21.82374,493.06,462.63
21.84416,493.83,460.87
21.86356,494.71,459.72
21.88366,495.39,460.16
21.90518,495.22,465.93
21.92517,496.09,467.82
21.94408,494.40,475.77
21.96360,497.60,483.47
21.98475,497.47,492.48
22.00518,498.98,499.40
22.02444,499.95,506.38
22.04377,501.06,514.40
22.06437,501.30,519.71
22.08455,501.38,525.69
22.10496,501.17,530.66
22.12433,503.02,536.42
22.14400,504.41,544.59
22.16468,503.95,545.81
22.18352,504.77,552.60
22.20387,503.13,556.36
22.22498,504.64,556.73
22.24365,503.42,559.60
22.26468,502.98,561.45
22.28447,503.46,563.16
22.30462,505.19,563.04
22.32412,505.37,564.70
22.34364,503.74,568.52
22.36422,503.51,567.41
22.38479,503.45,569.45
22.40470,504.96,569.28
22.42330,504.58,572.13
22.44451,500.82,573.10
22.46374,501.09,575.38
22.48509,500.06,577.63
22.50330,502.30,576.70
22.52487,499.93,580.55
22.54548,500.22,578.34
22.56400,502.63,576.19
22.58412,499.77,576.70
22.60420,500.24,575.25
22.62456,499.79,574.51
22.64369,501.97,574.23
22.66512,501.75,575.17
22.68376,499.78,572.25
22.70502,501.11,593.13
22.72395,500.97,625.81
22.74440,500.15,664.96
22.76483,500.55,697.34
22.78482,502.62,722.20
22.80426,502.45,743.33
22.82466,504.67,745.69
22.84351,503.67,739.91
22.86429,505.09,728.40
22.88414,503.83,712.04
22.90346,504.80,695.05
22.92401,506.51,679.56
22.94437,502.23,662.93
22.96571,502.11,647.50
22.98470,501.50,636.40
23.00575,501.26,623.94
23.02592,501.56,615.26
23.04622,499.42,607.62
23.06418,501.63,602.80
23.08491,501.58,595.94
23.10573,500.75,590.88
23.12603,501.03,589.64
23.14619,500.53,588.14
23.16646,499.18,583.09
23.18642,497.56,579.89
23.20686,496.54,575.75
23.22655,499.21,573.91
23.24840,498.85,573.29
23.26717,500.16,572.31
23.28812,499.34,574.43
23.30650,500.95,572.36
23.32683,500.97,570.05
23.34773,500.39,570.01
23.36714,499.27,569.42
23.38744,497.25,569.25
23.40668,495.08,569.67
23.42711,498.16,567.91
23.44833,495.38,569.75
23.46831,497.20,567.10
23.48834,497.71,570.30
23.50763,497.34,568.74
23.52685,499.22,567.00
23.54722,498.01,569.14
23.56663,497.47,567.76
23.58694,496.09,567.04
23.60768,496.61,567.35
23.62722,497.76,567.66
23.64658,498.66,566.64
23.66769,495.05,559.87
23.68847,495.57,548.26
23.70728,493.35,536.34
23.72781,490.58,522.28
23.74751,488.48,505.47
23.76701,489.11,490.85
23.78788,488.42,477.84
23.80765,488.51,465.86
23.82813,485.36,456.86
23.84736,488.72,450.00
23.86641,494.07,448.42
23.88703,493.17,452.87
23.90637,495.50,453.87
23.92743,495.83,461.70
23.94646,500.71,469.91
23.96706,499.19,476.15
23.98657,497.26,485.29
24.00698,496.94,495.55
24.02655,498.46,503.72
24.04750,498.24,510.41
24.06749,499.03,518.36
24.08665,496.37,525.63
24.10728,496.75,533.05
24.12731,497.90,536.44
24.14773,501.69,541.63
24.16646,502.66,545.58
24.18758,503.13,549.43
24.20769,503.48,551.31
24.22742,503.56,555.56
24.24719,503.55,557.50
24.26787,501.42,559.52
24.28707,503.32,560.12
24.30729,500.15,563.66
24.32756,501.81,561.89
24.34773,502.69,562.16
24.36801,499.41,566.65
24.38666,497.88,566.18
24.40756,498.64,564.95
24.42665,499.74,565.88
24.44768,496.87,566.84
24.46644,498.52,563.23
24.48781,496.79,564.30
24.50655,497.38,567.10
24.52713,496.80,566.66
24.54802,498.34,569.28
24.56724,499.03,567.37
24.58683,497.54,568.41
24.60745,497.03,568.38
24.62699,498.36,568.34
24.64753,499.17,567.81
24.66634,498.61,566.61
24.68743,500.44,567.13
24.70775,498.58,568.58
24.72923,501.89,585.36
24.74867,505.09,621.46
24.76802,505.95,668.43
24.78754,507.36,702.70
24.80860,508.14,734.13
24.82936,509.90,749.07
24.84791,508.96,748.08
24.86857,510.63,737.92
24.88778,507.76,721.57
24.90924,507.35,701.78
24.92813,508.36,685.16
24.94804,507.27,665.10
24.96874,504.68,651.14
24.98754,503.74,641.88
25.00801,503.41,628.28
25.02863,504.03,618.99
25.04834,502.70,611.06
25.06913,501.13,603.24
25.08766,499.63,598.79
25.10808,499.34,593.35
25.12811,502.01,591.03
25.14897,498.76,586.28
25.16909,498.45,581.39
25.18735,498.68,577.62
25.20870,500.05,578.67
25.22883,496.68,576.79
25.24921,496.13,573.51
25.26815,497.48,574.05
25.28906,500.27,571.18
25.30862,497.13,574.82
25.32879,499.31,570.53
25.34940,497.53,570.17
25.36913,500.43,571.35
25.38892,499.60,571.93
25.40974,499.67,569.05
25.42923,499.24,569.58
25.44902,499.84,568.78
25.46851,504.11,571.71
25.48814,503.03,571.33
25.50946,501.51,571.25
25.52962,501.19,573.76
25.54856,503.19,573.31
25.56936,502.58,571.49
25.58979,499.30,572.69
25.61033,502.01,572.43
25.63022,500.62,573.84
25.65010,500.62,572.12
25.66922,502.74,572.89
25.68996,502.47,571.86
25.70985,500.28,570.18
25.73009,502.36,573.33
25.74999,501.73,572.74
25.76949,502.48,571.83
25.78995,498.93,566.22
25.80997,498.71,557.57
25.83018,497.11,541.18
25.84965,493.24,524.49
25.86858,489.94,513.00
25.88975,488.57,497.46
25.90918,487.16,487.10
25.92980,487.13,478.52
25.94849,488.89,471.70
25.96861,488.86,469.98
25.98997,493.03,466.27
26.00969,492.06,466.00
26.03004,495.76,467.88
26.04946,497.95,472.36
26.07001,499.35,475.04
26.08978,501.26,481.11
26.10880,504.78,490.54
26.12932,505.15,497.18
26.14866,503.02,504.28
26.16842,505.38,509.83
26.18872,502.74,516.86
26.20950,501.81,523.47
26.22917,502.59,530.45
26.24979,504.28,534.73
26.26874,505.66,539.98
26.28875,506.00,543.42
26.30832,506.55,547.07
26.33029,509.34,550.61
26.34886,508.46,553.57
26.37014,506.34,554.48
26.39024,508.24,557.89
26.41013,506.81,562.47
26.42938,505.98,564.38
26.44877,504.69,566.78
26.46980,506.00,564.51
26.48834,504.32,568.88
26.50944,503.73,569.60
26.52875,503.90,570.10
26.54859,500.82,567.85
26.56848,500.67,570.83
26.58850,499.87,568.91
26.60882,499.95,571.42
26.62856,502.44,572.67
26.64949,500.41,570.47
26.66835,502.29,573.04
26.69005,502.36,572.09
26.70981,501.07,569.64
26.72889,502.43,571.37
26.74929,501.65,569.10
26.76847,501.55,571.23
26.78845,500.74,565.80
26.81014,502.09,587.03
26.82876,504.25,618.45
26.84897,507.82,658.21
26.87017,507.76,691.74
26.88976,511.22,718.05
26.90852,512.43,734.17
26.92922,514.60,739.95
26.95015,512.74,730.95
26.96840,511.63,720.80
26.98848,512.60,701.38
27.00924,514.01,686.80
27.02930,510.21,667.75
27.04874,512.58,652.44
27.06861,510.27,642.63
27.08946,505.76,629.35
27.10863,506.21,622.44
27.13012,503.53,613.19
27.14839,505.32,606.69
27.17003,502.25,599.79
27.18992,503.69,596.63
27.20920,502.22,593.94
27.23026,505.04,585.36
27.24988,502.50,584.08
27.26980,504.60,579.21
27.28963,503.19,579.99
27.31004,502.19,579.01
27.32917,500.64,584.01
27.34928,501.46,592.02
27.36877,501.59,592.75
27.38854,500.31,598.27
27.40937,501.11,594.04
27.42945,501.45,594.94
27.44994,499.62,591.40
27.46953,500.77,592.17
27.48996,498.74,589.20
27.50956,499.63,585.33
27.52966,500.72,583.28
27.54953,500.06,582.63
27.56925,502.28,579.98
27.58831,499.17,577.67
27.60863,501.35,579.98
27.62919,501.75,580.57
27.64810,502.03,576.17
27.66941,501.68,574.03
27.68904,501.74,574.50
27.70824,499.22,572.30
27.72964,498.77,572.45
27.74973,499.28,574.34
27.77021,501.49,579.82
27.78859,501.95,585.05
27.81000,501.35,588.82
27.82884,504.21,592.34
27.84898,506.07,589.38
27.86860,508.28,581.40
27.88851,505.98,575.15
27.90918,504.20,563.81
27.92890,499.53,550.40
27.94901,499.46,530.82
27.96951,498.99,515.96
27.98875,498.26,498.09
28.00909,495.41,485.73
28.02931,499.00,470.85
28.04826,495.99,462.42
28.06984,498.84,459.90
28.08963,495.31,458.38
28.11029,495.91,461.67
28.12824,495.41,463.74
28.14846,498.24,467.95
28.16946,497.30,474.51
28.18919,498.64,484.88
28.21069,498.40,493.00
28.22953,498.60,502.72
28.24984,497.83,507.76
28.26966,497.19,512.71
28.29034,500.75,523.03
28.31079,502.56,526.51
28.32950,503.37,530.86
28.34982,501.88,537.01
28.37045,502.79,541.06
28.39001,503.49,548.06
28.40999,505.81,552.12
28.43054,501.66,551.85
28.45019,502.98,557.26
28.47031,504.38,559.27
28.49043,500.95,561.90
28.51039,502.23,565.12
28.53119,503.59,568.00
28.55035,502.00,570.12
28.57031,502.32,569.06
28.59076,503.20,573.21
28.60950,500.51,571.84
28.63027,501.69,573.70
28.65038,502.32,573.87
28.67054,503.42,573.11
28.69025,504.17,574.02
28.71115,501.66,574.02
28.72961,503.51,573.83
28.75100,503.93,572.06
28.76943,501.99,572.98
28.79027,500.85,572.00
28.81098,503.12,590.03
28.82928,499.58,621.18
28.85037,502.70,655.13
28.87012,502.11,693.88
28.89030,503.35,719.76
28.91062,505.55,738.95
28.93033,506.06,742.57
28.95035,507.27,738.37
28.96965,508.43,729.66
28.99002,509.74,713.70
29.01098,504.93,695.71
29.02999,507.01,679.08
29.05010,506.43,662.66
29.07080,502.62,652.66
29.08985,503.22,639.10
29.11113,504.37,628.30
29.13093,504.95,621.94
29.14948,505.59,609.02
29.16956,501.80,606.31
29.19059,503.89,601.30
29.20992,504.57,595.76
29.22963,503.33,590.18
29.25000,505.38,588.14
29.26976,500.73,582.95
29.29052,503.05,581.39
29.31065,503.18,574.54
29.32966,504.45,572.25
29.34933,509.13,572.75
29.37116,506.95,570.34
29.39087,506.97,567.97
29.41010,507.13,568.18
29.43032,508.34,567.53
29.44942,505.82,567.11
29.46996,506.53,570.87
29.49074,507.03,567.56
29.51055,506.90,567.09
29.53034,502.69,568.00
29.55011,503.32,569.09
29.56934,504.43,572.21
29.58933,504.45,571.49
29.61090,503.60,572.09
29.62966,504.10,571.40
29.65059,501.21,572.08
29.67049,502.22,571.46
29.69127,504.69,573.31
29.71034,501.71,570.02
29.73000,503.88,572.16
29.75082,503.01,572.20
29.77019,503.54,570.81
29.78987,502.99,571.88
29.80949,501.45,571.93
29.83029,500.93,568.28
29.84940,504.17,560.28
29.87069,504.11,540.55
29.89105,504.54,526.51
29.91084,504.19,511.32
29.93043,505.11,498.03
29.94960,504.47,484.81
29.97110,503.49,474.79
29.99073,499.61,471.14
30.01105,500.02,467.45
30.02939,495.81,466.66
30.05040,497.30,468.90
30.07014,494.50,471.61
30.09061,493.91,480.02
30.10938,498.24,487.66
30.13117,497.82,494.29
30.14965,496.63,500.97
30.17041,496.33,508.69
30.19104,497.12,512.27
30.21084,498.83,514.13
30.23037,499.80,516.40
30.25104,499.42,522.23
30.27060,498.47,527.11
30.28963,498.77,531.65
30.31119,498.49,535.42
30.33049,501.91,537.55
30.35046,500.80,543.30
30.36991,499.43,546.08
30.38962,500.60,546.53
30.40970,500.72,551.09
30.43100,499.84,552.31
30.44957,500.50,553.72
30.47106,500.80,558.04
30.49037,501.95,557.82
30.50979,499.17,561.66
30.53075,503.00,563.33
30.55107,498.71,563.97
30.57117,499.02,562.37
30.59099,500.46,565.21
30.61003,498.65,565.12
30.62932,500.91,564.43
30.65007,497.95,565.33
30.66924,497.29,567.74
30.69109,501.14,567.91
30.70987,498.48,566.58
30.73052,498.95,567.01
30.75042,499.70,578.71
30.76965,496.87,605.65
30.79078,497.50,646.09
30.81073,495.64,689.18
30.83044,495.02,727.39
30.85062,496.56,748.23
30.86979,496.37,763.97
30.89031,501.62,764.46
30.91069,503.63,758.89
30.93058,503.40,742.54
30.94930,502.04,723.75
30.97023,504.09,705.95
30.99104,500.93,685.16
31.01027,500.54,668.80
31.03101,501.47,653.63
31.05046,506.54,636.61
31.07106,507.05,624.18
31.08976,505.04,609.64
31.10957,505.21,602.03
31.13097,506.62,593.55
31.15030,504.23,588.89
31.16925,503.84,585.77
31.18933,505.86,579.92
31.21037,506.88,576.21
31.23096,504.34,575.88
31.25088,502.66,573.43
31.27114,504.43,570.94
31.29086,500.81,569.75
31.30978,504.77,568.60
31.32934,501.78,564.83
31.35056,503.96,562.38
31.37064,501.25,563.00
31.39027,501.53,562.49
31.40982,499.86,563.37
31.42963,503.07,561.93
31.45000,501.96,563.56
31.46979,499.37,562.80
31.48989,498.67,563.15
31.50927,496.96,566.57
31.52984,501.09,567.69
31.55082,500.22,565.83
31.56937,497.32,568.41
31.59015,497.59,566.47
31.61070,497.66,568.81
31.63056,497.56,568.57
31.65039,499.14,567.72
31.67056,499.42,570.56
31.69078,495.55,568.03
31.71074,495.50,553.80
31.73043,493.73,538.64
31.75101,490.73,526.38
31.77048,489.81,512.97
31.78950,485.70,500.54
31.81047,487.63,486.12
31.83009,485.62,476.00
31.85013,486.53,465.31
31.87015,487.29,457.00
31.88953,489.28,456.11
31.91028,490.52,454.05
31.93086,490.92,454.68
31.94995,494.25,460.56
31.97000,496.97,465.24
31.99026,495.82,476.44
32.00939,496.66,481.85
32.02965,498.58,494.32
32.05048,499.00,501.61
32.07090,502.62,513.99
32.08965,503.98,519.11
32.10959,502.88,525.57
32.12961,501.70,532.28
32.15049,502.48,539.07
32.17094,505.61,542.06
32.19100,502.69,544.55
32.21057,505.57,547.51
32.23117,504.12,550.95
32.25068,503.96,554.18
32.26988,501.55,552.56
32.28942,501.66,556.16
32.31049,501.21,554.19
32.32975,500.37,555.86
32.35096,499.04,556.84
32.37076,500.39,556.93
32.39075,500.10,557.07
32.41064,499.62,559.09
32.42946,500.95,559.16
32.45048,497.30,561.66
32.46957,499.05,562.27
32.49021,497.58,565.33
32.51109,498.60,564.69
32.52960,498.16,566.74
32.55043,499.91,567.27
32.56962,501.22,563.95
32.59084,497.87,563.62
32.61104,498.67,565.41
32.63104,500.01,568.52
32.65065,501.56,567.47
32.67076,497.08,565.93
32.68941,498.09,566.37
32.70939,499.75,566.10
32.73085,499.13,564.28
32.75102,497.65,573.10
32.76921,499.74,599.04
32.78942,496.68,637.11
32.81066,500.81,676.74
32.82930,499.77,711.78
32.85004,503.13,740.19
32.86910,505.14,752.20
32.89086,509.66,752.53
32.90950,510.30,738.95
32.93006,510.81,720.43
32.94937,509.52,700.22
32.97117,510.03,678.92
32.99295,506.97,660.69
33.01243,505.59,646.63
33.03411,508.45,636.67
33.05367,506.00,624.38
33.07374,504.99,615.02
33.09375,504.05,606.86
33.11279,503.66,600.98
33.13252,503.90,595.48
33.15348,504.04,594.82
33.17397,501.93,588.66
33.19417,501.06,582.64
33.21340,502.17,580.29
33.23225,502.10,576.12
33.25321,501.52,576.59
33.27247,500.44,574.14
33.29330,501.28,570.12
33.31306,500.20,570.76
33.33407,496.59,571.23
33.35313,496.87,568.26
33.37382,499.74,570.25
33.39420,500.40,572.46
33.41391,499.47,570.35
33.43424,502.59,571.96
33.45406,500.18,570.62
33.47225,500.43,570.53
33.49352,501.64,569.51
33.51258,504.42,569.85
33.53258,501.53,571.30
33.55383,499.94,573.40
33.57496,497.49,570.19
33.59344,498.63,570.38
33.61404,499.01,572.14
33.63314,501.18,570.68
33.65455,499.15,572.88
33.67433,498.61,572.59
33.69336,500.11,573.21
33.71394,503.41,572.80
33.73356,502.53,569.98
33.75366,500.46,571.87
33.77385,500.35,572.59
33.79446,502.50,573.39
33.81357,499.56,572.87
33.83343,502.82,572.31
33.85318,501.66,575.18
33.87435,500.28,573.58
33.89512,502.17,574.96
33.91510,500.21,578.84
33.93467,504.12,579.54
33.95313,504.33,575.61
33.97461,502.14,565.18
33.99449,501.41,553.03
34.01341,500.82,533.70
34.03495,499.44,516.09
34.05462,498.43,500.43
34.07353,498.12,485.98
34.09404,496.29,475.96
34.11446,493.19,465.21
34.13483,493.86,459.73
34.15446,497.60,456.50
34.17687,498.67,456.75
34.19548,495.38,461.64
34.21776,496.17,466.56
34.23788,499.21,471.18
34.25729,497.28,482.77
34.27719,500.66,488.49
34.29720,499.88,494.52
34.31651,501.30,504.99
34.33752,501.61,513.42
34.35658,502.05,523.08
34.37653,503.23,527.11
34.39608,503.65,535.54
34.41776,504.22,540.10
34.43855,503.06,547.48
34.45889,502.68,552.61
34.47931,504.33,556.83
34.49875,498.62,558.68
34.51988,501.33,559.98
34.53969,498.29,563.92
34.56085,497.85,564.48
34.58121,496.79,565.49
34.60267,499.30,567.13
34.62218,497.15,567.29
34.64191,495.05,569.19
34.66123,497.09,568.94
34.68119,496.51,569.22
34.70164,496.95,571.68
34.72309,497.59,572.63
34.74230,498.68,574.12
34.76208,499.73,573.17
34.78275,498.06,572.08
34.80218,500.16,572.55
34.82289,499.90,569.94
34.84386,499.90,572.90
34.86310,498.86,571.71
34.88295,498.85,571.02
34.90365,499.23,568.41
34.92391,500.40,568.35
34.94353,498.07,567.18
34.96459,498.46,565.69
34.98413,499.97,563.54
35.00452,498.00,563.60
35.02436,497.29,562.43
35.04528,499.31,560.04
35.06683,497.68,559.88
35.08665,498.32,563.34
35.10680,497.57,564.98
35.12665,500.21,584.52
35.14678,498.51,611.57
35.16659,500.36,648.76
35.18747,502.99,680.45
35.20802,504.05,705.77
35.22755,508.11,723.98
35.24621,508.68,735.35
35.26754,510.82,744.28
35.28783,511.28,741.23
35.30624,512.16,732.32
35.32644,506.99,714.31
35.34721,505.76,699.39
35.36757,505.89,682.89
35.38806,505.73,663.71
35.40732,506.77,646.92
35.42830,504.35,635.29
35.44854,506.37,621.10
35.46857,503.73,613.00
35.48759,501.11,609.12
35.50719,501.31,601.60
35.52845,502.62,595.62
35.54869,501.47,587.92
35.56852,500.29,582.39
35.58725,498.77,578.79
35.60760,498.73,575.66
35.62877,500.55,575.47
35.64788,499.66,572.16
35.66812,500.13,568.82
35.68828,498.45,569.49
35.70907,499.89,567.15
35.72793,497.42,567.63
35.74880,497.08,568.66
35.76834,499.05,567.03
35.78897,497.70,569.06
35.80771,497.50,567.80
35.82869,497.45,566.09
35.84726,499.87,568.34
35.86818,496.80,565.35
35.88747,497.12,568.74
35.90772,498.65,566.88
35.92893,498.70,568.53
35.94885,500.39,567.45
35.96936,500.14,570.60
35.98970,503.18,570.34
36.01002,504.14,568.20
36.02989,502.37,567.61
36.04853,501.84,567.84
36.06884,502.47,570.82
36.08839,502.29,570.03
36.10916,501.16,569.26
36.12967,500.91,565.94
36.14962,503.85,566.58
36.16838,504.13,568.10
36.18956,502.02,567.90
36.20821,501.65,567.81
36.22820,501.81,568.23
36.24921,504.19,569.20
36.26891,501.84,572.39
36.29037,502.74,574.18
36.30953,502.81,580.11
36.32928,503.58,591.78
36.35100,501.85,596.41
36.37098,501.09,596.42
36.38928,501.91,590.26
36.40990,500.46,578.70
36.43048,497.23,560.98
36.45001,495.32,539.24
36.46922,493.61,514.05
36.49031,488.86,490.67
36.50974,488.96,473.07
36.52935,490.54,456.39
36.55050,488.32,447.86
36.57035,489.52,445.31
36.59084,491.06,443.34
36.61073,492.59,450.59
36.63047,492.99,454.24
36.64931,496.12,463.90
36.66926,496.05,473.12
36.69038,497.72,484.68
36.71063,499.53,495.48
36.73174,500.73,503.47
36.75008,498.42,513.04
36.77074,502.29,522.50
36.79080,502.25,527.11
36.81024,500.74,534.65
36.83033,503.27,538.46
36.85120,502.14,543.60
36.87177,504.13,546.93
36.89121,505.98,553.63
36.91220,505.37,554.65
36.93381,509.29,556.44
36.95316,504.97,559.85
36.97307,506.12,560.43
36.99402,503.80,563.65
37.01373,503.49,564.46
37.03401,506.02,564.08
37.05282,502.47,564.71
37.07392,503.09,567.51
37.09394,501.05,568.45
37.11465,502.79,571.02
37.13378,503.62,569.47
37.15446,503.72,572.40
37.17299,502.09,570.07
37.19368,501.84,571.94
37.21394,501.40,573.51
37.23430,503.04,572.72
37.25339,504.28,572.62
37.27347,500.03,571.63
37.29329,499.78,569.09
37.31429,501.15,565.89
37.33496,500.32,565.50
37.35403,500.75,566.28
37.37454,498.24,581.38
37.39359,500.58,621.28
37.41386,499.11,658.11
37.43357,498.36,691.13
37.45396,502.41,720.77
37.47373,502.68,735.33
37.49365,506.30,740.78
37.51426,507.28,735.97
37.53451,507.80,720.90
37.55329,509.35,705.67
37.57367,508.17,686.13
37.59283,505.38,671.48
37.61316,504.13,656.33
37.63370,504.25,640.84
37.65383,504.79,628.74
37.67363,502.82,618.06
37.69504,501.63,614.33
37.71321,500.21,604.94
37.73385,500.45,600.22
37.75344,500.66,593.69
37.77408,503.78,592.51
37.79303,502.46,587.01
37.81455,502.17,584.27
37.83462,500.37,579.43
37.85488,502.43,577.64
37.87377,499.37,576.62
37.89340,497.38,576.08
37.91479,497.33,572.29
37.93478,498.63,571.85
37.95469,498.63,571.13
37.97294,499.38,571.11
37.99447,499.46,572.33
38.01494,496.97,571.34
38.03469,498.61,572.86
38.05473,497.91,568.59
38.07456,496.46,568.53
38.09385,497.27,570.92
38.11314,496.88,568.68
38.13431,496.20,571.56
38.15485,497.34,570.66
38.17435,496.72,568.82
38.19343,499.08,569.94
38.21287,497.89,566.52
38.23441,496.76,570.15
38.25370,497.20,569.38
38.27531,496.35,566.25
38.29550,498.21,568.21
38.31570,497.88,559.22
38.33537,494.41,546.00
38.35476,492.57,529.29
38.37591,494.27,513.56
38.39489,493.53,499.74
38.41598,492.09,484.49
38.43610,490.04,475.73
38.45477,490.71,465.40
38.47431,488.11,456.51
38.49456,485.78,448.65
38.51560,488.56,450.31
38.53489,487.75,449.54
38.55571,489.78,454.46
38.57551,491.79,459.76
38.59402,493.56,470.67
38.61534,493.83,480.14
38.63458,490.96,489.49
38.65614,492.69,500.25
38.67543,494.12,508.24
38.69763,496.32,517.41
38.71698,495.61,523.07
38.73772,496.38,525.83
38.75829,496.22,533.92
38.77711,499.23,536.87
38.79805,499.19,544.38
38.81950,499.54,546.93
38.83928,499.61,549.35
38.85839,500.12,553.22
38.87959,501.55,556.64
38.89905,500.05,558.21
38.91820,498.53,560.37
38.93852,500.79,561.86
38.95988,500.17,562.06
38.97968,499.44,566.78
38.99797,501.14,567.82
39.01890,499.39,567.67
39.04166,501.49,567.71
39.05997,498.18,568.75
39.08123,499.42,568.30
39.10211,499.11,568.73
39.12245,500.99,573.43
39.14263,498.24,576.04
39.16161,498.78,576.15
39.18149,498.03,575.92
39.20211,500.14,575.59
39.22273,500.54,577.65
39.24253,500.40,573.73
39.26310,498.78,575.81
39.28224,501.02,572.32
39.30393,501.35,573.85
39.32261,502.96,571.33
39.34331,499.56,571.21
39.36385,500.00,571.44
39.38303,502.56,568.21
39.40403,502.83,569.00
39.42360,500.88,565.71
39.44440,499.24,564.88
39.46464,500.76,565.32
39.48471,500.73,566.52
39.50329,501.99,565.85
39.52324,500.33,564.77
39.54304,498.02,563.52
39.56409,502.37,582.56
39.58554,501.99,618.75
39.60583,505.11,654.39
39.62501,507.93,694.03
39.64523,508.67,720.99
39.66602,511.82,737.71
39.68638,512.67,741.03
39.70744,510.98,732.04
39.72852,512.09,718.36
39.74815,509.81,701.92
39.76920,506.10,685.91
39.78893,503.04,668.12
39.81195,503.50,654.71
39.83002,502.81,638.67
39.85024,499.74,628.32
39.87024,500.98,618.93
39.89160,497.35,608.99
39.91160,500.80,603.47
39.93075,497.51,596.29
39.95033,497.14,591.51
39.97101,497.40,587.65
39.99201,497.47,584.82
40.01146,498.23,581.24
40.03171,495.96,577.47
40.05229,496.94,577.03
40.07378,493.58,573.48
40.09479,494.74,572.09
40.11309,496.65,574.80
40.13466,495.32,571.81
40.15382,495.09,573.55
40.17542,496.52,573.84
40.19469,493.34,575.26
40.21469,493.80,577.99
40.23422,494.07,573.58
40.25554,493.73,571.48
40.27508,490.84,572.47
40.29525,492.48,569.73
40.31544,490.21,568.83
40.33486,491.65,569.13
40.35390,492.89,568.50
40.37586,491.06,569.05
40.39459,494.46,566.57
40.41401,495.37,566.37
40.43485,495.05,568.21
40.45498,496.56,568.37
40.47585,499.97,566.29
40.49561,498.60,564.21
40.51558,499.69,566.94
40.53426,500.86,563.37
40.55474,499.11,567.36
40.57479,502.16,565.87
40.59474,500.34,567.80
40.61499,501.31,573.35
40.63656,500.34,575.97
40.65536,499.32,570.61
40.67684,500.37,560.02
40.69602,501.58,542.17
40.71513,499.80,518.39
40.73597,498.84,497.78
40.75686,498.86,478.27
40.77660,496.05,463.01
40.79603,496.50,452.97
40.81547,494.65,449.56
40.83515,497.33,448.17
40.85686,496.92,446.39
40.87550,498.03,452.34
40.89517,496.16,459.26
40.91559,495.23,464.84
40.93677,498.58,475.32
40.95616,496.10,484.31
40.97857,498.40,495.05
40.99821,496.58,505.70
41.01693,497.90,513.13
41.03834,498.48,521.69
41.05750,500.54,527.71
41.07703,501.42,535.74
41.09857,503.07,539.24
41.12066,503.85,541.80
41.14125,503.02,546.02
41.16008,500.71,550.07
41.18143,499.22,552.54
41.19982,501.49,555.62
41.22048,500.26,560.44
41.24246,498.89,561.81
41.26276,497.60,563.18
41.28323,499.91,568.63
41.30179,500.66,570.31
41.32085,499.10,568.23
41.34216,500.18,571.95
41.36262,503.22,572.43
41.38172,504.07,570.83
41.40208,502.32,571.51
41.42279,503.47,574.55
41.44501,499.37,573.66
41.46424,502.07,573.39
41.48460,500.59,574.88
41.50440,498.21,571.26
41.52529,497.83,574.02
41.54425,499.42,573.14
41.56652,498.56,573.73
41.58647,496.74,572.26
41.60643,500.62,573.25
41.62624,497.79,571.09
41.64690,498.91,571.92
41.66627,497.04,571.18
41.68580,498.35,572.41
41.70618,497.98,573.23
41.72533,499.15,571.91
41.74507,499.61,572.85
41.76623,496.40,568.59
41.78712,497.91,571.47
41.80899,496.51,568.01
41.83078,495.95,569.98
41.85166,495.60,572.12
41.87113,497.83,595.87
41.89178,496.79,642.24
41.91082,503.16,706.88
41.93081,510.04,759.00
41.95264,513.35,798.15
41.97163,514.78,810.75
41.99163,514.12,814.78
42.01137,517.02,802.35
42.03141,516.21,781.64
42.05226,515.66,757.58
42.07362,511.75,730.00
42.09232,508.85,700.40
42.11206,506.97,671.27
42.13260,503.77,641.20
42.15359,502.27,620.38
42.17366,498.13,599.78
42.19278,493.18,585.02
42.21365,496.08,574.45
42.23332,496.62,565.36
42.25202,493.97,558.45
42.27210,495.33,550.05
42.29236,497.35,549.69
42.31361,496.26,548.94
42.33339,497.04,547.93
42.35295,497.71,546.82
42.37206,493.62,544.86
42.39190,493.18,544.81
42.41242,493.55,546.32
42.43288,496.11,549.98
42.45268,492.86,549.18
42.47314,493.92,551.38
42.49256,494.77,553.17
42.51362,496.03,557.44
42.53219,495.28,554.07
42.55356,495.89,556.95
42.57335,496.96,556.33
42.59213,495.92,560.04
42.61317,497.05,561.65
42.63243,497.92,564.35
42.65256,495.98,565.99
42.67340,498.74,568.17
42.69318,496.67,568.66
42.71339,494.94,570.35
42.73262,496.28,567.81
42.75378,496.12,568.42
42.77262,498.47,568.51
42.79285,495.20,567.40
42.81211,497.94,569.36
42.83238,499.47,569.35
42.85247,499.33,567.19
42.87326,499.85,570.07
42.89272,501.72,571.19
42.91271,501.72,569.88
42.93340,502.95,570.42
42.95224,504.13,573.51
42.97300,502.09,565.55
42.99333,501.93,553.75
43.01229,498.60,539.26
43.03308,494.77,523.89
43.05310,493.65,508.62
43.07371,491.08,496.70
43.09347,488.65,481.91
43.11227,488.49,474.48
43.13211,488.44,464.60
43.15190,488.49,460.32
43.17283,489.62,462.50
43.19364,488.37,464.38
43.21287,490.70,467.97
43.23380,490.70,472.94
43.25193,490.11,480.74
43.27253,495.20,488.31
43.29346,494.46,499.33
43.31344,498.32,506.16
43.33274,497.75,517.51
43.35337,498.64,521.81
43.37226,498.14,529.34
43.39239,502.10,534.41
43.41302,500.54,540.04
43.43340,500.91,543.87
43.45407,503.33,549.02
43.47476,503.31,550.61
43.49423,506.54,549.68
43.51354,505.06,552.27
43.53541,507.93,552.68
43.55562,507.51,557.21
43.57507,504.05,559.77
43.59497,506.19,559.42
43.61627,504.35,561.14
43.63566,506.65,562.56
43.65679,505.38,566.09
43.67668,502.34,566.52
43.69618,501.98,567.90
43.71758,503.22,567.68
43.73720,502.12,568.62
43.75673,501.49,568.67
43.77764,503.76,569.57
43.79701,502.46,568.97
43.81727,503.22,570.24
43.83648,504.39,573.57
43.85656,504.12,571.79
43.87790,501.80,570.05
43.89711,504.50,570.28
43.91774,500.32,571.49
43.93849,501.11,572.54
43.95857,497.75,569.73
43.97807,501.46,582.40
43.99817,501.75,609.52
44.01692,498.30,641.32
44.03839,498.44,671.51
44.05864,497.94,694.40
44.07821,497.83,717.77
44.09845,501.51,733.75
44.11891,506.16,737.87
44.13867,507.17,736.61
44.15726,507.95,727.60
44.17836,508.28,714.65
44.19833,507.41,696.19
44.21896,505.67,677.05
44.23888,504.31,660.56
44.25906,502.41,644.59
44.28058,500.59,631.14
44.30061,501.64,623.80
44.32165,500.48,612.82
44.34320,499.29,602.07
44.36315,499.50,595.14
44.38319,497.61,585.99
44.40363,499.57,585.36
44.42371,497.60,579.90
44.44381,499.70,576.33
44.46429,499.43,570.78
44.48441,500.67,570.20
44.50485,498.21,569.89
44.52600,495.87,567.98
44.54662,498.35,566.66
44.56695,499.92,563.88
44.58586,501.11,562.97
44.60612,498.24,560.89
44.62595,496.61,562.25
44.64646,496.18,561.79
44.66794,496.52,562.91
44.68801,497.44,566.99
44.70785,497.31,565.61
44.72712,498.09,564.66
44.74750,495.40,567.21
44.76703,496.74,565.48
44.78820,494.90,565.30
44.80850,496.03,565.70
44.82751,495.41,563.25
44.84752,496.03,567.26
44.86841,496.98,565.01
44.88701,496.28,563.36
44.90845,494.74,565.88
44.92823,495.80,564.94
44.94700,495.11,568.57
44.96697,495.71,566.99
44.98772,499.32,566.68
45.00752,497.57,570.78
45.02698,498.00,570.09
45.04703,497.56,569.61
45.06781,501.88,569.28
45.08853,501.55,569.73
45.10804,503.40,566.74
45.12980,500.60,558.74
45.14900,504.14,545.76
45.16820,501.70,528.05
45.18867,501.55,510.07
45.20846,501.44,493.31
45.22928,500.33,477.91
45.24805,499.12,465.31
45.26866,495.54,453.77
45.28903,495.27,449.99
45.30843,492.60,449.24
45.32891,490.30,448.37
45.34925,488.85,454.29
45.37080,491.50,460.34
45.39065,492.45,472.00
45.41064,492.64,480.33
45.42995,494.34,488.50
45.44929,496.51,501.45
45.47038,492.68,509.85
45.49108,494.85,517.76
45.51044,493.83,525.41
45.52912,494.19,529.79
45.55042,496.56,538.17
45.57050,498.84,545.51
45.59074,499.20,550.61
45.60974,498.54,556.72
45.62991,499.56,559.77
45.65116,501.63,560.96
45.67164,502.85,566.16
45.69257,502.53,566.53
45.71124,503.48,567.68
45.73095,500.58,570.69
45.75209,502.07,572.18
45.77145,503.33,572.02
45.79191,501.20,572.13
45.81119,503.69,575.36
45.83253,502.91,575.65
45.85190,506.32,576.32
45.87280,503.54,575.47
45.89087,501.40,574.76
45.91088,503.25,576.08
45.93198,501.87,574.91
45.95208,501.31,578.20
45.97275,498.69,576.33
45.99223,497.66,576.89
46.01190,499.46,574.72
46.03305,498.29,576.76
46.05258,499.24,577.00
46.07230,496.00,577.41
46.09277,497.63,577.54
46.11253,495.16,576.58
46.13301,497.90,577.21
46.15189,498.28,575.28
46.17183,499.41,574.29
46.19366,497.27,574.80
46.21404,499.07,573.13
46.23523,497.69,576.59
46.25603,498.15,600.40
46.27689,500.00,634.12
46.29536,503.10,676.93
46.31671,506.59,710.18
46.33534,505.78,735.58
46.35508,507.02,750.22
46.37539,509.11,754.68
46.39593,509.95,752.65
46.41688,507.99,739.89
46.43594,507.82,723.18
46.45601,506.28,705.00
46.47609,507.22,689.68
46.49639,501.84,673.41
46.51661,502.67,657.99
46.53616,500.03,643.71
46.55479,497.89,632.55
46.57554,498.26,623.94
46.59749,498.98,612.31
46.61771,498.22,603.61
46.63780,494.65,597.68
46.65832,495.77,589.34
46.67938,494.39,585.22
46.69902,498.42,580.70
46.71905,494.36,577.26
46.74055,496.64,576.02
46.76116,496.35,576.44
46.78130,495.60,572.96
46.80103,494.99,575.60
46.82116,497.58,574.97
46.83996,495.40,574.78
46.85979,497.76,572.80
46.88154,497.48,570.74
46.90154,495.83,575.08
46.91984,493.65,574.69
46.94145,495.13,573.56
46.95998,493.79,574.53
46.98033,494.94,571.79
47.00153,498.41,571.39
47.01977,495.83,571.00
47.04010,498.14,571.12
47.06112,496.35,570.16
47.08131,499.47,571.78
47.10053,500.47,573.40
47.12169,499.32,573.83
47.14016,496.74,576.47
47.16169,495.69,566.44
47.18022,491.70,546.17
47.20100,490.52,521.77
47.22141,488.60,498.30
47.24047,489.27,482.35
47.26096,488.61,463.79
47.28064,487.06,454.97
47.30001,484.19,446.23
47.32160,484.29,443.54
47.34072,484.42,444.90
47.36016,484.01,449.26
47.38076,487.51,457.06
47.39998,489.22,463.21
47.42001,488.06,472.81
47.43992,490.34,482.49
47.46129,493.63,492.92
47.48054,493.46,500.89
47.50034,495.04,509.75
47.52036,491.97,518.24
47.54046,493.00,524.44
47.56049,495.19,529.44
47.58115,493.32,535.92
47.60167,495.20,537.69
47.62054,497.34,544.17
47.64024,495.64,548.32
47.66134,498.03,549.26
47.68117,495.10,552.46
47.70166,497.76,553.87
47.72122,495.63,559.03
47.74073,496.74,560.04
47.76070,498.15,560.12
47.78142,497.97,564.09
47.80031,497.36,563.68
47.82007,498.47,567.12
47.84122,499.86,567.15
47.86105,498.39,568.96
47.88052,498.75,567.91
47.90128,497.96,569.05
47.92060,497.84,570.82
47.94132,497.48,572.18
47.95969,496.49,571.48
47.98117,495.31,573.45
48.00036,498.05,574.55
48.01978,497.52,572.11
48.04057,497.46,574.73
48.06148,495.07,575.76
48.08022,497.08,574.56
48.09991,495.37,574.71
48.12155,497.91,573.71
48.14048,494.60,573.92
48.15962,497.50,574.82
48.18049,496.73,573.06
48.20086,499.87,574.19
48.22085,497.73,573.69
48.24109,498.05,574.87
48.26145,499.69,574.44
48.28177,497.40,576.21
48.30153,499.36,574.67
48.32249,498.02,573.11
48.34185,499.68,573.61
48.36114,501.38,575.00
48.38209,500.15,572.66
48.40170,500.18,573.27
48.42086,496.81,574.56
48.44227,496.08,576.55
48.46114,495.68,573.05
48.48110,495.45,571.53
48.50193,496.90,592.39
48.52223,499.01,626.90
48.54142,498.15,666.71
48.56268,504.04,699.53
48.58194,505.06,724.45
48.60079,506.80,732.67
48.62184,504.04,723.97
48.64273,504.46,713.75
48.66295,506.51,698.71
48.68242,504.67,684.92
48.70236,504.23,668.44
48.72219,503.02,656.53
48.74176,500.88,641.67
48.76277,503.31,632.21
48.78255,504.15,622.32
48.80246,503.69,615.55
48.82287,502.66,611.30
48.84291,500.86,607.74
48.86276,504.61,606.50
48.88343,501.59,604.58
48.90528,502.01,602.80
48.92446,500.45,600.06
48.94579,501.75,598.31
48.96558,500.13,596.82
48.98548,501.48,594.34
49.00440,499.84,593.06
49.02416,498.64,591.25
49.04576,498.19,590.04
49.06411,500.12,589.63
49.13325,496.77,589.32
49.13323,500.00,587.14
49.13293,498.26,587.54
49.14383,498.73,585.57
49.16375,496.52,584.32
49.18350,500.03,584.68
49.20490,497.64,586.71
49.22492,496.04,583.09
49.24460,496.56,584.41
49.26488,495.38,582.72
49.28389,499.46,584.23
49.30565,497.71,582.27
49.32383,497.04,583.73
49.34447,497.74,581.97
49.36506,500.52,581.26
49.38558,499.00,579.98
49.40373,499.86,579.44
49.42572,498.77,579.01
49.44520,501.44,576.42
49.46595,501.19,578.21
49.48475,502.75,580.99
49.50603,499.95,577.93
49.52680,499.79,574.26
49.54646,498.27,575.45
49.56603,496.96,574.67
49.58597,495.60,573.04
49.60620,496.48,574.06
49.62606,497.95,573.02
49.64749,497.38,575.53
49.66681,499.94,574.26
49.68619,496.66,576.42
49.70845,497.92,575.72
49.72714,496.80,578.10
49.74810,499.64,575.92
49.76805,497.30,563.91
49.78824,492.93,543.31
49.80959,488.25,523.60
49.82945,488.93,503.98
49.85062,487.82,487.69
49.87068,485.56,476.51
49.88915,486.32,465.05
49.91065,486.68,460.92
49.92929,489.83,460.55
49.95029,489.36,461.76
49.96919,490.53,465.12
49.99015,491.34,470.35
50.00968,491.24,478.24
50.02852,494.25,487.57
50.04943,495.93,495.90
50.06927,495.86,503.02
50.08925,495.90,512.53
50.10901,495.54,517.80
50.13059,494.30,527.12
50.14979,495.94,530.78
50.16889,498.46,539.63
50.19068,497.49,544.08
50.20999,501.22,548.53
50.23002,498.25,552.66
50.25054,500.13,555.47
50.27064,497.30,556.82
50.28877,500.03,561.49
50.31018,496.17,560.78
50.32934,497.30,565.20
50.34999,495.92,565.42
50.37041,493.75,566.18
50.38998,496.71,567.38
50.40996,492.55,566.11
50.42984,493.68,567.37
50.44970,495.15,568.08
50.47100,495.02,573.91
50.48989,495.72,573.80
50.51148,495.93,575.89
50.52972,495.88,579.11
50.54982,495.96,579.56
50.57055,496.72,580.53
50.59131,498.68,577.39
50.61101,496.74,577.70
50.63308,498.15,579.25
50.65344,497.69,578.45
50.67321,499.83,575.81
50.69303,497.20,575.67
50.71291,497.96,574.53
50.73325,499.16,576.24
50.75179,498.57,575.68
50.77266,498.48,574.97
50.79369,497.63,574.55
50.81457,495.94,575.95
50.83459,494.09,575.72
50.85605,497.02,572.94
50.87754,496.33,574.07
50.89562,499.53,574.09
50.91825,501.67,581.21
50.93744,499.78,599.54
50.95880,502.34,627.56
50.97863,502.74,662.97
50.99787,505.11,690.65
51.01801,505.30,702.12
51.03753,504.10,700.15
51.05829,507.89,693.59
51.07728,505.65,681.13
51.09735,503.54,668.99
51.11738,504.68,656.98
51.13742,505.90,649.09
51.15690,507.47,653.04
51.17789,510.09,652.84
51.19801,508.16,649.58
51.21689,510.36,645.63
51.23949,509.61,638.73
51.25778,508.82,629.82
51.27905,507.50,623.24
51.29886,506.09,618.28
51.31927,505.40,609.65
51.33872,506.01,603.34
51.35880,504.77,602.79
51.37858,505.16,595.71
51.39798,504.73,596.21
51.41978,506.68,593.42
51.44083,505.60,589.51
51.46072,502.76,586.58
51.48252,504.17,587.48
51.50149,502.13,583.10
51.52081,504.49,581.41
51.54336,501.04,578.88
51.56298,503.76,577.21
51.58222,500.85,578.16
51.60180,502.23,578.62
51.62309,501.89,577.47
51.64190,499.53,573.63
51.66302,502.84,575.61
51.68201,503.49,572.09
51.70207,500.31,573.46
51.72251,499.09,576.12
51.74353,498.00,574.02
51.76214,494.70,579.81
51.78392,495.49,580.72
51.80449,499.22,578.04
51.82490,500.05,580.04
51.84383,499.54,581.30
51.86456,498.17,579.89
51.88476,499.44,579.07
51.90588,496.31,576.86
51.92506,497.43,576.44
51.94420,496.20,572.99
51.96430,497.75,571.91
51.98422,496.23,575.03
52.00530,497.52,572.40
52.02435,494.68,569.67
52.04550,496.06,570.04
52.06532,496.33,567.52
52.08516,495.40,569.98
52.10414,495.34,567.33
52.12498,497.07,568.99
52.14466,495.15,569.83
52.16368,498.11,555.77
52.18405,498.64,539.03
52.20492,495.89,526.69
52.22483,498.58,519.16
52.24410,496.09,518.69
52.26410,499.05,519.97
52.28417,496.77,520.29
52.30528,496.27,524.82
52.32385,497.73,531.22
52.34552,498.02,533.53
52.36382,497.33,540.27
52.38520,497.35,542.04
52.40593,494.67,546.39
52.42621,498.22,550.33
52.44670,494.91,553.71
52.46724,498.29,557.24
52.48848,497.63,557.59
52.50809,497.46,561.35
52.52803,497.21,562.23
52.54765,499.59,559.41
52.56840,497.92,561.50
52.58784,498.51,563.78
52.60970,495.80,565.36
52.62816,498.46,567.14
52.64773,497.78,565.15
52.66863,497.39,564.34
52.68829,497.66,564.97
52.70929,496.08,566.58
52.72863,498.81,569.24
52.74807,497.50,570.25
52.76805,499.82,573.71
52.78969,497.86,574.00
52.80839,495.70,574.85
52.82836,496.85,575.06
52.84895,496.91,575.04
52.86825,495.50,575.13
52.88804,496.44,577.97
52.90856,497.99,578.74
52.92944,496.64,579.39
52.94876,497.51,582.31
52.96879,495.61,594.83
52.98838,497.82,614.75
53.00857,499.42,630.80
53.02789,499.54,644.15
53.04825,502.87,644.98
53.06904,498.77,640.51
53.08896,501.63,633.51
53.10853,499.64,625.97
53.12803,501.77,620.35
53.14968,501.91,612.46
53.16835,501.39,607.62
53.18865,498.26,598.35
53.20806,500.42,593.71
53.22768,495.66,587.68
53.24812,497.10,584.71
53.26925,496.16,580.80
53.28868,497.95,577.18
53.30934,497.14,574.47
53.32783,496.58,575.73
53.34882,494.45,573.31
53.36826,492.52,570.56
53.38918,494.11,573.48
53.40947,490.66,572.05
53.42780,492.04,572.12
53.44934,492.71,569.99
53.46856,497.19,569.29
53.48888,499.59,559.28
53.50947,505.99,545.87
53.52797,507.07,539.51
53.54865,506.57,540.98
53.57034,510.21,538.36
53.58895,508.52,539.95
53.61041,505.60,542.19
53.63050,504.95,546.06
53.65006,505.49,547.50
53.66937,502.46,551.61
53.69031,503.00,554.37
53.71002,504.04,557.66
53.72969,503.50,559.70
53.74887,506.12,562.27
53.76956,505.00,565.61
53.79028,504.93,565.84
53.80969,502.83,570.18
53.83043,506.55,566.22
53.85038,516.89,562.80
53.87026,525.34,560.85
53.88998,529.45,559.19
53.91072,527.33,554.08
53.93129,519.90,535.76
53.95123,513.73,516.23
53.97175,504.86,491.55
53.99164,495.29,475.43
54.01376,487.16,461.23
54.03223,483.47,452.14
54.05289,476.24,449.03
54.07230,474.33,449.08
54.09278,472.09,452.94
54.11286,472.84,460.88
54.13151,472.84,473.22
54.15332,476.54,482.68
54.17238,473.61,492.02
54.19172,477.93,502.63
54.21181,479.95,510.82
54.23269,480.73,520.19
54.25254,483.97,524.93
54.27238,484.73,533.93
54.29307,484.96,538.81
54.31299,485.21,545.55
54.33316,489.18,548.48
54.35208,490.36,551.47
54.37294,493.20,555.84
54.39412,491.67,558.32
54.41405,492.51,562.28
54.43465,492.16,570.40
54.45305,493.21,575.83
54.47401,491.12,580.13
54.49423,491.33,582.29
54.51393,492.30,583.25
54.53432,491.40,581.68
54.55404,495.34,583.98
54.57330,494.40,584.55
54.59309,497.90,583.19
54.61282,498.20,591.14
54.63440,505.75,593.92
54.65301,506.81,597.96
54.67407,507.83,597.61
54.69365,511.21,597.27
54.71466,511.00,597.45
54.73374,507.96,595.16
54.75317,506.14,591.30
54.77428,505.76,589.43
54.79288,504.01,588.31
54.81359,502.55,586.26
54.83404,501.61,587.58
54.85397,501.75,586.03
54.87527,499.83,582.29
54.89509,502.79,582.47
54.91519,501.07,579.87
54.93520,498.61,577.24
54.95511,500.21,578.94
54.97586,498.76,577.88
54.99713,496.87,576.28
55.01551,495.49,576.18
55.03744,493.38,574.16
55.05670,493.33,570.09
55.07580,494.15,567.87
55.09820,492.83,575.32
55.11818,492.92,598.69
55.13877,489.85,636.05
55.16013,492.65,674.69
55.18037,495.98,707.74
55.20043,498.42,718.67
55.22003,499.55,723.19
55.23954,497.52,710.59
55.25932,498.38,699.82
55.27932,497.59,683.88
55.29923,497.78,671.16
55.31958,498.98,657.84
55.33953,497.53,646.38
55.36030,498.00,634.37
55.38137,498.52,625.58
55.40158,499.47,615.76
55.42109,500.00,610.42
55.44129,496.89,602.55
55.46226,498.98,595.31
55.48192,498.09,592.93
55.50319,495.81,590.23
55.52193,497.79,588.16
55.54343,497.74,587.14
55.56206,494.80,585.74
55.58287,494.15,580.82
55.60174,492.59,580.98
55.62226,493.16,577.84
55.64275,493.66,579.04
55.66148,492.88,577.76
55.68162,495.11,573.12
55.70348,494.41,573.41
55.72256,495.79,575.92
55.74350,491.95,572.72
55.76427,492.42,572.12
55.78408,493.14,572.98
55.80248,495.96,574.05
55.82244,493.35,572.37
55.84442,495.59,572.91
55.86392,495.73,573.08
55.88413,494.52,572.18
55.90517,496.59,575.26
55.92514,496.66,571.79
55.94577,498.66,573.12
55.96614,497.78,572.61
55.98752,498.11,570.06
56.00672,499.22,573.40
56.02740,498.08,572.38
56.04760,498.23,571.79
56.06790,500.65,571.89
56.08854,499.35,573.14
56.10962,498.70,569.76
56.13098,500.93,573.42
56.15181,498.64,574.14
56.17164,498.41,574.05
56.19343,500.21,571.77
56.21192,498.65,570.83
56.23275,500.60,569.82
56.25291,502.04,570.98
56.27316,501.38,568.03
56.29178,500.07,569.11
56.31288,497.92,569.88
56.33286,498.68,570.23
56.35304,500.14,571.28
56.37165,501.95,571.72
56.39166,498.34,571.88
56.41295,499.93,570.27
56.43169,497.46,570.18
56.45257,498.25,575.09
56.47295,500.16,569.17
56.49307,497.27,555.98
56.51228,491.96,541.36
56.53316,492.56,518.73
56.55183,486.69,498.16
56.57262,484.58,480.39
56.59214,483.46,466.04
56.61202,486.02,454.93
56.63189,486.12,447.46
56.65160,486.63,447.68
56.67260,490.19,447.86
56.69185,490.23,453.07
56.71231,490.61,461.21
56.73338,492.47,469.35
56.75407,491.62,480.12
56.77542,494.03,488.38
56.79526,494.17,496.21
56.81397,496.72,505.43
56.83471,497.87,514.00
56.85404,497.67,521.06
56.87472,497.18,529.36
56.89377,500.70,535.82
56.91423,501.43,544.62
56.93623,501.58,548.46
56.95482,503.71,553.49
56.97622,508.21,555.02
56.99668,506.24,558.23
57.01751,509.74,558.20
57.03689,509.62,558.45
57.05833,510.10,563.07
57.07818,509.08,564.02
57.09807,505.84,564.56
57.11793,507.33,563.84
57.13755,505.54,567.34
57.15844,502.81,568.70
57.17846,503.21,567.72
57.19922,500.54,568.14
57.21792,499.98,568.42
57.23751,498.16,570.82
57.25862,495.82,568.92
57.27793,496.17,568.58
57.29823,495.14,569.80
57.31907,497.66,570.71
57.33922,495.81,571.58
57.35919,495.03,570.19
57.37911,497.78,572.32
57.39892,495.31,572.37
57.41926,492.66,570.26
57.43861,492.84,570.86
57.45919,495.68,572.31
57.47877,493.78,567.93
57.49975,493.52,569.24
57.52015,493.98,571.67
57.53891,493.83,571.23
57.55858,494.32,571.54
57.58015,494.24,570.63
57.59896,494.22,571.99
57.61944,493.65,569.64
57.63995,497.39,572.57
57.66041,493.14,572.23
57.67908,495.06,571.94
57.69892,491.64,571.56
57.71935,493.01,567.59
57.73893,493.31,567.38
57.75874,493.41,567.11
57.78009,493.52,565.84
57.79882,490.12,565.29
57.82033,491.90,561.49
57.83887,492.33,561.20
57.85856,490.49,562.19
57.87949,492.46,561.66
57.89846,491.45,561.77
57.91974,492.61,564.02
57.94012,493.63,561.37
57.95851,493.37,572.56
57.97854,495.53,596.43
57.99916,498.32,634.81
58.02027,499.34,671.58
58.04002,502.66,700.16
58.05960,506.53,718.57
58.07933,506.84,722.39
58.09913,509.12,716.67
58.12015,505.83,705.00
58.13986,504.31,689.87
58.15905,507.89,674.10
58.18016,507.96,661.37
58.19871,504.91,648.01
58.21920,503.65,637.97
58.23904,506.64,627.07
58.25845,505.59,619.70
58.27938,506.54,612.12
58.29940,503.88,606.73
58.31930,504.44,599.82
58.33883,503.77,594.46
58.35852,499.56,593.05
58.37843,500.69,591.09
58.40026,500.71,588.91
58.41861,499.97,582.72
58.43882,502.57,572.21
58.45933,500.17,558.44
58.47924,498.26,549.74
58.49951,499.31,546.85
58.52026,497.91,544.85
58.54009,497.40,544.62
58.55920,498.35,544.59
58.57986,499.39,546.83
58.59894,500.09,551.62
58.61872,501.83,554.52
58.64023,500.34,557.67
58.65855,500.12,557.30
58.68039,501.02,562.95
58.69839,499.94,562.98
58.71964,503.44,565.57
58.74047,501.45,567.32
58.75947,500.41,570.26
58.77909,500.31,570.16
58.79895,500.26,569.89
58.81834,501.49,569.32
58.83943,501.40,570.86
58.85992,499.57,572.90
58.87897,499.58,574.68
58.90011,500.90,581.93
58.91899,500.94,592.80
58.93931,493.82,614.56
58.95984,483.06,630.37
58.97944,475.08,636.76
58.99864,471.94,631.85
59.01937,472.59,616.61
59.03845,474.31,607.05
59.05997,472.57,593.30
59.08056,477.30,581.18
59.10082,480.00,569.43
59.11980,482.35,562.71
59.14243,482.03,556.62
59.16145,486.66,553.85
59.18157,485.90,549.39
59.20114,488.34,551.87
59.22099,489.04,548.58
59.24196,494.53,550.35
59.26055,497.03,551.67
59.28177,498.09,554.79
59.30082,502.88,557.16
59.32106,503.37,556.94
59.34182,501.27,558.61
59.36078,504.94,563.23
59.38050,502.33,562.68
59.40196,504.30,565.02
59.42097,503.98,569.09
59.44087,505.00,571.29
59.46200,503.57,570.84
59.48040,503.66,574.98
59.50188,507.49,570.83
59.52201,516.31,558.87
59.54199,521.55,552.91
59.56138,525.86,548.07
59.58170,526.97,548.92
59.60233,526.68,547.47
59.62313,525.62,550.33
59.64289,524.53,551.59
59.66303,520.27,555.13
59.68354,518.53,555.82
59.70522,516.96,555.53
59.72443,520.32,553.48
59.74728,513.56,558.41
59.76753,513.36,559.13
59.78571,514.23,560.59
59.80726,511.10,562.41
59.82748,512.05,564.82
59.84697,509.06,565.40
59.86552,507.89,570.85
59.88718,507.20,574.24
59.90646,507.88,575.37
59.92616,505.85,578.83
59.94736,501.46,577.19
59.96684,501.48,579.63
59.98611,500.47,579.28
