Program Time [s],data 0,data 1
3.79514,443.93,428.38
3.81368,442.82,426.44
3.83448,443.22,430.57
3.85412,445.18,430.23
3.87456,446.87,430.00
3.89532,443.30,429.99
3.91430,443.37,430.81
3.93543,442.00,430.87
3.95429,445.49,432.32
3.97417,444.01,428.87
3.99477,445.81,427.32
4.01544,446.09,430.32
4.03534,446.55,429.88
4.05461,444.59,427.97
4.07487,442.96,428.58
4.09434,440.05,429.23
4.11499,439.24,426.05
4.13372,439.10,429.88
4.15518,440.05,428.24
4.17486,442.93,427.95
4.19373,443.67,426.97
4.21515,444.37,429.43
4.23521,445.12,429.21
4.25424,445.22,429.24
4.27379,447.94,429.94
4.29434,445.65,430.45
4.31551,446.68,427.03
4.33443,443.48,427.93
4.35375,444.75,429.49
4.37530,442.49,427.93
4.39428,444.36,428.07
4.41368,444.69,428.54
4.43483,442.25,426.26
4.45480,443.64,424.68
4.47405,444.39,424.21
4.49398,442.64,425.52
4.51462,443.44,427.46
4.53382,442.15,428.25
4.55501,442.56,430.15
4.57405,438.72,432.08
4.59527,439.44,431.13
4.61480,443.04,432.10
4.63389,442.04,435.38
4.65451,444.40,432.56
4.67596,442.49,430.04
4.69503,441.20,430.29
4.71575,442.64,430.99
4.73655,443.29,432.19
4.75460,441.39,429.65
4.77609,442.40,431.79
4.79520,442.26,430.62
4.81577,441.88,431.81
4.83577,443.33,431.41
4.85534,444.43,430.78
4.87581,442.13,429.15
4.89488,441.06,427.69
4.91592,444.78,428.54
4.93469,443.66,430.60
4.95607,443.97,429.31
4.97506,444.81,431.68
4.99533,441.48,428.65
5.01588,445.19,431.34
5.03485,442.78,431.32
5.05535,443.79,429.72
5.07565,444.60,428.64
5.09543,443.57,430.58
5.11579,445.71,432.59
5.13588,442.46,429.65
5.15603,443.14,433.03
5.17573,444.14,433.26
5.19651,445.07,433.72
5.21662,444.80,429.23
5.23616,442.05,431.90
5.25475,442.93,428.82
5.27627,442.53,431.35
5.29542,440.86,430.92
5.31481,440.42,430.29
5.33623,440.86,429.73
5.35489,440.23,428.69
5.37621,438.65,426.49
5.39643,439.71,428.38
5.41570,438.66,427.17
5.43667,438.47,429.56
5.45566,437.17,428.38
5.47633,437.09,428.47
5.49643,439.60,427.66
5.51483,438.15,429.61
5.53580,437.10,431.33
5.55474,436.52,429.54
5.57638,438.07,427.34
5.59620,437.59,430.50
5.61598,439.36,428.42
5.63630,437.16,430.46
5.65549,437.30,430.79
5.67654,435.81,429.20
5.69603,436.04,430.63
5.71473,438.47,430.73
5.73460,438.65,429.74
5.75559,438.25,426.99
5.77607,440.16,427.02
5.79506,438.22,430.24
5.81485,437.42,426.46
5.83621,437.16,426.64
5.85581,440.61,426.00
5.87580,439.52,430.54
5.89601,439.19,429.70
5.91509,438.40,427.31
5.93588,437.87,413.22
5.95548,432.22,396.95
5.97540,432.27,378.99
5.99618,427.30,360.58
6.01631,423.97,341.70
6.03577,424.17,330.52
6.05469,423.15,316.28
6.07595,421.80,309.17
6.09731,424.50,305.86
6.11667,426.39,306.76
6.13732,423.95,310.11
6.15728,426.40,317.48
6.17550,427.28,325.50
6.19593,427.64,336.18
6.21745,430.49,345.10
6.23584,430.68,355.16
6.25756,433.49,363.72
6.27750,433.22,372.86
6.29631,434.44,378.88
6.31587,434.86,384.21
6.33735,439.28,388.96
6.35609,441.54,392.95
6.37756,439.56,400.71
6.39733,442.34,402.41
6.41620,440.61,405.50
6.43611,440.16,407.29
6.45653,437.96,410.61
6.47731,440.16,411.32
6.49750,436.63,415.03
6.51729,439.95,413.68
6.53693,436.33,424.52
6.55747,438.66,448.36
6.57589,442.94,486.26
6.59669,442.77,522.73
6.61673,445.58,551.03
6.63675,446.37,568.34
6.65674,448.20,574.19
6.67749,446.72,567.99
6.69565,444.75,557.48
6.71756,442.67,544.07
6.73604,442.07,533.29
6.75744,440.64,519.10
6.77676,439.84,507.15
6.79557,441.72,496.05
6.81608,439.51,486.31
6.83581,441.57,479.52
6.85702,442.01,472.51
6.87658,438.67,467.68
6.89722,440.40,461.14
6.91680,439.70,456.37
6.93626,437.45,452.04
6.95723,438.28,447.90
6.97658,438.40,446.25
6.99644,435.86,442.05
7.01729,437.01,442.90
7.03684,436.90,436.72
7.05727,436.12,438.50
7.07593,436.48,435.99
7.09664,434.52,433.87
7.11588,435.60,432.48
7.13719,434.82,432.29
7.15729,436.00,433.41
7.17713,433.88,435.37
7.19600,434.93,434.90
7.21667,434.07,433.81
7.23563,433.78,433.21
7.25683,430.99,433.85
7.27701,431.56,430.34
7.29632,432.81,428.96
7.31681,432.64,431.40
7.33613,433.93,429.96
7.35560,433.86,431.09
7.37578,433.24,430.71
7.39690,431.90,428.11
7.41566,431.52,429.57
7.43663,433.44,429.29
7.45632,433.95,427.55
7.47638,434.07,428.92
7.49736,434.92,427.99
7.51646,435.48,428.72
7.53643,434.88,428.87
7.55643,432.81,429.02
7.57710,432.72,429.20
7.59717,435.39,429.52
7.61559,436.60,428.08
7.63694,433.44,425.62
7.65687,434.92,424.90
7.67560,432.41,427.55
7.69668,432.67,424.91
7.71722,434.52,425.21
7.73582,432.97,424.83
7.75572,436.42,426.75
7.77562,432.94,424.43
7.79612,435.48,425.70
7.81616,433.93,425.04
7.83623,433.35,425.86
7.85745,432.04,428.00
7.87719,433.42,424.15
7.89601,431.77,425.22
7.91592,432.97,427.88
7.93710,433.21,424.80
7.95647,431.98,425.77
7.97679,433.68,424.88
7.99633,433.27,423.63
8.01620,433.76,426.93
8.03674,432.59,425.34
8.05741,434.71,425.05
8.07580,433.83,427.00
8.09584,432.03,425.60
8.11563,431.42,425.87
8.13619,433.08,424.39
8.15551,433.10,427.74
8.17684,431.80,426.30
8.19695,432.12,426.45
8.21750,434.60,427.33
8.23574,432.74,426.16
8.25583,436.79,428.76
8.27710,433.30,425.92
8.29644,436.10,426.10
8.31604,433.23,429.18
8.33717,435.59,425.32
8.35673,432.11,427.29
8.37742,435.09,426.09
8.39723,434.73,423.65
8.41840,433.83,426.52
8.43830,431.22,425.58
8.45763,432.28,425.57
8.47680,431.54,425.30
8.49939,430.99,425.85
8.51879,431.58,425.24
8.53846,431.79,425.72
8.55869,431.40,426.93
8.57936,433.74,423.47
8.59760,432.50,425.07
8.61931,433.58,426.46
8.63851,433.07,424.35
8.65752,434.32,423.52
8.67786,435.89,423.84
8.69816,434.95,425.68
8.71867,437.05,425.56
8.73747,436.62,425.29
8.75883,435.67,426.47
8.77780,435.11,426.21
8.79936,434.27,422.88
8.81873,433.76,422.24
8.83826,436.53,422.54
8.85951,435.34,422.99
8.87790,436.69,423.74
8.89757,436.05,423.92
8.91918,436.52,426.02
8.93912,436.88,424.80
8.95769,436.09,422.92
8.97754,434.69,421.72
8.99787,435.28,422.34
9.01798,436.98,422.73
9.03819,435.19,424.68
9.05912,434.61,423.53
9.07880,436.79,421.56
9.09902,436.39,419.23
9.11838,436.75,420.38
9.13856,433.58,420.58
9.15758,433.20,419.72
9.17769,434.47,418.00
9.19753,434.24,418.34
9.21859,434.18,418.76
9.23790,436.41,418.93
9.25899,436.50,418.98
9.27783,434.63,417.91
9.29845,433.50,419.11
9.31769,436.62,420.17
9.33762,435.91,420.47
9.35932,434.18,420.34
9.37765,434.29,422.61
9.39855,435.28,422.98
9.41814,436.03,414.03
9.43741,434.83,405.20
9.45825,432.07,386.79
9.47851,428.08,368.41
9.49943,425.67,350.92
9.51771,424.16,330.99
9.53874,422.29,318.64
9.55937,420.27,306.22
9.58009,421.68,299.04
9.59945,423.10,294.84
9.61982,425.42,296.84
9.64008,426.30,299.33
9.65990,428.29,303.81
9.68024,430.24,312.63
9.69928,433.67,323.18
9.71853,433.81,333.00
9.73923,436.35,342.70
9.76004,437.18,354.37
9.78010,433.99,361.97
9.79951,436.64,370.74
9.81975,434.20,377.32
9.84129,437.30,380.94
9.86264,437.48,388.90
9.88296,441.01,404.90
9.90317,443.12,436.22
9.92201,444.74,474.37
9.94346,445.96,513.43
9.96186,446.91,542.42
9.98163,451.61,560.32
10.00136,450.63,571.33
10.02192,452.67,574.25
10.04200,450.14,563.46
10.06324,451.99,549.76
10.08340,451.29,537.67
10.10198,450.79,521.79
10.12269,451.51,508.56
10.14303,450.47,499.44
10.16198,451.89,489.97
10.18238,450.23,480.55
10.20156,450.54,472.54
10.22253,452.07,467.04
10.24327,449.96,458.92
10.26237,450.30,454.19
10.28221,444.43,453.05
10.30291,444.46,448.60
10.32175,443.99,445.82
10.34264,447.06,443.30
10.36334,443.65,442.47
10.38256,445.72,436.91
10.40210,445.74,437.31
10.42202,443.98,433.15
10.44172,446.72,434.37
10.46215,447.26,432.58
10.48193,446.37,432.51
10.50297,447.85,434.18
10.52264,445.77,431.18
10.54199,445.11,432.34
10.56167,446.19,431.48
10.58244,447.09,429.89
10.60244,446.85,429.38
10.62177,446.26,431.19
10.64216,446.10,430.03
10.66156,445.59,428.78
10.68261,445.79,426.70
10.70294,444.28,429.46
10.72183,445.89,427.82
10.74224,445.03,429.06
10.76186,446.93,427.17
10.78231,446.95,429.42
10.80166,449.04,426.13
10.82269,446.37,427.58
10.84154,446.17,428.62
10.86299,448.68,426.77
10.88172,449.45,427.74
10.90329,446.38,427.93
10.92248,448.26,430.90
10.94333,446.08,430.77
10.96293,448.26,431.22
10.98252,446.26,430.27
11.00340,445.56,429.74
11.02215,443.56,427.61
11.04262,445.12,429.27
11.06167,446.08,428.31
11.08341,445.70,426.70
11.10180,445.81,426.23
11.12217,447.16,425.86
11.14273,445.96,426.21
11.16318,444.74,428.08
11.18180,445.10,430.59
11.20312,445.07,428.98
11.22203,444.98,427.95
11.24161,445.73,429.50
11.26158,446.67,428.95
11.28333,445.67,428.30
11.30300,448.02,429.45
11.32250,446.03,427.83
11.34274,448.53,429.77
11.36333,447.22,427.58
11.38267,445.91,428.29
11.40263,445.54,426.29
11.42194,447.65,426.51
11.44342,448.52,426.47
11.46246,449.06,429.43
11.48267,449.50,426.19
11.50137,447.10,426.99
11.52332,447.56,426.81
11.54269,450.23,428.86
11.56224,447.62,428.87
11.58337,449.74,427.08
11.60265,449.03,429.99
11.62290,446.16,428.76
11.64261,447.85,429.84
11.66208,446.32,429.55
11.68228,447.36,430.33
11.70227,448.18,427.93
11.72348,446.31,428.16
11.74131,446.71,428.41
11.76172,445.87,430.57
11.78280,446.67,428.44
11.80278,445.17,430.54
11.82433,446.08,427.52
11.84427,447.73,428.46
11.86427,446.41,431.44
11.88313,449.27,428.43
11.90402,446.81,430.84
11.92364,447.72,431.91
11.94332,450.32,428.09
11.96274,448.47,429.64
11.98251,447.23,428.81
12.00386,450.01,431.12
12.02298,449.20,428.39
12.04398,450.29,427.33
12.06336,447.27,427.82
12.08270,448.16,431.10
12.10253,449.84,428.83
12.12334,448.05,429.17
12.14376,449.70,427.84
12.16386,448.51,429.91
12.18322,450.10,431.44
12.20430,448.48,430.48
12.22518,445.81,430.77
12.24553,446.38,431.45
12.26542,447.94,430.70
12.28483,446.75,431.91
12.30528,447.22,431.25
12.32357,447.12,431.76
12.34399,450.33,430.37
12.36366,449.46,429.27
12.38395,447.52,428.75
12.40591,447.40,429.21
12.42526,448.62,430.55
12.44555,448.56,432.35
12.46570,447.03,429.45
12.48587,448.06,429.92
12.50482,446.29,429.47
12.52633,446.77,430.21
12.54506,446.22,428.44
12.56583,444.81,430.65
12.58543,447.67,429.95
12.60591,445.10,429.29
12.62615,448.48,429.74
12.64595,446.94,430.72
12.66552,446.13,432.08
12.68473,446.32,431.20
12.70591,447.13,430.47
12.72599,445.53,428.21
12.74490,444.66,430.95
12.76486,444.11,431.07
12.78444,443.46,430.48
12.80530,442.53,426.27
12.82536,445.38,428.24
12.84599,444.32,428.24
12.86729,445.28,429.73
12.88556,445.24,427.15
12.90606,446.11,429.15
12.92543,443.98,432.48
12.94659,446.79,429.51
12.96673,443.35,432.63
12.98576,445.11,433.08
13.00603,445.42,431.27
13.02553,446.43,431.90
13.04661,444.75,432.28
13.06581,445.99,433.39
13.08705,444.88,431.90
13.10717,447.02,433.54
13.12711,441.93,428.57
13.14764,439.38,412.93
13.16656,438.34,397.43
13.18667,433.31,376.65
13.20688,427.72,358.29
13.22814,424.93,337.89
13.24671,423.50,322.39
13.26755,423.04,314.54
13.28804,420.23,306.23
13.30780,420.27,302.05
13.32799,420.43,305.12
13.34700,425.94,308.06
13.36751,426.38,313.26
13.38827,429.36,322.52
13.40813,432.23,328.05
13.42686,430.77,339.13
13.44769,434.48,347.73
13.46791,435.63,355.90
13.48859,437.49,363.00
13.50761,438.87,373.12
13.52678,439.28,379.02
13.54773,440.78,387.65
13.56749,441.83,392.38
13.58695,440.87,395.55
13.60653,443.83,400.10
13.62787,442.18,405.33
13.64695,441.69,409.84
13.66750,443.35,410.02
13.68703,441.86,414.40
13.70828,443.61,428.47
13.72730,445.56,451.94
13.74694,445.95,484.78
13.76649,449.15,520.85
13.78749,452.14,551.62
13.80797,454.01,568.84
13.82795,456.16,581.24
13.84733,457.30,578.38
13.86634,457.35,571.42
13.88794,460.54,556.18
13.90698,459.08,544.67
13.92741,456.14,525.72
13.94717,453.62,513.18
13.96819,452.37,499.99
13.98790,450.77,488.62
14.00837,447.39,481.17
14.02834,447.47,473.99
14.04708,447.59,465.74
14.06748,443.65,459.01
14.08726,444.27,456.21
14.10757,444.10,453.33
14.12821,444.55,448.50
14.14738,446.06,443.67
14.16682,443.88,441.27
14.18747,442.85,440.77
14.20737,443.78,439.63
14.22711,444.80,436.08
14.24658,442.09,433.98
14.26826,442.40,432.24
14.28810,444.34,432.33
14.30741,440.68,432.19
14.32658,441.20,430.44
14.34824,442.36,431.55
14.36718,441.56,430.19
14.38752,443.20,429.34
14.40759,441.43,431.16
14.42744,444.80,429.17
14.44710,441.95,430.54
14.46825,440.53,431.78
14.48702,439.35,429.59
14.50646,441.87,426.46
14.52738,438.78,425.65
14.54725,438.47,427.98
14.56709,439.46,429.17
14.58845,438.99,427.00
14.60782,441.75,429.33
14.62739,441.13,430.35
14.64847,439.56,428.77
14.66838,437.91,428.03
14.68833,436.97,428.84
14.70735,440.26,429.32
14.72795,438.48,428.90
14.74918,439.91,428.14
14.76940,439.29,426.90
14.78876,436.76,427.79
14.80778,439.05,429.44
14.82910,438.34,426.62
14.84769,439.58,428.14
14.86873,439.37,426.73
14.88959,435.55,427.45
14.91030,438.20,426.51
14.92871,434.13,425.43
14.94887,432.28,426.58
14.96862,434.12,425.24
14.98884,434.51,425.43
15.00965,432.13,425.25
15.03012,431.25,425.56
15.04980,431.40,425.54
15.06949,434.44,426.91
15.09018,436.00,427.27
15.11017,432.84,427.14
15.13009,435.16,427.61
15.14853,437.54,424.00
15.16922,435.56,426.80
15.18847,434.66,425.89
15.20849,434.99,425.35
15.22996,433.21,425.34
15.24960,436.23,426.91
15.26983,434.63,425.75
15.29030,434.35,429.24
15.30896,434.61,427.66
15.32884,433.90,427.92
15.35007,434.98,427.70
15.36997,435.56,424.96
15.39017,432.99,426.81
15.40885,431.87,424.28
15.43000,435.76,425.03
15.44949,432.27,424.08
15.46959,435.30,425.26
15.48881,433.05,422.91
15.50990,434.59,422.57
15.53108,433.56,423.59
15.55018,433.40,423.18
15.56971,432.80,424.90
15.58953,433.24,421.42
15.61137,432.94,424.14
15.63124,435.33,422.89
15.64959,433.32,423.45
15.67109,433.11,423.63
15.68936,434.74,423.86
15.71052,434.95,425.20
15.73018,434.41,425.70
15.74948,433.65,422.64
15.77035,432.61,426.37
15.79083,433.14,423.26
15.81013,431.89,424.13
15.83023,432.78,422.80
15.85017,433.22,421.84
15.87012,431.88,424.62
15.88961,432.34,424.44
15.91117,433.19,424.36
15.93056,435.18,421.31
15.95129,433.29,422.97
15.96975,432.34,424.86
15.98988,431.64,426.49
16.01028,431.76,425.88
16.03107,432.95,426.00
16.05080,432.66,425.45
16.07067,434.26,424.61
16.08972,434.70,425.85
16.11006,434.60,422.46
16.13032,434.15,422.77
16.15116,435.05,421.83
16.16986,434.15,421.70
16.18967,434.57,422.18
16.20998,434.99,423.14
16.23025,435.81,424.45
16.25024,438.55,422.57
16.26928,434.79,423.27
16.29125,438.74,425.21
16.31073,439.02,426.63
16.33060,438.77,426.64
16.35060,437.30,423.58
16.36997,434.83,426.02
16.39059,435.15,424.47
16.40961,438.49,425.71
16.43073,435.69,424.74
16.45108,435.32,425.30
16.47092,433.91,424.58
16.49071,436.31,423.06
16.51046,434.24,423.34
16.53079,434.22,422.60
16.54945,431.88,424.10
16.57065,432.17,422.88
16.59077,432.67,425.97
16.61007,433.04,425.46
16.63065,434.99,424.19
16.65066,436.04,424.79
16.67114,434.58,424.92
16.69001,433.62,423.92
16.70927,433.75,425.19
16.73140,433.11,423.88
16.75078,434.55,426.39
16.77095,432.47,422.95
16.79057,433.49,423.25
16.81143,432.95,424.24
16.83050,434.82,421.22
16.85044,435.13,420.21
16.87179,435.51,421.39
16.89055,433.38,422.60
16.91305,436.34,421.43
16.93226,435.33,422.53
16.95303,435.85,421.68
16.97326,433.22,425.46
16.99276,437.23,425.94
17.01327,436.87,424.16
17.03174,434.16,424.06
17.05309,435.99,425.21
17.07333,436.84,425.20
17.09271,435.96,423.48
17.11133,437.89,425.47
17.13288,434.23,421.62
17.15309,434.14,421.90
17.17240,436.08,423.79
17.19185,437.10,420.00
17.21322,433.01,408.92
17.23336,430.38,392.66
17.25256,429.97,378.72
17.27142,428.31,366.24
17.29217,428.43,354.24
17.31158,428.68,346.67
17.33232,424.53,336.72
17.35200,425.29,329.02
17.37199,425.00,320.79
17.39147,423.87,317.68
17.41171,422.14,313.71
17.43209,423.88,312.57
17.45160,422.91,312.38
17.47284,426.45,316.79
17.49222,426.32,322.23
17.51284,429.53,328.57
17.53295,429.67,336.27
17.55208,432.05,344.33
17.57277,433.40,353.03
17.59168,433.32,361.45
17.61208,434.91,369.11
17.63316,432.53,373.56
17.65207,433.30,376.11
17.67267,433.04,383.36
17.69250,434.71,389.20
17.71268,435.28,404.10
17.73189,433.20,429.05
17.75289,435.13,464.87
17.77350,438.78,505.25
17.79352,441.07,533.35
17.81336,443.54,556.43
17.83373,443.63,568.50
17.85459,446.72,570.92
17.87650,447.14,563.76
17.89691,447.35,551.83
17.91651,452.09,536.97
17.93714,451.57,524.40
17.95884,449.72,512.69
17.97763,450.46,502.85
17.99866,449.02,493.76
18.01896,452.66,482.44
18.03859,451.33,474.61
18.05789,452.90,470.54
18.07876,449.40,460.82
18.09793,448.89,457.23
18.11771,449.91,453.50
18.13870,448.95,451.19
18.15820,449.26,446.41
18.17891,452.02,442.43
18.19841,451.93,440.92
18.21758,452.24,438.79
18.23841,448.75,438.76
18.25908,452.71,435.63
18.27920,452.59,434.33
18.29741,449.69,433.48
18.31953,451.64,434.91
18.33958,449.12,433.28
18.35951,448.58,433.23
18.37952,449.30,429.57
18.39895,449.28,432.80
18.42016,451.88,429.41
18.44057,451.13,432.65
18.46191,451.57,430.82
18.48174,447.73,433.39
18.50218,450.35,430.73
18.52219,447.93,431.09
18.54156,448.07,432.21
18.56063,449.77,432.39
18.58173,448.84,431.77
18.60060,448.48,431.94
18.62104,450.07,431.99
18.64125,447.04,432.47
18.66181,448.24,431.25
18.68099,447.80,431.91
18.70206,447.67,430.81
18.72087,449.05,434.86
18.74093,447.35,436.34
18.76050,446.24,438.02
18.78162,446.74,436.08
18.80191,444.24,439.82
18.82134,444.90,438.80
18.84193,444.12,438.83
18.86113,443.95,437.29
18.88182,444.04,438.45
18.90064,444.35,438.50
18.92069,448.19,439.01
18.94128,445.69,436.02
18.96227,444.72,435.37
18.98230,446.07,434.15
19.00073,445.32,437.56
19.02068,444.12,435.20
19.04062,444.53,435.94
19.06144,447.58,435.07
19.08176,447.67,435.78
19.10307,445.65,436.19
19.12315,445.76,435.71
19.14269,442.40,434.31
19.16384,441.38,433.40
19.18340,443.15,434.34
19.20268,442.06,430.28
19.22416,441.07,431.51
19.24247,443.32,432.37
19.26388,440.49,431.20
19.28338,441.72,429.81
19.30320,441.06,427.96
19.32318,441.80,430.81
19.34341,439.81,428.54
19.36332,439.45,429.72
19.38369,440.91,427.06
19.40305,440.24,426.93
19.42390,440.29,430.23
19.44395,439.01,428.86
19.46428,437.51,426.18
19.48472,438.50,427.04
19.50386,437.30,426.92
19.52466,439.43,425.78
19.54385,436.11,426.20
19.56475,439.74,426.47
19.58343,437.60,428.92
19.60507,437.50,430.07
19.62523,435.49,429.92
19.64463,435.20,427.21
19.66492,437.85,431.19
19.68403,434.95,431.64
19.70359,437.06,431.24
19.72467,435.41,431.76
19.74386,435.09,431.73
19.76501,434.53,431.29
19.78343,434.17,428.49
19.80429,434.73,427.43
19.82553,437.42,428.24
19.84577,434.52,428.08
19.86627,435.89,430.28
19.88504,435.56,426.58
19.90440,436.34,427.51
19.92632,436.79,425.67
19.94566,437.63,424.67
19.96418,436.79,423.87
19.98468,437.71,425.79
20.00556,433.48,427.40
20.02590,434.58,425.50
20.04538,432.79,426.63
20.06639,434.76,424.61
20.08432,437.06,425.00
20.10455,435.22,425.35
20.12607,435.97,425.14
20.14507,435.05,423.72
20.16526,435.49,423.88
20.18590,436.65,423.63
20.20556,437.58,425.37
20.22569,437.25,424.54
20.24424,436.48,422.15
20.26610,432.80,425.27
20.28428,432.71,423.33
20.30533,436.61,424.01
20.32428,434.41,422.83
20.34617,434.40,424.75
20.36528,436.18,424.05
20.38534,434.05,424.86
20.40482,433.95,423.11
20.42592,436.14,421.84
20.44586,433.46,423.86
20.46511,435.97,422.93
20.48508,435.32,424.33
20.50615,434.88,425.21
20.52629,434.72,425.36
20.54437,435.66,424.92
20.56597,432.45,426.03
20.58429,434.45,425.23
20.60620,434.00,426.83
20.62613,435.15,426.06
20.64578,436.23,425.54
20.66504,434.36,424.90
20.68449,435.36,423.73
20.70606,433.44,424.75
20.72461,433.02,423.07
20.74459,436.49,421.65
20.76578,435.03,424.84
20.78422,436.35,424.32
20.80494,436.65,422.77
20.82442,437.50,423.81
20.84541,436.98,422.50
20.86571,433.44,421.90
20.88461,434.52,423.28
20.90529,434.96,424.33
20.92569,432.49,421.39
20.94587,434.56,413.83
20.96538,430.17,399.51
20.98565,433.64,389.25
21.00461,434.14,375.34
21.02480,430.88,362.06
21.04542,430.89,347.85
21.06485,431.14,336.49
21.08582,426.37,323.61
21.10614,425.57,312.09
21.12496,426.70,306.66
21.14462,423.32,302.69
21.16528,422.55,300.69
21.18482,425.76,306.14
21.20490,425.12,310.27
21.22540,427.98,314.59
21.24472,426.47,324.73
21.26535,426.45,330.80
21.28456,428.35,341.72
21.30475,427.83,351.80
21.32606,430.18,358.22
21.34581,432.85,366.44
21.36487,433.53,373.90
21.38561,432.13,380.39
21.40433,432.72,387.77
21.42482,431.56,391.51
21.44427,430.73,399.33
21.46433,429.98,403.56
21.48545,426.56,407.85
21.50463,427.18,406.52
21.52538,424.32,410.53
21.54508,426.19,412.73
21.56557,423.04,411.88
21.58603,424.07,414.79
21.60501,424.25,415.85
21.62436,425.90,426.87
21.64564,427.73,448.68
21.66458,429.95,483.42
21.68460,432.63,520.33
21.70629,434.71,553.11
21.72591,438.96,576.67
21.74486,446.13,590.46
21.76573,448.73,587.10
21.78456,447.16,581.07
21.80542,448.90,567.01
21.82527,446.80,549.71
21.84522,449.27,533.79
21.86477,446.14,519.30
21.88536,445.83,505.08
21.90611,444.01,495.63
21.92637,444.31,483.05
21.94549,442.24,475.70
21.96507,440.73,468.66
21.98523,439.23,462.14
22.00427,440.08,455.38
22.02475,438.99,449.23
22.04548,439.40,444.10
22.06527,439.98,440.35
22.08442,437.29,440.47
22.10427,438.81,436.22
22.12475,438.21,433.96
22.14559,435.27,433.50
22.16510,437.81,431.41
22.18535,433.85,429.96
22.20449,433.53,429.82
22.22556,433.54,428.71
22.24607,436.42,427.11
22.26626,434.62,427.68
22.28582,436.23,424.71
22.30588,436.58,422.99
22.32483,434.74,424.94
22.34487,435.00,422.55
22.36560,433.23,421.50
22.38587,431.32,423.33
22.40434,431.50,422.90
22.42511,432.15,422.86
22.44459,433.41,423.90
22.46499,434.93,424.51
22.48429,433.08,424.30
22.50435,432.91,425.13
22.52492,433.90,423.46
22.54570,433.67,423.54
22.56437,432.81,422.46
22.58503,433.71,423.51
22.60552,433.70,422.60
22.62577,434.54,422.64
22.64584,432.77,420.63
22.66446,431.83,421.79
22.68586,431.84,424.16
22.70600,430.60,421.05
22.72574,433.80,421.46
22.74458,430.55,424.25
22.76511,432.23,422.71
22.78473,430.52,422.90
22.80588,433.05,424.72
22.82495,434.08,423.37
22.84633,433.58,421.46
22.86507,431.94,422.12
22.88446,432.48,424.19
22.90554,432.33,423.56
22.92438,432.45,424.66
22.94432,433.79,423.19
22.96508,431.69,426.37
22.98444,432.94,423.77
23.00609,432.02,425.42
23.02514,433.00,423.84
23.04561,431.40,426.96
23.06515,431.22,426.52
23.08521,432.09,425.31
23.10492,431.79,428.29
23.12605,432.28,427.97
23.14505,433.59,428.01
23.16605,434.77,428.29
23.18507,436.10,428.42
23.20552,432.68,425.97
23.22542,436.50,427.18
23.24468,434.32,423.34
23.26609,436.85,424.00
23.28468,435.61,422.87
23.30575,435.57,423.86
23.32597,437.28,423.22
23.34572,437.15,422.96
23.36604,433.60,424.37
23.38598,435.66,424.03
23.40633,435.92,420.67
23.42519,435.15,423.42
23.44605,436.75,425.10
23.46458,434.89,421.98
23.48456,432.98,422.89
23.50513,432.10,422.60
23.52458,433.24,420.84
23.54472,433.78,421.22
23.56565,430.59,419.58
23.58459,431.18,421.76
23.60515,432.33,420.74
23.62473,430.20,420.30
23.64718,431.30,418.11
23.66594,430.94,418.40
23.68683,430.62,421.10
23.70704,432.52,419.24
23.72593,434.73,420.01
23.74673,433.55,422.04
23.76614,432.01,419.96
23.78623,433.06,422.47
23.80610,431.11,420.43
23.82712,434.29,420.62
23.84651,431.58,424.18
23.86687,435.13,420.64
23.88592,433.41,421.67
23.90525,434.66,422.65
23.92667,433.33,420.27
23.94589,436.48,422.15
23.96539,435.87,420.75
23.98531,435.02,422.37
24.00689,434.20,420.84
24.02669,437.49,422.19
24.04589,435.76,419.65
24.06599,435.23,418.86
24.08681,438.42,418.12
24.10588,435.54,420.84
24.12585,434.52,421.61
24.14713,435.60,421.54
24.16624,436.46,418.14
24.18550,436.60,417.82
24.20557,435.95,417.89
24.22525,434.32,418.86
24.24533,437.89,418.43
24.26619,435.37,419.52
24.28690,433.74,419.98
24.30550,435.02,420.65
24.32626,434.03,416.95
24.34597,431.22,418.08
24.36587,432.31,419.81
24.38632,434.14,418.37
24.40563,436.55,421.69
24.42536,435.48,421.03
24.44603,433.56,419.86
24.46608,433.58,419.27
24.48707,437.85,420.87
24.50533,433.81,420.07
24.52606,433.95,420.44
24.54537,435.11,421.71
24.56598,433.99,419.78
24.58697,435.78,422.46
24.65078,435.15,421.13
24.65032,434.23,424.12
24.65129,435.20,421.73
24.66667,432.92,421.59
24.68573,435.21,421.85
24.70587,432.45,421.21
24.72580,434.16,420.16
24.74580,433.15,419.16
24.76685,434.91,419.07
24.78711,433.61,418.42
24.80735,432.93,419.62
24.82660,434.87,420.40
24.84603,434.50,418.26
24.86612,435.78,420.51
24.88615,435.67,418.75
24.90571,435.82,421.35
24.92512,436.74,420.24
24.94705,438.71,420.60
24.96704,437.58,418.84
24.98766,437.35,420.27
25.00793,437.12,423.50
25.02775,436.34,421.26
25.04783,436.57,419.68
25.06670,436.22,423.73
25.08658,435.42,422.89
25.10783,437.58,421.32
25.12640,437.28,423.37
25.14648,436.15,420.82
25.16724,439.45,423.69
25.18700,439.78,424.20
25.20707,439.75,423.20
25.22827,440.52,427.65
25.24750,437.61,424.30
25.26777,435.03,412.53
25.28925,435.32,401.18
25.30722,432.91,385.01
25.32781,429.04,365.80
25.34868,426.23,348.02
25.36788,422.00,335.65
25.38733,422.23,321.28
25.40911,420.78,312.73
25.42790,419.43,305.97
25.44906,422.55,303.61
25.46733,426.12,307.26
25.48888,426.40,309.42
25.50743,431.41,316.15
25.52739,432.16,321.80
25.54760,435.31,328.16
25.56789,437.23,339.97
25.58822,435.69,347.04
25.60769,436.61,354.46
25.62919,436.44,364.69
25.64727,439.64,371.57
25.66856,440.63,379.98
25.68862,441.68,385.89
25.70803,442.60,389.57
25.72757,445.38,394.28
25.74828,442.65,398.05
25.76741,445.12,400.81
25.78770,441.10,401.96
25.80897,441.06,403.17
25.82787,442.74,406.75
25.84806,443.08,409.88
25.86890,443.42,409.78
25.88834,444.14,417.03
25.90798,445.18,435.88
25.92863,446.00,467.01
25.94857,448.24,502.94
25.96727,448.44,541.67
25.98876,453.01,571.63
26.00850,454.53,589.83
26.02737,459.84,593.86
26.04873,457.68,586.64
26.06836,456.70,570.27
26.08823,459.49,555.54
26.10799,455.43,537.52
26.12789,454.79,522.64
26.14842,454.64,503.57
26.16865,452.89,490.43
26.18729,453.26,480.48
26.20851,451.05,468.41
26.22792,449.44,462.04
26.24763,448.94,455.23
26.26894,448.75,450.15
26.28805,448.73,447.99
26.30901,450.17,444.78
26.32902,452.79,441.24
26.34749,451.80,438.73
26.36804,449.66,435.76
26.38855,452.59,432.71
26.40723,450.25,431.99
26.42831,451.09,431.73
26.44904,451.65,429.25
26.46729,449.89,431.68
26.48735,448.44,429.15
26.50745,449.21,428.92
26.52761,446.70,428.56
26.54841,446.63,428.10
26.56861,448.89,426.66
26.58847,448.96,429.13
26.60834,449.44,426.80
26.62725,448.25,429.70
26.64871,445.74,425.66
26.66764,447.23,428.79
26.68767,443.86,425.80
26.70857,447.13,427.09
26.72805,444.43,426.18
26.74868,446.73,424.47
26.76722,444.36,427.18
26.78762,445.74,424.95
26.80840,445.16,423.75
26.82799,446.48,427.09
26.84866,447.24,427.12
26.86780,447.39,425.65
26.88725,446.49,426.57
26.90799,447.19,428.96
26.92882,446.98,426.45
26.94860,449.01,428.83
26.96702,448.01,430.78
26.98791,449.22,427.01
27.00787,446.02,429.56
27.02902,448.87,427.08
27.04884,447.73,430.31
27.06747,447.48,429.17
27.08843,449.34,426.64
27.10904,445.61,428.51
27.12881,445.20,426.45
27.14883,449.25,427.96
27.16888,448.55,427.11
27.18874,448.51,425.85
27.20775,448.00,425.75
27.22838,447.20,425.49
27.24778,448.43,425.09
27.26786,447.80,425.81
27.28831,448.10,425.68
27.30743,448.47,425.60
27.32803,448.50,424.35
27.34749,448.53,426.60
27.36841,449.71,425.73
27.38850,447.57,427.30
27.40761,449.03,426.32
27.42901,448.36,426.48
27.44823,444.48,427.11
27.46762,446.42,423.80
27.48834,449.01,426.71
27.50760,449.03,426.45
27.52866,445.52,426.55
27.54871,447.75,425.12
27.56877,446.96,426.18
27.58841,449.18,425.02
27.60715,449.63,426.58
27.62909,446.73,425.68
27.64812,450.02,426.40
27.66833,447.07,425.73
27.68769,448.81,427.72
27.70806,449.21,429.07
27.72754,446.90,426.41
27.74782,447.61,430.05
27.76770,449.01,427.59
27.78869,447.93,426.24
27.80763,447.26,428.23
27.82831,447.16,427.90
27.84871,445.95,429.21
27.86735,445.82,425.30
27.88727,447.98,426.01
27.90875,447.21,428.31
27.92747,445.86,428.90
27.94848,446.09,428.07
27.96802,446.47,426.24
27.98777,449.28,425.71
28.00746,447.22,426.81
28.02895,449.18,424.09
28.04801,448.62,423.51
28.06840,448.74,423.02
28.08791,446.72,424.96
28.10877,446.92,425.49
28.12727,446.22,423.39
28.14697,446.37,427.09
28.16808,446.98,427.54
28.18693,450.85,427.77
28.20818,448.87,428.93
28.22762,448.45,425.65
28.24762,450.15,426.31
28.26768,447.71,429.43
28.28862,446.52,429.58
28.30884,448.69,427.67
28.32753,448.85,425.96
28.34875,446.85,428.95
28.36743,447.62,427.57
28.38864,445.96,426.41
28.40818,446.29,426.27
28.42875,447.33,425.81
28.44900,449.04,428.15
28.46773,450.33,426.46
28.48830,448.36,429.90
28.50960,451.99,428.89
28.52886,454.00,428.29
28.55004,452.19,430.02
28.56960,449.89,428.15
28.58924,451.01,430.12
28.60990,449.82,429.14
28.62824,451.84,427.07
28.65005,448.02,428.84
28.66927,450.36,427.13
28.68965,448.20,427.28
28.70929,450.76,429.97
28.72889,448.84,431.11
28.74913,446.17,427.77
28.76877,445.41,427.42
28.78836,448.34,427.79
28.80996,445.65,427.31
28.82964,449.24,429.33
28.84874,448.00,429.38
28.86973,446.86,430.11
28.88835,446.85,428.42
28.90858,446.58,427.17
28.92879,446.39,430.32
28.94993,445.76,429.67
28.96965,445.20,430.29
28.98984,446.92,431.41
29.00814,444.73,427.69
29.03020,444.41,428.16
29.04847,446.70,429.23
29.06914,445.60,431.07
29.08819,443.99,427.34
29.10931,446.75,428.83
29.12894,447.65,428.22
29.14822,445.98,430.29
29.16868,447.34,429.87
29.18910,446.33,429.77
29.20931,447.81,427.12
29.23002,447.79,428.99
29.24993,448.67,428.26
29.26921,450.28,427.29
29.28931,447.40,429.99
29.30943,447.02,427.01
29.32929,449.43,430.20
29.34995,447.10,429.46
29.36848,449.33,425.66
29.38921,449.49,428.76
29.40989,447.74,428.96
29.42941,449.03,428.32
29.45026,448.55,428.09
29.47030,444.77,428.25
29.49077,444.71,427.46
29.50941,445.44,426.65
29.53043,447.68,427.12
29.55080,445.46,430.49
29.56938,447.70,431.45
29.58911,446.08,431.34
29.61078,446.09,430.76
29.63038,450.22,430.36
29.65048,449.81,428.30
29.67106,447.62,430.22
29.69053,450.15,430.85
29.71071,447.48,433.13
29.73023,448.95,427.58
29.75075,447.88,421.16
29.77007,443.28,405.75
29.79020,441.53,391.22
29.81064,439.44,371.76
29.82929,437.78,357.22
29.85023,436.48,340.82
29.86947,433.27,329.13
29.88959,433.53,319.49
29.90980,434.28,314.35
29.93065,433.33,310.35
29.95049,434.55,314.75
29.97078,434.91,315.35
29.98957,435.77,321.71
30.01007,435.70,327.36
30.03045,438.90,338.39
30.05065,441.35,346.99
30.06944,440.56,354.56
30.09041,442.03,362.97
30.11091,444.82,369.58
30.13009,444.84,378.23
30.14985,444.27,382.71
30.17051,445.82,390.55
30.18986,444.92,397.45
30.21013,445.33,400.84
30.22951,442.54,406.37
30.25003,444.66,406.92
30.26948,445.63,412.82
30.28977,444.59,435.16
30.30976,447.71,463.18
30.33101,449.44,504.49
30.34988,454.85,536.74
30.36959,453.61,562.41
30.39039,454.48,575.78
30.41034,458.97,577.06
30.42914,457.98,575.92
30.45083,457.35,563.18
30.47091,459.75,551.42
30.48984,459.11,538.17
30.51075,458.54,521.43
30.53014,455.68,509.27
30.54999,455.21,493.86
30.56920,450.77,481.43
30.59081,451.97,474.09
30.60945,450.62,466.36
30.62957,451.36,461.87
30.64955,451.81,454.27
30.67081,449.52,449.75
30.69088,448.00,445.55
30.70988,450.40,440.19
30.72923,448.02,439.54
30.74980,447.65,438.54
30.76916,448.15,435.49
30.78988,443.85,433.68
30.80994,442.85,430.99
30.82917,444.01,429.43
30.85064,443.13,431.54
30.87060,445.07,429.18
30.89101,443.69,431.18
30.91084,444.59,429.66
30.92939,444.09,432.46
30.95036,446.64,432.83
30.96883,447.47,430.89
30.99024,445.69,431.90
31.00994,444.79,432.65
31.02968,444.57,431.41
31.04915,446.12,433.62
31.06914,446.25,430.08
31.08934,447.99,429.29
31.11007,446.76,429.22
31.13014,448.42,430.35
31.14954,447.52,429.92
31.17062,448.86,429.41
31.19035,447.86,426.95
31.20970,445.87,428.04
31.23094,444.82,427.80
31.24978,447.68,429.11
31.27060,447.43,430.34
31.28995,446.25,428.30
31.31085,447.88,429.82
31.32913,444.65,428.10
31.35076,447.57,428.48
31.37048,444.55,426.67
31.39015,447.74,429.51
31.40928,444.10,428.16
31.42983,444.25,426.67
31.44914,444.20,427.65
31.46941,443.48,428.92
31.48924,444.72,428.53
31.51110,442.04,429.37
31.52939,444.48,430.78
31.54915,442.42,432.05
31.56903,442.62,429.80
31.59027,444.86,433.03
31.60960,443.84,430.53
31.63101,445.66,432.68
31.65066,445.04,431.22
31.67062,443.45,432.52
31.69104,444.99,429.07
31.70998,445.89,429.17
31.72995,447.97,431.05
31.75014,444.75,430.08
31.76947,446.40,428.31
31.78993,444.64,429.57
31.80934,445.31,429.55
31.83018,444.02,426.17
31.85001,443.05,426.76
31.86919,444.45,428.26
31.89056,441.61,430.26
31.91042,442.66,428.00
31.93034,442.94,427.99
31.95045,443.61,427.81
31.97022,442.31,427.30
31.99045,443.47,429.97
32.01087,444.74,427.73
32.02957,444.11,428.70
32.04935,447.00,428.67
32.07055,445.92,430.53
32.09090,445.11,426.93
32.10902,445.90,429.70
32.12983,443.13,429.87
32.15035,445.61,430.98
32.16889,442.52,431.05
32.19047,442.93,429.84
32.21004,445.84,431.07
32.22999,446.04,432.64
32.24949,444.54,433.35
32.26924,442.67,433.50
32.28998,446.55,429.71
32.31040,441.93,431.33
32.33011,444.94,431.74
32.35055,446.38,429.71
32.37099,442.87,431.76
32.39032,445.95,428.29
32.41084,445.06,430.47
32.43077,444.26,427.65
32.45071,445.08,428.05
32.46903,442.15,427.03
32.48920,442.99,429.21
32.51037,443.77,427.56
32.52985,444.28,427.74
32.54904,442.46,426.91
32.56938,444.48,428.30
32.58968,442.97,428.97
32.60950,442.65,426.23
32.63003,440.70,425.50
32.65023,440.88,426.66
32.67016,441.64,428.04
32.68920,444.46,427.83
32.71011,442.27,426.94
32.73075,443.44,426.19
32.74946,446.08,426.62
32.77070,443.96,427.62
32.78965,442.10,429.22
32.81094,441.88,429.81
32.82962,440.47,427.87
32.84936,440.81,428.76
32.87100,442.24,427.54
32.88967,443.36,425.81
32.91012,441.20,428.92
32.93030,441.48,426.71
32.95096,441.48,424.48
32.96927,442.91,425.99
32.98966,443.30,427.55
33.00907,443.79,426.43
33.03094,441.41,425.32
33.05015,440.37,425.10
33.07003,441.63,426.44
33.08917,438.99,427.38
33.11002,439.78,426.97
33.13006,440.99,426.64
33.14982,441.75,425.64
33.16965,443.50,427.88
33.19038,441.25,426.34
33.20990,440.38,426.14
33.22961,439.96,425.22
33.24971,439.70,426.44
33.27023,441.49,427.75
33.29000,438.75,426.18
33.31059,439.01,428.56
33.33044,439.25,425.89
33.34924,442.50,427.38
33.37045,438.87,425.72
33.38983,438.75,428.01
33.40931,438.96,425.61
33.43012,438.16,425.46
33.45000,441.23,428.37
33.47062,442.10,428.24
33.48905,441.72,425.98
33.51057,442.24,428.00
33.52989,443.35,427.49
33.55011,444.74,424.83
33.56902,444.55,427.41
33.58915,442.52,425.08
33.61066,439.63,426.02
33.63025,439.06,428.00
33.64983,437.53,425.79
33.67019,440.14,424.77
33.69088,438.65,425.18
33.70970,440.37,424.77
33.73055,440.07,426.93
33.74993,439.96,424.49
33.77072,442.95,423.48
33.78941,441.70,424.53
33.81039,440.27,427.24
33.82999,440.24,427.24
33.84929,441.61,424.00
33.87059,441.27,426.14
33.89094,440.90,425.85
33.91116,437.38,425.28
33.93056,440.25,425.20
33.95066,437.79,426.74
33.97126,437.59,427.16
33.99249,437.82,425.42
34.01292,438.05,426.67
34.03176,436.97,425.81
34.05181,435.01,424.69
34.07245,437.01,423.81
34.09206,434.50,425.54
34.11252,434.55,421.18
34.13113,433.14,420.97
34.15132,436.21,420.74
34.17197,435.17,423.36
34.19168,434.59,422.08
34.21150,435.97,421.42
34.23109,437.56,420.23
34.25258,434.44,420.66
34.27071,436.50,421.93
34.29157,433.62,423.13
34.31281,433.95,423.89
34.33295,436.22,424.29
34.35275,435.06,421.33
34.37252,434.29,424.65
34.39109,435.51,425.23
34.41260,435.31,428.64
34.43177,434.25,421.81
34.45215,433.60,408.36
34.47260,431.16,388.63
34.49153,427.65,368.04
34.51194,426.36,348.56
34.53194,420.28,330.81
34.55187,419.05,321.21
34.57286,417.29,310.43
34.59151,418.65,304.93
34.61269,419.77,302.28
34.63184,421.14,308.24
34.65250,426.58,309.47
34.67281,428.72,318.52
34.69165,431.31,324.37
34.71098,434.49,334.70
34.73225,435.08,342.88
34.75381,436.76,351.69
34.77362,437.57,362.68
34.79250,436.27,368.46
34.81333,437.90,375.18
34.83250,437.84,379.14
34.85373,437.86,385.47
34.87232,438.89,390.56
34.89232,435.84,394.23
34.91248,433.58,396.98
34.93278,430.61,403.19
34.95268,428.43,404.68
34.97241,424.79,408.43
34.99214,425.16,407.10
35.01283,425.77,410.66
35.03225,425.79,412.76
35.05246,426.94,412.07
35.07215,429.52,422.13
35.09202,431.02,445.77
35.11213,438.68,475.85
35.13307,442.63,512.39
35.15281,446.02,543.05
35.17298,449.12,562.86
35.19297,448.66,579.95
35.21290,449.24,577.39
35.23305,446.91,567.20
35.25361,445.32,552.98
35.27371,445.28,538.00
35.29281,442.35,525.57
35.31250,440.19,512.70
35.33222,440.31,498.02
35.35387,439.84,486.85
35.37272,439.34,477.48
35.39355,436.83,468.36
35.41213,436.58,463.21
35.43346,435.77,455.94
35.45228,433.85,450.46
35.47262,432.39,444.70
35.49254,432.60,441.14
35.51347,433.53,436.90
35.53263,435.46,436.25
35.55405,431.82,433.77
35.57221,433.39,431.98
35.59351,431.31,428.13
35.61328,431.65,426.81
35.63253,431.57,427.33
35.65269,433.97,424.58
35.67216,432.75,423.94
35.69233,431.67,424.42
35.71304,433.94,424.08
35.73251,433.59,425.69
35.75197,429.85,425.99
35.77219,431.76,430.62
35.79315,433.46,434.59
35.81233,433.21,436.10
35.83246,432.22,435.72
35.85273,432.81,434.09
35.87353,434.97,434.05
35.89362,431.52,431.22
35.91272,430.97,427.72
35.93191,430.87,425.97
35.95273,432.95,424.28
35.97350,434.27,424.46
35.99221,434.84,423.54
36.01208,431.98,421.58
36.03263,435.21,420.64
36.05232,432.76,420.36
36.07384,432.42,418.98
36.09266,434.32,416.89
36.11297,434.00,417.51
36.13332,435.28,422.88
36.15272,435.90,427.91
36.17363,435.57,443.44
36.19314,436.38,466.59
36.21342,440.15,494.08
36.23259,443.32,517.88
36.25275,439.85,528.83
36.27267,440.52,520.41
36.29291,440.99,505.65
36.31379,438.57,486.95
36.33336,434.06,468.20
36.35320,435.01,446.54
36.37259,431.87,430.45
36.39375,432.07,414.30
36.41281,428.33,406.00
36.43198,428.89,397.29
36.45365,430.17,388.98
36.47201,425.92,386.35
36.49354,426.52,384.73
36.51332,425.31,383.49
36.53330,426.39,384.01
36.55223,429.08,387.07
36.57320,426.03,388.65
36.59222,428.87,391.34
36.61465,427.31,395.63
36.63574,428.78,396.10
36.65513,429.74,400.61
36.67430,431.96,402.04
36.69425,429.97,406.82
36.71558,432.70,406.62
36.73467,429.89,410.24
36.75506,433.38,412.46
36.77391,432.29,416.07
36.79552,435.30,415.27
36.81658,436.66,419.43
36.83603,434.32,417.80
36.85603,433.28,419.82
36.87612,434.02,420.81
36.89583,435.37,421.57
36.91567,432.80,420.35
36.93617,433.79,421.15
36.95617,435.28,422.56
36.97564,433.55,423.11
36.99473,433.99,424.01
37.01642,434.37,423.37
37.03493,436.79,421.21
37.05607,437.12,423.89
37.07651,435.33,422.92
37.09548,439.30,425.94
37.11521,438.44,424.43
37.13657,438.71,422.72
37.15528,437.89,425.45
37.17585,436.38,424.14
37.19608,438.02,424.51
37.21609,437.48,424.32
37.23513,439.69,424.33
37.25599,437.26,424.67
37.27689,437.66,425.07
37.29610,438.83,422.22
37.31567,438.76,423.24
37.33658,436.48,422.07
37.35609,439.52,421.31
37.37584,437.00,422.84
37.39668,438.32,421.39
37.41542,437.83,421.38
37.43525,437.67,419.86
37.45537,437.54,420.86
37.47574,436.28,422.13
37.49633,440.44,423.26
37.51573,439.97,419.79
37.53663,440.15,422.37
37.55643,440.05,423.55
37.57602,437.06,423.59
37.59531,438.33,423.39
37.61505,439.74,423.19
37.63666,436.30,423.28
37.65522,436.10,424.55
37.67573,436.32,422.79
37.69595,441.03,422.85
37.71530,439.97,425.10
37.73528,437.55,424.15
37.75565,440.31,422.82
37.77649,438.22,422.25
37.79506,435.91,424.46
37.81559,435.27,423.05
37.83568,437.06,423.68
37.85475,438.47,422.34
37.87524,437.04,422.25
37.89537,438.21,422.54
37.91642,436.57,423.07
37.93598,439.69,422.88
37.95518,440.16,424.16
37.97513,440.58,424.52
37.99579,439.75,424.29
38.01525,440.30,422.70
38.03475,439.11,423.62
38.05584,440.65,421.67
38.07630,441.10,422.28
38.09520,439.62,423.59
38.11613,438.36,420.73
38.13531,440.03,421.44
38.15637,438.09,421.83
38.17778,438.87,421.19
38.19744,441.70,420.94
38.21585,443.36,421.75
38.23743,441.66,423.95
38.25731,440.12,422.10
38.27629,441.59,424.98
38.29715,438.18,422.73
38.31678,441.31,423.89
38.33668,441.74,424.76
38.35711,443.05,423.67
38.37755,440.91,424.38
38.39734,443.75,425.02
38.41690,440.72,424.93
38.43760,442.36,425.92
38.45744,441.84,425.63
38.47756,440.90,424.44
38.49781,440.74,426.29
38.51662,440.05,427.15
38.53615,441.07,424.42
38.55759,440.74,424.26
38.57784,441.46,423.58
38.59624,438.43,425.74
38.61673,441.95,425.20
38.63662,443.14,427.72
38.65664,443.24,427.81
38.67762,444.75,427.14
38.69632,441.85,427.83
38.71681,443.82,424.53
38.73767,442.34,424.63
38.75627,443.81,425.45
38.77616,441.90,428.53
38.79701,442.34,424.35
38.81721,441.62,427.17
38.83741,444.86,424.32
38.85650,443.93,424.51
38.87763,446.12,427.26
38.89608,443.84,428.64
38.91666,444.34,427.94
38.93741,442.73,417.25
38.95695,439.56,401.49
38.97696,440.92,382.36
38.99627,437.72,366.13
39.01824,433.99,347.66
39.03785,433.19,333.40
39.05859,429.82,322.40
39.07754,427.35,317.49
39.09875,426.47,312.30
39.11713,426.63,311.51
39.13759,427.95,312.41
39.15816,429.24,316.88
39.17687,430.33,323.91
39.19847,434.65,330.83
39.21810,432.89,337.38
39.23815,436.78,344.03
39.25804,436.79,351.53
39.27852,436.61,361.73
39.29857,438.09,367.76
39.31786,440.27,376.07
39.33697,442.58,381.23
39.35944,444.30,389.90
39.37790,445.12,394.72
39.39906,447.61,397.35
39.41802,447.96,400.99
39.43925,449.50,406.54
39.45796,445.91,407.70
39.47970,447.82,412.01
39.49909,450.13,410.60
39.51850,448.87,414.81
39.53837,449.46,426.50
39.55814,451.41,453.06
39.57879,451.80,487.73
39.59884,456.75,520.84
39.61806,459.35,547.16
39.63912,458.37,565.33
39.65795,462.86,575.54
39.67959,461.96,576.82
39.69975,460.93,566.76
39.71835,460.48,551.39
39.73961,460.45,535.83
39.75800,458.93,521.09
39.77913,458.23,507.48
39.79888,458.21,494.84
39.81910,455.82,483.89
39.83785,455.19,477.28
39.85813,452.08,469.39
39.87907,454.66,462.83
39.89876,451.28,456.12
39.91952,452.68,451.70
39.93804,451.51,446.97
39.95884,452.18,444.14
39.97883,449.58,438.71
39.99891,449.02,438.02
40.01799,446.93,435.06
40.03883,448.38,433.25
40.05867,447.51,434.78
40.07840,447.77,431.50
40.09829,447.70,433.05
40.11888,445.30,430.90
40.13884,446.71,429.64
40.15856,449.27,429.90
40.17865,448.33,429.46
40.19816,450.32,431.61
40.21799,447.66,431.14
40.23931,450.30,429.81
40.25939,448.66,428.64
40.27987,447.59,428.67
40.30033,445.72,430.25
40.31942,448.60,430.67
40.34064,446.89,429.56
40.35952,448.57,430.20
40.37998,447.48,429.30
40.40038,448.68,431.77
40.41997,447.43,430.71
40.44072,448.98,429.66
40.45894,447.43,429.35
40.47892,447.35,430.12
40.49928,447.58,428.32
40.52049,448.74,430.06
40.53902,448.00,430.30
40.55914,450.00,428.97
40.58060,447.62,431.22
40.59999,449.19,428.87
40.61965,448.12,429.35
40.63879,445.58,427.99
40.66061,448.51,431.13
40.67970,449.53,430.81
40.69996,447.12,430.44
40.72045,449.68,430.74
40.73896,446.71,430.77
40.75941,448.69,428.99
40.77964,448.41,431.09
40.79891,447.72,433.42
40.81997,449.69,433.25
40.83989,447.69,430.54
40.86042,446.89,430.00
40.87941,446.90,429.64
40.90046,449.98,427.80
40.92070,450.81,427.78
40.94022,450.50,426.40
40.96018,449.70,427.65
40.98039,447.66,426.42
41.00066,448.00,427.45
41.01912,445.80,429.42
41.03922,448.11,428.11
41.05972,446.72,430.38
41.07896,445.02,429.01
41.10016,446.13,430.63
41.11939,445.55,429.34
41.13996,445.65,430.51
41.16148,447.49,429.19
41.18059,447.28,429.09
41.20131,445.41,429.14
41.22025,445.77,431.04
41.24156,448.79,430.94
41.26125,445.19,431.21
41.28065,445.23,427.24
41.30001,447.00,430.28
41.32094,446.15,426.98
41.34045,445.93,427.42
41.36166,448.20,429.62
41.38144,448.36,428.76
41.40153,447.12,427.27
41.42123,449.50,430.00
41.44055,447.08,428.70
41.46067,447.93,432.21
41.48038,446.53,431.54
41.50140,448.12,431.99
41.52048,446.69,432.52
41.54124,450.37,431.37
41.56173,447.95,430.66
41.58044,447.07,430.29
41.60025,447.76,430.20
41.62169,450.12,431.98
41.64027,449.31,429.52
41.65995,450.15,431.07
41.68055,450.67,431.07
41.70074,452.01,429.24
41.72086,451.38,429.49
41.74095,452.99,429.29
41.76175,455.07,430.25
41.78073,455.04,429.00
41.80042,454.84,430.03
41.82164,451.48,428.38
41.84040,453.39,430.29
41.86142,451.72,427.29
41.88043,452.38,429.14
41.90114,452.03,427.36
41.92101,450.17,427.24
41.94150,450.74,429.26
41.96029,448.95,425.51
41.98185,446.79,428.24
42.00146,446.02,426.92
42.02020,447.13,428.04
42.04071,448.30,425.97
42.06043,446.73,425.31
42.08063,445.37,426.40
42.10164,447.37,429.43
42.11987,447.82,426.84
42.14172,447.57,428.90
42.16162,448.10,428.25
42.18081,445.48,426.79
42.20103,444.35,429.65
42.22122,446.07,426.15
42.24012,443.77,429.46
42.26106,442.93,427.99
42.28026,443.75,428.21
42.30061,445.45,426.62
42.32011,442.97,425.41
42.34033,445.88,427.55
42.35993,445.37,426.50
42.37996,446.80,428.10
42.40035,444.26,427.67
42.42132,445.83,431.32
42.44077,444.11,434.00
42.46167,444.38,436.05
42.48111,444.97,435.03
42.50097,445.30,431.82
42.52074,447.26,433.46
42.53988,448.17,430.09
42.56119,445.57,430.98
42.58074,447.40,428.46
42.60036,447.60,429.95
42.62024,445.63,426.85
42.64035,446.67,429.84
42.66113,449.54,429.50
42.68144,445.97,428.65
42.70050,445.44,428.76
42.72130,445.50,428.81
42.74145,446.09,426.49
42.76168,447.81,427.92
42.78026,448.14,429.80
42.80056,446.93,429.00
42.82117,446.79,431.41
42.84138,448.32,431.32
42.86121,445.24,428.62
42.88106,446.75,427.97
42.89981,447.51,430.42
42.92056,449.05,429.97
42.94044,448.56,430.99
42.96121,447.91,428.01
42.98029,445.81,428.09
43.00017,448.24,429.09
43.01985,448.73,428.97
43.04016,446.61,426.55
43.06143,447.98,425.98
43.08102,445.21,426.00
43.10029,447.22,425.37
43.12047,448.78,427.99
43.14139,447.17,426.78
43.16074,449.03,425.75
43.18151,444.54,426.76
43.20058,446.23,427.31
43.22158,447.26,429.08
43.24115,449.51,428.96
43.26177,447.82,429.59
43.28121,447.52,429.87
43.30076,447.41,429.40
43.32135,446.41,429.73
43.34104,447.70,431.38
43.36143,449.14,430.49
43.38061,447.69,430.83
43.40096,446.64,431.40
43.42142,449.61,428.10
43.44054,446.11,420.86
43.46018,445.61,406.35
43.48176,440.75,387.54
43.50000,435.10,363.99
43.52151,435.09,344.16
43.54034,428.07,326.34
43.56084,429.06,312.66
43.58052,425.63,305.96
43.60004,426.94,300.45
43.62119,425.70,301.73
43.64022,428.31,302.87
43.66022,428.07,306.32
43.68105,429.59,315.37
43.70008,431.07,321.02
43.72084,432.74,330.44
43.73991,433.53,340.88
43.76093,438.15,347.32
43.78175,435.72,357.40
43.80048,441.18,367.69
43.82076,438.60,374.00
43.84174,441.37,383.36
43.86125,442.16,387.61
43.88001,443.20,394.07
43.90147,446.31,405.57
43.92079,452.13,421.41
43.94086,456.82,437.41
43.96089,459.81,450.66
43.98240,465.70,455.54
44.00079,464.64,458.41
44.02156,463.47,459.55
44.04084,464.04,458.48
44.06091,464.18,452.36
44.08175,461.67,456.79
44.10132,458.38,474.29
44.12247,454.65,502.80
44.14140,450.18,530.82
44.16222,449.64,546.42
44.18236,444.24,558.64
44.20217,443.17,553.54
44.22102,442.94,548.72
44.24080,441.06,537.94
44.26150,442.88,527.56
44.28147,442.45,512.98
44.30077,440.85,501.96
44.32256,440.65,493.40
44.34248,439.50,483.04
44.36319,438.02,476.61
44.38163,439.36,470.23
44.40277,440.71,463.30
44.42246,438.93,458.99
44.44178,439.59,455.34
44.46308,440.67,451.79
44.48346,445.74,445.15
44.50296,450.15,442.97
44.52275,447.81,437.42
44.54285,447.43,434.99
44.56362,449.81,435.27
44.58259,449.20,432.22
44.60212,449.58,429.95
44.62313,447.44,430.07
44.64364,449.49,430.71
44.66259,447.18,430.01
44.68290,448.42,430.03
44.70223,448.30,428.83
44.72237,444.87,431.24
44.74374,445.82,432.08
44.76276,446.43,428.50
44.78191,443.95,429.24
44.80300,443.60,430.58
44.82280,446.24,431.88
44.84304,445.08,432.30
44.86305,443.50,430.49
44.88212,443.53,432.63
44.90357,442.32,429.65
44.92334,441.19,430.07
44.94319,442.09,430.22
44.96311,440.66,427.44
44.98253,438.37,429.82
45.00278,440.01,429.61
45.02285,440.20,428.41
45.04283,442.46,428.22
45.06244,441.80,429.41
45.08194,442.28,429.44
45.10344,441.83,428.91
45.12346,442.09,430.30
45.14358,439.38,431.11
45.16207,441.06,432.51
45.18332,441.66,430.45
45.20319,439.24,430.54
45.22241,439.74,428.23
45.24261,438.81,428.88
45.26379,439.56,427.04
45.28368,435.74,426.85
45.30246,439.44,430.08
45.32236,438.04,426.84
45.34229,439.98,428.35
45.36347,438.91,426.96
45.38368,438.37,427.84
45.40329,439.51,427.40
45.42327,437.72,430.92
45.44411,440.46,427.46
45.46403,438.33,427.65
45.48301,438.62,429.47
45.50384,439.41,425.02
45.52332,438.17,423.92
45.54299,438.78,424.07
45.56404,439.18,425.04
45.58304,435.13,428.74
45.60418,436.17,434.55
45.62286,435.80,438.12
45.64409,436.70,438.77
45.66320,436.56,436.05
45.68399,439.16,435.99
45.70441,434.79,436.87
45.72301,435.90,435.26
45.74406,437.73,435.98
45.76368,433.69,434.52
45.78526,433.85,433.62
45.80519,435.98,434.29
45.82488,433.91,433.60
45.84480,433.45,430.01
45.86597,434.53,430.32
45.88594,432.88,431.51
45.90504,433.66,431.34
45.92641,434.96,429.72
45.94649,431.84,428.84
45.96521,432.69,431.22
45.98587,433.72,432.12
46.00649,434.26,431.39
46.02499,433.12,432.13
46.04606,434.05,428.18
46.06724,433.56,430.46
46.08824,435.55,429.56
46.10851,436.08,427.26
46.12698,434.02,428.01
46.14852,433.92,424.92
46.16756,435.73,425.43
46.18750,435.65,423.95
46.20715,432.78,423.57
46.22769,433.16,424.99
46.24703,432.07,425.07
46.26732,432.45,425.38
46.28828,431.73,426.43
46.30745,433.90,423.21
46.32836,435.00,422.72
46.34701,431.96,423.24
46.36813,432.94,421.34
46.38752,432.09,422.86
46.40863,432.57,421.13
46.42858,431.99,421.60
46.44684,432.64,419.06
46.46800,432.05,417.77
46.48669,434.31,419.09
46.50773,432.96,419.35
46.52967,435.71,421.38
46.54936,435.14,422.70
46.56888,436.24,424.01
46.58859,432.94,422.21
46.60925,435.85,422.61
46.62908,435.00,424.32
46.64878,433.21,424.91
46.66891,437.33,422.32
46.69037,438.90,425.13
46.71091,436.25,423.40
46.73134,440.02,423.81
46.75080,440.65,426.56
46.76988,438.38,425.55
46.79172,440.38,427.49
46.81133,439.64,424.13
46.83004,438.01,424.90
46.85109,439.60,424.96
46.86998,437.25,426.78
46.89165,438.07,426.34
46.90994,439.84,424.45
46.93157,437.79,424.45
46.95035,438.82,425.67
46.97156,438.21,427.52
46.98962,437.45,427.07
47.01036,438.33,425.57
47.02961,438.03,424.48
47.05066,439.06,427.10
47.07100,441.83,426.78
47.08982,439.57,426.51
47.11053,442.88,423.98
47.13002,440.59,427.29
47.15014,443.39,425.24
