Program Time [s],data 0,data 1
10.16024,551.15,664.66
10.17987,566.46,656.52
10.19960,571.97,640.85
10.21948,575.09,615.32
10.23925,571.83,590.36
10.25989,570.41,570.90
10.27964,563.61,551.67
10.30062,558.13,532.69
10.32105,550.28,522.13
10.33962,547.42,512.77
10.36016,542.43,509.47
10.37976,538.22,504.14
10.40119,536.91,501.02
10.42116,532.52,497.33
10.44052,528.17,498.21
10.46061,530.47,500.39
10.48166,532.58,494.97
10.50162,534.25,492.24
10.52045,533.64,493.91
10.54058,533.00,494.94
10.55956,533.60,501.92
10.58137,532.37,505.43
10.60028,533.16,508.52
10.62074,532.32,513.31
10.63983,539.51,516.62
10.66090,539.62,518.21
10.67942,534.40,526.59
10.70153,531.00,530.08
10.72087,527.85,533.50
10.74118,529.04,535.93
10.76065,524.82,537.59
10.78116,526.18,535.89
10.80151,524.75,541.36
10.82087,525.58,541.73
10.84121,526.21,542.21
10.86140,524.44,542.20
10.88123,524.81,543.78
10.90287,526.87,543.11
10.92160,528.05,540.36
10.94331,527.07,539.87
10.96207,526.18,543.13
10.98385,526.61,542.02
11.00284,528.25,542.19
11.02339,527.22,544.48
11.04260,519.93,545.47
11.06364,498.69,538.86
11.08608,477.88,533.77
11.10565,462.76,526.27
11.12713,455.49,526.92
11.14833,450.54,526.39
11.16896,448.20,525.68
11.18886,451.91,529.40
11.20790,452.76,528.48
11.22819,453.75,531.53
11.24931,460.69,536.73
11.27037,464.83,544.06
11.29040,472.54,548.04
11.31092,477.10,550.24
11.32949,479.17,551.87
11.35046,484.21,555.12
11.37062,487.74,557.13
11.39093,489.17,557.68
11.41030,491.43,556.29
11.43104,482.19,542.13
11.45046,472.59,522.33
11.47121,469.16,509.19
11.49153,467.23,505.02
11.51066,465.46,511.36
11.53020,467.93,507.34
11.55026,466.83,513.79
11.57081,472.34,515.82
11.58944,476.02,516.81
11.61062,478.01,522.74
11.63297,485.74,525.24
11.65235,493.70,546.22
11.67275,506.19,568.67
11.69544,519.92,593.39
11.71406,528.96,617.27
11.73637,536.21,624.56
11.75559,542.80,608.92
11.77621,550.28,607.51
11.79721,551.59,595.58
11.81559,551.66,604.36
11.83704,548.09,610.22
11.85578,550.84,585.14
11.87648,548.47,576.70
11.89785,547.17,577.75
11.91847,541.87,563.86
11.93776,533.99,526.02
11.95748,529.91,507.54
11.97862,518.62,485.45
11.99846,512.80,478.47
12.01781,508.10,487.11
12.03883,511.40,480.00
12.05956,505.83,472.00
12.08011,507.23,470.38
12.09904,512.68,478.35
12.11978,514.22,481.44
12.13988,516.68,487.24
12.15961,520.93,499.57
12.18102,525.98,503.28
12.20064,528.24,507.88
12.22005,526.96,506.55
12.24031,527.00,516.02
12.26155,532.01,522.23
12.27959,531.29,505.45
12.29995,534.94,512.37
12.31979,532.50,519.77
12.33984,529.08,516.94
12.36034,532.80,516.34
12.38035,533.63,507.82
12.40070,532.92,519.83
12.42158,534.95,517.23
12.43984,533.43,527.10
12.46092,532.52,527.29
12.48124,530.07,523.20
12.49979,529.84,515.09
12.52040,532.88,512.66
12.54098,529.22,542.72
12.55949,529.79,541.24
12.58005,528.27,535.87
12.60089,526.58,523.13
12.62015,533.47,521.07
12.64037,534.81,524.86
12.66158,535.24,527.54
12.68200,537.02,531.93
12.70224,535.05,532.16
12.72231,534.25,541.88
12.74079,535.44,539.05
12.76224,533.94,531.04
12.78194,533.18,532.10
12.80161,535.36,536.67
12.82170,531.17,537.12
12.84238,510.22,558.10
12.86230,494.61,574.83
12.88148,478.42,579.04
12.90067,476.88,585.33
12.92140,482.26,589.37
12.94108,488.34,579.18
12.96082,492.27,583.18
12.98143,503.17,590.17
13.00182,509.91,589.09
13.02144,519.73,587.19
13.04047,525.51,584.68
13.06179,532.84,579.41
13.08150,538.05,573.28
13.10087,540.36,590.85
13.12251,543.23,582.08
13.14228,544.34,575.36
13.16108,542.58,568.49
13.18228,542.53,567.18
13.20238,542.66,566.38
13.22263,542.27,578.78
13.24306,542.53,584.92
13.26137,538.05,582.74
13.28329,544.99,575.51
13.30171,551.91,566.33
13.32191,554.08,574.34
13.34272,556.92,579.33
13.36303,552.51,566.32
13.38399,549.85,566.15
13.40400,548.41,573.48
13.42522,544.10,571.16
13.44505,537.44,565.08
13.46577,535.08,564.15
13.48571,532.56,557.85
13.50485,534.15,550.19
13.52571,535.03,552.13
13.54623,537.10,551.91
13.56597,546.57,553.25
13.58561,560.27,563.86
13.60801,564.62,552.92
13.62923,562.10,552.32
13.64889,557.96,560.01
13.67087,551.46,560.02
13.68968,544.22,563.27
13.71134,541.38,572.13
13.73108,549.05,588.95
13.75161,550.48,635.71
13.77109,552.42,670.38
13.79164,556.68,679.38
13.81123,552.04,675.43
13.83079,550.77,655.53
13.85062,540.48,624.31
13.87235,521.06,595.45
13.89107,502.78,574.38
13.91314,487.15,538.27
13.93327,477.01,515.24
13.95380,475.78,495.72
13.97488,469.80,485.20
13.99550,475.80,483.76
14.01551,477.39,472.48
14.03740,481.38,484.95
14.05717,488.27,486.33
14.07623,494.89,491.47
14.09592,501.89,493.22
14.11717,502.71,491.81
14.13621,506.32,487.16
14.15712,508.72,485.80
14.17634,507.91,486.80
14.19552,511.45,501.36
14.21683,513.09,513.38
14.23549,515.75,511.15
14.25610,516.29,511.59
14.27680,516.26,514.45
14.29695,518.04,514.43
14.31617,517.87,511.49
14.33702,516.40,511.56
14.35565,513.66,501.20
14.37686,512.42,500.61
14.39715,515.33,501.68
14.41645,513.00,494.97
14.43702,509.98,503.02
14.45635,514.24,503.89
14.47725,512.43,503.60
14.49599,512.65,512.60
14.51559,521.47,523.32
14.53576,523.00,545.41
14.55579,522.53,580.99
14.57739,521.89,600.84
14.59648,515.51,605.57
14.61710,517.39,584.58
14.63642,516.73,558.17
14.65614,515.40,528.60
14.67687,512.49,505.96
14.69603,514.54,484.35
14.71712,514.71,466.44
14.73672,517.11,458.79
14.75568,517.46,460.06
14.77661,515.44,452.82
14.79659,517.20,449.59
14.81624,519.65,468.50
14.83695,507.55,483.11
14.85705,505.88,496.84
14.87574,506.18,510.19
14.89572,519.43,557.12
14.91686,532.66,602.37
14.93579,545.38,649.86
14.95730,555.04,674.01
14.97648,566.68,688.78
14.99702,568.33,700.65
15.01797,578.02,725.98
15.03669,580.48,735.69
15.05703,587.47,742.74
15.07740,586.32,736.53
15.09848,581.65,730.29
15.11709,575.33,711.00
15.13763,560.94,669.06
15.15751,534.18,623.81
15.17753,518.34,572.96
15.19702,508.85,523.83
15.21792,500.12,499.41
15.23822,500.41,477.48
15.25858,505.07,463.07
15.27974,502.26,465.70
15.29969,496.85,458.95
15.31959,490.90,460.61
15.33994,497.45,468.12
15.36089,501.65,471.89
15.37961,504.10,481.31
15.40047,504.35,488.86
15.41997,506.06,499.52
15.43974,511.11,506.64
15.46201,522.32,509.00
15.48217,518.17,511.15
15.50163,519.69,522.46
15.52265,513.77,530.40
15.54182,518.38,538.57
15.56309,518.68,542.92
15.58241,512.40,546.73
15.60271,514.99,555.48
15.62175,514.60,562.35
15.64170,509.33,561.19
15.66171,509.30,570.10
15.68164,508.59,571.95
15.70232,513.65,580.32
15.72227,511.20,585.98
15.74348,515.13,593.12
15.76306,516.92,596.96
15.78237,519.71,600.00
15.80249,530.65,591.93
15.82286,529.39,571.57
15.84188,530.12,546.65
15.86203,524.56,522.08
15.88298,522.15,500.03
15.90266,519.71,491.10
15.92239,513.30,475.71
15.94291,511.22,470.68
15.96323,508.04,464.55
15.98352,502.35,463.40
16.00300,503.84,463.79
16.02149,507.29,468.07
16.04224,506.47,480.22
16.06235,507.37,487.86
16.08332,509.41,504.19
16.10365,509.88,513.77
16.12407,512.22,518.53
16.14516,510.37,527.17
16.16474,509.79,527.92
16.18558,510.93,541.40
16.20678,509.22,554.01
16.22729,513.73,560.88
16.24566,510.36,567.10
16.26623,504.62,571.93
16.28686,503.69,576.95
16.30678,509.21,579.74
16.32596,505.73,581.69
16.34685,504.53,579.20
16.36789,510.35,580.28
16.38777,501.83,582.13
16.40716,501.25,578.51
16.42809,502.01,583.05
16.44926,506.64,584.45
16.46833,502.69,583.99
16.48932,505.10,585.77
16.50961,503.84,583.07
16.53000,507.22,579.23
16.55072,504.36,580.18
16.57125,509.48,580.14
16.58925,512.00,576.59
16.61007,511.50,580.51
16.62929,511.58,577.78
16.65034,514.20,577.19
16.67078,513.96,577.46
16.69032,511.36,576.86
16.71122,512.82,575.80
16.73191,514.59,575.47
16.75387,516.72,575.23
16.77339,513.71,571.84
16.79443,513.52,575.99
16.81384,512.06,580.02
16.83294,515.05,602.37
16.85296,521.98,644.51
16.87402,524.50,695.02
16.89341,523.45,728.64
16.91336,528.56,750.67
16.93387,532.52,756.40
16.95303,535.43,747.66
16.97272,527.96,730.54
16.99418,531.52,714.27
17.01444,528.81,695.17
17.03370,529.18,680.01
17.05423,527.18,662.29
17.07292,521.11,649.37
17.09365,522.64,634.68
17.11481,525.85,625.52
17.13478,529.85,616.95
17.15357,529.86,613.32
17.17409,530.93,613.07
17.19540,530.61,614.48
17.21390,530.85,610.85
17.23473,532.79,606.68
17.25510,536.76,609.71
17.27458,534.09,600.07
17.29497,530.64,599.80
17.31481,529.77,599.25
17.33572,527.22,593.49
17.35475,525.65,596.08
17.37569,527.80,595.60
17.39521,530.09,591.14
17.41539,530.46,588.35
17.43584,528.70,586.59
17.45479,530.89,586.04
17.47630,528.77,584.25
17.49666,526.76,584.54
17.51706,526.74,583.86
17.53602,526.62,582.10
17.55709,526.44,581.22
17.57819,529.58,581.20
17.59826,529.83,578.52
17.61833,529.06,576.33
17.63756,526.42,577.23
17.65748,527.54,576.39
17.67819,523.57,575.02
17.69744,525.75,576.88
17.71653,524.26,573.38
17.73694,525.04,574.87
17.75668,522.35,574.11
17.77770,522.17,576.65
17.79679,522.22,572.62
17.81687,524.44,573.19
17.83735,521.45,575.16
17.85708,522.80,575.34
17.87734,524.90,576.62
17.89690,522.50,577.67
17.91755,520.65,574.22
17.93763,521.54,576.49
17.95802,522.77,575.22
17.97701,519.48,574.90
17.99830,521.78,572.21
18.01644,520.26,571.18
18.03754,523.39,563.91
18.05704,520.31,541.36
18.07825,514.72,519.15
18.09704,511.96,492.78
18.11933,506.93,473.97
18.13807,500.60,455.07
18.15906,496.94,440.10
18.17906,497.10,426.90
18.19953,497.15,421.52
18.22008,498.56,416.38
18.23889,498.46,416.93
18.25866,499.82,417.72
18.27859,503.81,418.82
18.29882,507.92,428.31
18.31902,509.28,438.95
18.33911,510.54,451.88
18.36002,509.58,461.49
18.37881,509.90,474.74
18.39840,511.22,483.33
18.41905,513.22,496.51
18.43996,509.71,504.75
18.45910,512.33,513.68
18.47986,514.41,519.95
18.49845,516.03,526.95
18.51971,514.65,530.61
18.53961,514.05,537.49
18.55903,516.62,539.58
18.57918,514.96,544.02
18.60020,515.46,547.96
18.61928,516.05,552.53
18.63907,513.87,550.91
18.65898,513.74,554.88
18.67983,510.44,555.25
18.70005,513.22,555.21
18.71983,511.31,557.32
18.74024,512.92,561.11
18.76003,515.45,562.80
18.78013,513.23,565.07
18.79955,515.49,565.19
18.81916,519.03,564.76
18.83963,514.77,566.31
18.85890,514.43,567.43
18.87992,514.69,567.58
18.90050,512.57,564.72
18.92032,515.11,566.08
18.94027,515.19,565.59
18.96025,514.63,573.37
18.97986,513.70,602.05
19.00013,519.14,662.05
19.02063,522.92,728.37
19.04002,526.03,778.07
19.05989,525.96,805.13
19.08085,525.23,809.44
19.09955,526.38,798.72
19.12076,520.64,778.98
19.13989,519.37,748.40
19.16134,514.37,722.18
19.17978,509.66,692.33
19.20025,509.51,670.81
19.22049,506.85,650.39
19.24071,506.74,630.33
19.26034,507.44,615.87
19.28020,505.31,605.73
19.29954,505.63,596.99
19.32008,504.17,591.20
19.34056,508.30,583.22
19.36005,508.36,577.18
19.37959,508.67,574.70
19.40211,503.56,568.51
19.42136,503.04,560.39
19.44205,500.77,558.26
19.46063,501.89,557.33
19.48214,505.90,556.36
19.50141,503.03,552.41
19.52067,504.76,556.30
19.54093,502.75,554.66
19.56145,501.31,554.13
19.58214,500.91,552.24
19.60183,503.99,554.40
19.62216,502.16,554.70
19.64170,502.64,556.40
19.66105,503.53,557.37
19.68202,505.30,554.63
19.70056,506.48,555.29
19.72051,503.41,555.22
19.74202,502.79,555.38
19.76038,506.48,554.46
19.78101,505.13,554.00
19.80152,506.72,557.06
19.82106,506.72,559.80
19.84119,506.98,560.42
19.86026,506.57,554.53
19.88214,507.46,557.26
19.90109,506.48,556.89
19.92189,507.59,555.00
19.94121,506.41,557.45
19.96211,508.13,556.17
19.98151,507.82,556.14
20.00156,510.99,558.59
20.02163,510.31,556.54
20.04199,508.28,554.74
20.06043,507.76,553.61
20.08083,508.74,556.83
20.10158,506.12,554.37
20.12183,509.69,554.33
20.14091,507.12,556.28
20.16064,509.48,553.56
20.18113,511.56,555.22
20.20130,513.25,557.59
20.22219,512.02,554.75
20.24062,516.80,553.80
20.26075,515.62,549.53
20.28197,514.66,554.07
20.30056,512.37,552.39
20.32083,511.44,551.75
20.34136,512.87,554.13
20.36264,508.64,552.98
20.38264,510.34,553.39
20.40251,511.88,552.18
20.42364,508.88,554.56
20.44450,510.21,551.52
20.46332,512.71,555.98
20.48479,511.66,557.16
20.50529,515.08,555.41
20.52543,516.95,558.21
20.54720,518.65,558.14
20.56571,518.08,557.83
20.58639,519.44,559.65
20.60849,523.93,556.74
20.62889,525.04,560.39
20.65015,524.37,559.46
20.66883,524.88,558.61
20.68981,526.29,561.24
20.70991,526.30,563.08
20.73083,526.28,560.34
20.74961,525.88,559.37
20.77000,526.00,561.45
20.79073,525.65,561.00
20.81099,526.91,561.18
20.82997,529.13,561.21
20.84992,529.50,562.38
20.86972,528.98,562.26
20.88942,529.42,561.68
20.90939,532.59,564.47
20.93124,532.37,562.20
20.95098,529.34,560.61
20.97056,532.44,564.25
20.99046,531.03,566.01
21.01117,531.67,568.30
21.03062,529.70,562.32
21.05070,532.80,549.85
21.07001,538.30,539.36
21.08989,545.58,525.88
21.11144,545.16,510.26
21.12953,549.08,494.39
21.15031,550.03,478.43
21.17093,542.39,465.16
21.19089,539.39,454.49
21.21093,533.80,445.00
21.23081,532.70,436.25
21.25215,526.90,435.03
21.27146,523.84,435.01
21.29207,521.22,433.19
21.31020,518.27,439.21
21.33073,518.07,448.30
21.35101,517.46,458.44
21.37167,514.20,466.09
21.39070,515.63,475.67
21.41098,511.88,485.00
21.43199,514.18,494.36
21.45255,516.02,501.38
21.47337,514.80,509.79
21.49325,515.58,515.83
21.51220,515.10,524.74
21.53259,512.97,530.29
21.55310,515.71,534.79
21.57151,515.01,539.53
21.59225,517.26,543.66
21.61210,518.77,546.77
21.63177,518.12,549.94
21.65222,516.69,551.50
21.67220,517.35,553.45
21.69222,519.31,555.33
21.71296,516.74,555.38
21.73324,515.88,557.08
21.75301,518.11,557.92
21.77257,514.76,558.17
21.79357,514.21,560.53
21.81288,515.91,559.08
21.83313,515.69,558.75
21.85296,515.11,563.92
21.87243,516.20,582.30
21.89401,522.96,626.80
21.91384,533.07,706.28
21.93351,539.12,780.13
21.95390,546.28,834.22
21.97340,548.10,852.58
21.99246,545.59,845.88
22.01452,539.07,825.65
22.03490,532.74,792.26
22.05370,530.00,756.99
22.07337,522.78,720.68
22.09573,519.57,683.83
22.11489,512.68,653.19
22.13671,510.40,625.17
22.15670,506.44,602.11
22.17720,503.79,586.66
22.19532,502.88,575.39
22.21665,502.55,562.71
22.23541,504.49,554.60
22.25637,506.02,553.83
22.27643,501.37,546.28
22.29662,501.43,540.00
22.31777,500.98,537.51
22.33808,496.47,533.70
22.35649,497.32,532.63
22.37734,496.38,532.01
22.39617,497.46,532.35
22.41819,497.19,532.33
22.43700,498.48,532.44
22.45684,499.10,533.01
22.47653,499.80,532.68
22.49714,503.05,533.25
22.51737,503.63,537.78
22.53782,505.09,535.80
22.55810,506.78,540.37
22.57732,504.77,540.01
22.59741,509.59,541.34
22.61745,510.35,540.38
22.63807,511.07,542.95
22.65890,508.27,545.20
22.67798,510.10,546.63
22.69874,509.51,546.56
22.71754,509.38,545.80
22.73864,511.12,545.56
22.75839,512.09,548.96
22.77838,512.55,544.42
22.79802,511.87,546.76
22.81870,514.23,549.55
22.83713,511.86,548.75
22.85834,507.67,546.68
22.87818,510.78,548.40
22.89842,510.43,549.81
22.91835,508.51,550.80
22.93841,504.10,548.64
22.95851,506.95,552.21
22.97790,507.92,551.70
22.99837,505.92,551.59
23.01814,507.74,551.58
23.03746,509.59,553.18
23.05741,510.78,551.18
23.07745,510.26,552.69
23.09881,510.67,551.68
23.11922,510.96,552.50
23.13918,508.41,552.81
23.15787,510.98,549.24
23.17748,508.75,552.48
23.19926,511.39,549.92
23.21804,509.55,550.81
23.23874,510.22,550.44
23.25831,511.51,553.22
23.27735,510.49,553.74
23.29912,512.59,552.13
23.31752,508.86,554.38
23.33791,510.25,550.94
23.35839,509.09,552.49
23.37880,511.60,552.87
23.39859,509.29,550.77
23.41855,512.84,553.39
23.43865,511.37,552.26
23.45792,512.73,549.55
23.47746,512.37,550.15
23.49832,513.51,549.22
23.51749,513.11,549.14
23.53816,511.85,550.28
23.55747,512.02,547.92
23.57903,514.39,549.49
23.59917,512.59,552.35
23.61765,514.06,550.76
23.63842,511.33,550.84
23.65864,512.60,553.06
23.67835,512.48,550.86
23.69920,513.35,551.08
23.71809,511.89,551.17
23.73749,508.89,552.91
23.75862,512.34,549.63
23.77731,510.20,548.82
23.79792,510.44,551.91
23.81793,508.68,549.98
23.83850,511.41,549.65
23.85849,511.54,548.58
23.87826,513.34,547.07
23.89732,512.35,547.07
23.91901,512.83,549.78
23.93853,511.60,548.43
23.95753,513.08,547.87
23.97802,513.74,549.72
23.99899,513.29,549.55
24.01808,513.68,550.50
24.03731,513.08,549.59
24.05827,514.27,550.18
24.07878,511.04,551.60
24.09815,513.43,548.59
24.11884,514.60,550.21
24.13785,514.10,551.21
24.15838,513.20,549.81
24.17777,514.79,551.71
24.19764,516.52,554.08
24.21911,512.70,549.59
24.23766,513.80,538.02
24.25832,515.99,517.96
24.27866,513.29,498.51
24.29891,512.37,474.63
24.31751,513.07,459.97
24.33824,510.21,444.40
24.35794,507.50,432.95
24.37758,506.50,427.09
24.39792,501.89,424.54
24.41761,501.16,425.19
24.43836,502.06,425.59
24.45787,503.34,434.35
24.47877,506.65,441.28
24.49755,506.03,452.40
24.51769,510.02,464.42
24.53890,506.56,473.91
24.55769,509.55,480.84
24.57740,509.97,492.01
24.59741,510.93,496.53
24.61744,512.90,503.51
24.63828,512.26,511.58
24.65899,513.26,515.44
24.67900,516.44,519.10
24.69885,515.24,525.55
24.71758,516.31,529.73
24.73763,520.13,532.51
24.75810,518.56,535.26
24.77879,516.06,535.73
24.79791,518.28,541.01
24.81818,516.62,542.75
24.83884,516.60,541.17
24.85878,516.32,544.35
24.87876,516.78,544.84
24.89782,517.43,547.66
24.91819,515.85,546.84
24.93839,518.76,547.09
24.95744,515.83,548.60
24.97865,519.70,547.77
24.99910,519.30,550.02
25.01802,518.48,549.18
25.03924,516.33,548.36
25.05922,517.32,550.66
25.07759,519.87,549.00
25.09771,519.02,551.29
25.11808,520.63,549.30
25.13824,519.53,550.91
25.15739,517.63,550.61
25.17833,519.36,550.23
25.19769,517.78,551.75
25.21743,515.94,549.15
25.23852,516.85,549.15
25.25910,517.17,552.39
25.27791,521.70,559.70
25.29927,522.32,584.14
25.31896,525.04,619.49
25.33795,526.23,652.88
25.35776,528.23,684.57
25.37753,530.34,708.58
25.39815,535.04,718.57
25.41799,535.40,722.26
25.43890,536.82,714.74
25.45863,537.02,701.94
25.47817,534.00,681.60
25.49844,533.15,666.75
25.51887,530.27,652.02
25.53916,530.63,635.48
25.55845,530.85,622.17
25.57946,531.07,610.77
25.59880,531.10,600.56
25.61980,525.91,595.64
25.63988,528.54,588.80
25.65967,528.78,579.57
25.67852,525.65,575.06
25.69834,527.68,572.00
25.71960,527.27,570.33
25.73882,528.93,565.76
25.75941,529.54,563.36
25.77938,529.18,560.21
25.79817,527.97,559.94
25.81940,526.86,557.06
25.83820,528.54,558.22
25.85834,528.35,552.13
25.87969,525.32,550.58
25.89912,524.61,550.04
25.91898,528.10,550.14
25.93918,526.17,550.93
25.96003,528.12,549.65
25.97964,530.29,548.29
25.99828,529.26,549.51
26.01990,530.28,549.38
26.03907,526.68,549.53
26.05992,528.76,550.81
26.07886,526.16,550.68
26.09986,525.58,549.92
26.11939,525.42,548.79
26.13833,523.91,550.24
26.15882,525.76,551.43
26.17839,525.35,552.95
26.19986,525.51,554.39
26.21964,529.28,552.53
26.23884,530.68,553.52
26.25882,527.57,554.04
26.27896,529.12,551.28
26.29836,528.05,552.21
26.31965,530.91,551.56
26.33827,528.16,551.79
26.35935,527.28,550.31
26.37934,527.20,550.95
26.39915,523.51,554.13
26.42018,524.15,554.43
26.43911,527.19,553.83
26.46119,527.08,553.92
26.48078,525.62,552.52
26.50007,526.83,553.36
26.52018,524.81,556.98
26.53938,527.62,556.68
26.55973,526.92,554.70
26.57977,525.06,554.61
26.59996,527.21,557.41
26.62088,526.38,556.70
26.64038,530.02,556.06
26.65976,527.14,557.65
26.67951,530.09,554.91
26.70153,529.03,556.63
26.72132,528.49,556.17
26.74130,531.15,557.46
26.76132,528.82,555.10
26.78032,527.82,556.13
26.80186,528.50,557.82
26.82173,527.87,558.94
26.84070,526.02,558.45
26.86089,525.73,557.58
26.88082,523.67,559.26
26.90102,524.35,556.70
26.92070,523.11,558.50
26.94209,522.19,556.05
26.96152,525.24,557.55
26.98190,522.90,553.67
27.00133,523.14,555.17
27.02102,524.18,554.08
27.04295,525.44,557.79
27.06198,523.07,556.99
27.08208,523.79,556.91
27.10278,525.34,557.09
27.12296,527.87,555.10
27.14307,525.88,553.85
27.16280,526.65,553.92
27.18318,524.03,551.75
27.20420,526.82,553.39
27.22232,525.10,553.79
27.24383,523.24,553.81
27.26253,523.12,553.87
27.28315,524.09,551.41
27.30341,523.01,552.25
27.32203,521.88,554.79
27.34358,518.91,553.97
27.36281,518.28,554.56
27.38385,518.09,552.80
27.40278,518.04,552.15
27.42285,517.70,552.07
27.44402,518.60,553.79
27.46401,518.23,551.50
27.48225,516.64,551.25
27.50235,520.11,553.44
27.52273,519.38,551.90
27.54405,516.62,552.55
27.56430,518.42,551.52
27.58291,518.45,554.72
27.60308,516.30,554.20
27.62364,513.17,554.31
27.64379,515.54,554.64
27.66262,515.56,556.32
27.68258,516.03,554.03
27.70214,517.89,557.27
27.72256,518.33,553.32
27.74320,517.28,554.19
27.76269,516.18,556.32
27.78252,518.03,551.20
27.80365,517.64,551.16
27.82320,518.54,550.67
27.84203,516.47,553.63
27.86313,516.44,549.62
27.88323,514.46,551.09
27.90309,516.68,549.23
27.92423,514.52,549.68
27.94321,517.46,548.03
27.96336,517.04,550.45
27.98295,516.49,549.02
28.00297,517.15,552.06
28.02373,515.49,551.91
28.04373,512.25,554.45
28.06373,511.46,551.43
28.08227,507.90,545.55
28.10304,503.43,539.44
28.12356,495.72,524.58
28.14393,490.08,504.33
28.16269,483.09,486.24
28.18326,477.80,464.56
28.20391,480.83,445.22
28.22274,479.68,427.01
28.24261,479.93,415.31
28.26287,485.69,407.33
28.28410,489.90,405.77
28.30374,494.16,406.42
28.32372,496.42,410.64
28.34364,500.74,418.18
28.36240,503.44,426.28
28.38387,507.40,437.69
28.40241,511.45,449.27
28.42360,513.20,461.11
28.44385,512.87,471.47
28.46336,514.53,480.58
28.48290,513.43,489.69
28.50394,514.71,498.20
28.52239,512.63,508.68
28.54205,513.13,515.02
28.56271,514.92,518.76
28.58344,513.00,526.53
28.60229,514.78,529.61
28.62312,512.86,531.43
28.64230,512.92,534.02
28.66362,510.22,537.01
28.68366,511.76,539.96
28.70352,513.95,538.55
28.72406,512.59,539.62
28.74244,513.15,543.11
28.76395,514.50,543.17
28.78254,512.93,544.09
28.80391,513.00,544.11
28.82245,512.47,546.65
28.84287,508.33,544.47
28.86277,510.59,543.07
28.88229,510.86,547.25
28.90216,511.98,545.92
28.92227,507.59,546.17
28.94404,511.91,546.21
28.96349,508.51,549.99
28.98358,510.48,550.16
29.00400,511.42,547.46
29.02255,508.89,548.74
29.04345,511.33,550.57
29.06239,509.74,560.15
29.08302,508.31,579.26
29.10375,507.94,615.13
29.12340,507.75,651.66
29.14364,512.27,690.42
29.16264,512.46,719.42
29.18231,517.21,738.93
29.20279,523.64,745.83
29.22306,520.99,736.43
29.24281,523.35,718.63
29.26408,521.65,697.80
29.28375,522.78,678.02
29.30297,518.48,660.15
29.32313,521.88,643.50
29.34312,518.88,629.54
29.36304,516.80,616.19
29.38216,516.28,606.36
29.40283,515.47,595.03
29.42407,515.87,589.78
29.44402,517.50,583.07
29.46357,517.37,574.75
29.48329,515.03,570.52
29.50247,512.66,567.85
29.52319,512.37,565.18
29.54340,513.55,559.94
29.56295,514.32,556.48
29.58266,511.80,557.41
29.60292,511.45,556.39
29.62360,511.81,552.39
29.64318,506.99,554.02
29.66240,509.23,553.41
29.68402,507.11,548.26
29.70247,505.10,550.07
29.72310,504.79,547.49
29.74293,506.16,550.53
29.76290,505.73,550.26
29.78249,507.81,550.99
29.80330,509.43,547.30
29.82244,508.66,548.26
29.84314,508.56,546.75
29.86326,507.71,545.86
29.88313,507.65,547.81
29.90219,508.27,545.97
29.92362,506.98,545.01
29.94330,508.98,548.27
29.96278,506.63,544.64
29.98329,508.40,548.68
30.00221,509.45,548.64
30.02226,506.28,547.14
30.04277,507.32,545.79
30.06309,507.64,548.39
30.08400,506.27,548.91
30.10226,506.46,548.09
30.12217,505.82,549.26
30.14243,504.70,549.84
30.16255,506.42,547.34
30.18315,506.19,548.05
30.20329,505.84,549.21
30.22358,507.76,546.83
30.24242,504.33,545.81
30.26382,505.40,544.48
30.28381,504.79,543.72
30.30265,507.08,546.41
30.32252,503.96,542.36
30.34289,503.06,543.35
30.36322,506.11,543.27
30.38335,506.22,544.48
30.40307,503.76,543.59
30.42292,507.30,544.67
30.44285,506.33,542.39
30.46286,503.98,543.12
30.48302,505.29,544.72
30.50251,503.39,543.77
30.52362,502.99,544.35
30.54418,505.54,542.00
30.56381,503.90,542.68
30.58350,504.98,540.49
30.60359,506.66,541.78
30.62305,507.12,543.55
30.64332,505.82,544.00
30.66201,505.15,543.00
30.68291,504.97,542.35
30.70270,504.99,541.73
30.72305,508.21,541.25
30.74347,505.88,544.54
30.76381,504.77,543.20
30.78260,505.72,542.52
30.80275,508.36,543.67
30.82394,505.57,541.98
30.84266,507.61,543.32
30.86191,507.09,543.89
30.88319,504.83,543.97
30.90346,505.54,544.28
30.92280,508.20,542.77
30.94325,506.29,543.19
30.96392,505.79,541.80
30.98339,507.40,541.53
31.00385,506.60,543.68
31.02302,507.84,542.83
31.04391,506.75,541.83
31.06346,507.24,541.50
31.08325,505.20,541.53
31.10295,505.30,542.87
31.12283,508.26,540.53
31.14237,506.38,542.80
31.16338,507.44,544.14
31.18209,506.17,543.39
31.20204,508.58,543.45
31.22228,507.66,543.49
31.24360,506.85,542.93
31.26356,503.26,541.89
31.28254,503.60,543.36
31.30209,505.16,542.45
31.32180,501.75,542.81
31.34343,503.44,541.81
31.36314,503.67,542.19
31.38296,505.46,544.48
31.40345,503.21,543.50
31.42298,504.66,545.32
31.44225,503.72,543.58
31.46369,505.92,543.22
31.48246,505.50,544.52
31.50309,504.54,544.46
31.52386,501.70,545.07
31.54266,502.96,542.88
31.56375,502.98,542.59
31.58222,504.25,542.13
31.60255,506.46,542.13
31.62364,504.73,543.40
31.64389,505.90,545.37
31.66319,506.11,543.64
31.68359,507.14,544.20
31.70381,509.78,548.01
31.72396,510.58,550.45
31.74363,507.85,548.58
31.76302,507.45,542.35
31.78288,511.52,528.11
31.80363,508.71,509.87
31.82257,509.94,484.69
31.84333,510.66,465.99
31.86364,507.46,448.62
31.88400,505.05,438.13
31.90232,506.70,427.29
31.92403,503.85,420.82
31.94343,502.44,418.44
31.96296,502.58,417.02
31.98326,501.15,421.51
32.00334,500.30,422.32
32.02278,500.49,430.64
32.04327,497.88,438.83
32.06379,499.66,444.95
32.08238,497.69,454.41
32.10262,497.42,463.06
32.12260,499.18,474.64
32.14272,499.42,484.10
32.16227,502.74,490.40
32.18235,499.62,499.05
32.20258,500.59,504.40
32.22314,500.28,512.66
32.24226,502.90,515.84
32.26354,501.27,519.00
32.28301,504.62,523.89
32.30270,503.19,526.15
32.32405,503.56,530.93
32.34243,504.69,532.77
32.36331,504.07,533.27
32.38375,505.75,533.80
32.40212,508.30,536.11
32.42371,508.57,536.57
32.44392,508.50,540.61
32.46395,506.67,541.05
32.48341,508.47,545.75
32.50363,507.38,549.06
32.52282,506.30,553.36
32.54300,506.50,554.49
32.56361,508.71,553.80
32.58351,505.76,554.90
32.60394,508.20,550.84
32.62320,507.65,552.66
32.64247,505.58,551.54
32.66279,509.94,550.01
32.68337,508.22,554.72
32.70323,508.52,573.74
32.72354,509.81,603.03
32.74214,511.38,634.92
32.76277,512.25,653.14
32.78323,514.52,666.43
32.80341,516.57,675.32
32.82284,517.43,673.36
32.84354,514.78,661.96
32.86363,516.90,651.18
32.88371,516.11,641.45
32.90384,512.54,628.28
32.92405,512.33,617.60
32.94368,511.85,605.16
32.96218,509.99,597.65
32.98299,509.44,591.04
33.00381,510.62,598.40
33.02396,514.12,605.80
33.04389,513.97,606.16
33.06220,513.32,603.43
33.08271,513.37,598.48
33.10405,513.89,591.58
33.12314,511.74,586.22
33.14361,512.86,583.64
33.16321,512.38,576.13
33.18297,512.18,571.39
33.20334,515.29,570.54
33.22363,513.55,563.58
33.24366,511.97,562.89
33.26227,514.18,557.08
33.28391,512.58,554.87
33.30220,515.67,556.36
33.32345,514.52,553.72
33.34305,515.33,552.31
33.36364,515.06,552.23
33.38296,514.74,548.49
33.40287,513.96,548.28
33.42255,515.83,546.94
33.44360,516.09,549.55
33.46389,517.64,550.90
33.48222,515.71,549.36
33.50385,516.06,546.92
33.52406,517.22,546.92
33.54370,517.84,549.35
33.56286,517.76,548.81
33.58355,517.74,550.72
33.60320,514.22,550.56
33.62248,515.63,549.76
33.64330,513.07,551.31
33.66377,515.66,550.04
33.68360,515.58,551.45
33.70310,517.53,552.04
33.72413,516.36,552.42
33.74466,520.65,550.25
33.76441,520.48,550.35
33.78479,522.88,550.30
33.80472,519.36,551.87
33.82453,517.24,552.29
33.84409,516.58,551.22
33.86421,518.11,551.02
33.88376,517.83,550.71
33.90344,518.47,552.91
33.92433,517.54,552.56
33.94470,519.93,554.79
33.96487,516.95,555.23
33.98406,516.73,554.57
34.00364,519.28,552.34
34.02334,519.76,553.17
34.04378,517.12,554.85
34.06437,517.17,552.98
34.08330,519.16,552.40
34.10442,519.35,552.55
34.12317,522.56,552.09
34.14382,521.27,553.07
34.16495,521.96,553.22
34.18402,522.34,554.61
34.20475,521.51,551.42
34.22446,522.43,554.29
34.24313,519.13,554.49
34.26441,518.93,553.28
34.28501,521.08,551.53
34.30405,522.91,554.42
34.32424,524.95,553.94
34.34406,522.85,551.15
34.36324,524.19,553.74
34.38371,524.05,550.45
34.40418,525.35,550.07
34.42453,523.13,552.11
34.44374,522.71,550.72
34.46333,525.40,549.36
34.48502,522.57,550.95
34.50363,523.83,551.64
34.52416,524.33,550.90
34.54386,524.20,550.33
34.56338,525.29,552.93
34.58436,523.12,552.75
34.60311,524.04,553.84
34.62393,523.24,552.79
34.64373,525.91,555.80
34.66428,525.75,554.26
34.68474,523.40,553.89
34.70473,524.76,556.13
34.72518,525.69,552.38
34.74557,527.22,552.92
34.76418,525.70,554.94
34.78512,527.62,554.43
34.80541,529.28,555.36
34.82898,527.22,554.23
34.84402,530.16,555.48
34.86507,526.68,554.04
34.88460,526.12,554.85
34.90436,527.99,554.91
34.92574,527.07,553.72
34.94469,526.00,551.94
34.96540,525.91,552.60
34.98426,530.22,553.44
35.00452,528.87,552.53
35.02559,528.93,553.38
35.04564,528.07,552.00
35.06603,529.82,553.84
35.08575,531.62,552.64
35.10583,532.66,555.22
35.12575,533.08,555.40
35.14585,530.47,555.47
35.16498,530.79,559.04
35.18594,530.38,558.86
35.20575,529.44,556.96
35.22465,529.60,557.08
35.24414,529.13,557.56
35.26548,531.37,557.35
35.28608,527.83,555.99
35.30502,528.50,541.67
35.32528,525.28,518.89
35.34610,521.27,498.12
35.36497,522.00,476.69
35.38422,517.10,461.66
35.40507,517.86,454.20
35.42563,518.32,450.70
35.44412,519.08,451.80
35.46478,517.79,460.00
35.48424,521.02,465.06
35.50446,522.18,470.93
35.52422,519.03,474.77
35.54578,521.02,473.00
35.56526,520.19,471.99
35.58448,518.10,470.55
35.60546,520.82,471.56
35.62454,521.54,475.22
35.64428,522.94,477.73
35.66518,524.82,481.73
35.68475,525.18,483.79
35.70527,524.32,489.14
35.72548,525.18,495.17
35.74559,524.05,498.93
35.76432,524.73,505.49
35.78449,524.60,508.05
35.80510,526.55,512.13
35.82430,527.03,516.71
35.84484,526.08,522.79
35.86591,526.36,527.04
35.88465,527.01,531.67
35.90504,528.82,534.04
35.92584,531.13,535.80
35.94463,527.75,538.61
35.96438,530.39,542.60
35.98570,530.61,544.25
36.00592,529.67,545.01
36.02425,528.31,547.99
36.04404,526.93,550.16
36.06436,526.70,551.21
36.08554,524.56,551.00
36.10517,526.88,553.24
36.12407,530.02,551.17
36.14484,530.30,551.60
36.16512,529.60,552.08
36.18450,527.63,553.64
36.20503,529.16,554.62
36.22457,531.10,560.90
36.24475,532.78,582.03
36.26464,531.27,609.81
36.28531,533.01,643.78
36.30559,535.25,681.40
36.32493,538.42,709.63
36.34577,541.26,733.02
36.36545,543.54,747.87
36.38455,545.26,750.82
36.40453,544.93,746.66
36.42482,544.88,733.26
36.44480,545.12,715.53
36.46546,542.66,694.83
36.48483,541.60,676.17
36.50548,537.87,658.87
36.52439,537.10,640.93
36.54422,536.67,629.25
36.56576,536.33,615.93
36.58517,533.83,605.61
36.60382,534.29,594.41
36.62497,531.88,588.53
36.64381,533.06,580.66
36.66527,532.16,574.34
36.68411,531.91,569.82
36.70500,532.26,563.97
36.72513,531.93,561.74
36.74436,532.39,557.22
36.76618,531.48,556.29
36.78546,528.57,555.41
36.80624,529.82,554.78
36.82580,527.74,550.30
36.84548,527.63,553.12
36.86654,526.14,549.23
36.88653,527.18,551.86
36.90596,527.73,552.20
36.92603,526.74,551.72
36.94511,527.17,552.73
36.96653,528.38,553.28
36.98555,527.82,553.04
37.00606,526.53,553.55
37.02589,528.59,556.38
37.04614,526.64,552.96
37.06507,528.46,554.43
37.08567,528.46,551.53
37.10666,527.88,551.99
37.12563,529.15,549.97
37.14681,526.40,551.79
37.16576,527.24,551.26
37.18502,526.87,553.55
37.20622,527.52,552.50
37.22536,527.30,551.58
37.24648,526.32,553.48
37.26533,529.28,550.26
37.28644,526.85,551.19
37.30633,527.11,548.85
37.32576,526.99,551.65
37.34566,527.11,550.00
37.36576,526.36,548.63
37.38687,523.96,549.04
37.40561,525.26,550.59
37.42509,526.65,550.71
37.44647,526.23,549.30
37.46591,524.19,549.56
37.48678,524.69,549.40
37.50559,526.75,552.38
37.52647,527.01,550.69
37.54630,527.93,551.21
37.56578,526.57,550.28
37.58535,526.38,549.96
37.60696,522.95,551.32
37.62611,522.93,549.45
37.64580,523.69,552.92
37.66698,523.97,552.69
37.68490,523.08,551.73
37.70551,521.56,552.98
37.72666,521.17,553.31
37.74516,522.43,551.11
37.76648,519.53,550.49
37.78616,522.39,552.34
37.80619,519.84,552.16
37.82736,522.18,552.41
37.84781,522.25,554.22
37.86656,520.46,550.73
37.88640,521.07,552.23
37.90682,518.51,553.88
37.92722,518.34,553.44
37.94747,516.87,551.42
37.96747,518.09,554.82
37.98861,517.49,550.52
38.00695,515.43,550.70
38.02870,517.99,551.94
38.04765,516.48,552.21
38.06859,513.87,551.11
38.08795,516.30,553.95
38.10740,515.65,551.49
38.12766,515.04,550.62
38.14705,512.81,550.70
38.16822,513.26,549.11
38.18781,512.99,549.13
38.20746,515.14,547.95
38.22825,512.57,550.11
38.24799,512.88,551.53
38.26784,513.94,550.59
38.28886,512.76,548.74
38.30863,515.04,550.09
38.32877,514.10,551.63
38.34777,513.30,552.88
38.36788,510.23,552.81
38.38894,509.63,551.04
38.40836,511.74,550.00
38.42936,509.43,550.77
38.44892,507.56,550.46
38.46824,509.42,550.84
38.48982,509.20,551.36
38.50830,506.95,550.32
38.52956,507.06,550.93
38.54847,507.20,548.30
38.56932,508.37,551.83
38.58916,506.68,551.20
38.60946,510.42,550.60
38.62928,508.86,552.25
38.64828,511.63,552.02
38.66979,511.61,550.02
38.68968,510.88,550.69
38.70854,510.21,552.84
38.72977,513.30,553.75
38.74825,511.23,552.31
38.76930,510.00,555.78
38.78976,510.23,549.60
38.80929,509.18,537.72
38.82787,505.59,522.96
38.84890,500.01,508.88
38.86811,494.95,494.90
38.88881,490.27,479.82
38.90974,484.90,469.42
38.92900,484.26,458.58
38.94806,482.57,453.13
38.96933,481.00,446.75
38.98919,478.95,447.02
39.00978,481.73,447.52
39.02895,485.27,447.83
39.04924,484.21,446.82
39.06824,484.89,445.41
39.08911,490.85,451.44
39.10938,493.01,452.80
39.12910,492.47,455.99
39.14905,494.07,458.25
39.16869,500.05,464.30
39.18893,501.54,470.57
39.20977,500.37,474.62
39.22807,504.85,481.72
39.24904,505.51,485.46
39.26945,504.32,492.51
39.28892,503.39,499.31
39.30970,506.49,506.86
39.32837,506.09,513.89
39.34883,505.21,516.40
39.36828,505.09,521.51
39.38958,505.60,524.49
39.40804,507.44,527.36
39.42837,504.73,530.39
39.44831,504.89,533.36
39.46800,503.40,533.39
39.48914,503.59,538.10
39.50925,506.51,536.27
39.52892,503.14,539.53
39.54904,503.09,541.12
39.56792,506.47,542.56
39.58818,503.65,544.95
39.60810,506.04,543.29
39.62847,504.68,544.71
39.64901,504.91,546.75
39.66809,502.96,546.07
39.68828,505.10,545.69
39.70984,504.75,547.56
39.72964,506.23,549.00
39.74881,503.86,547.54
39.76826,504.40,544.40
39.78824,503.01,547.25
39.80989,504.78,545.60
39.82912,505.76,555.75
39.84802,505.22,571.11
39.86942,508.90,596.85
39.88846,509.28,625.36
39.90931,512.39,659.79
39.92825,512.95,686.10
39.94830,519.64,708.88
39.96935,524.11,719.04
39.98923,524.16,726.37
40.00946,528.56,722.05
40.02897,529.04,713.95
40.04963,527.02,696.87
40.06950,526.33,680.85
40.08946,524.96,662.66
40.10793,525.40,645.22
40.12986,522.72,631.95
40.14796,517.90,617.31
40.16848,518.43,606.74
40.18809,518.13,594.30
40.20838,515.04,585.98
40.22882,512.93,578.18
40.24945,511.07,573.27
40.26878,513.92,567.87
40.28797,511.61,557.55
40.30899,513.67,551.25
40.32847,511.35,547.98
40.34909,514.42,545.87
40.36849,512.22,543.59
40.38977,511.88,543.93
40.40901,510.08,539.84
40.42808,509.94,543.20
40.44920,510.29,541.05
40.46887,509.26,543.30
40.48809,506.98,542.25
40.50804,507.27,540.39
40.52838,509.67,542.23
40.54903,509.60,541.31
40.56956,508.79,542.88
40.58822,506.80,541.88
40.60813,506.56,544.37
40.62809,506.61,542.56
40.64930,508.23,546.20
40.66947,508.48,542.77
40.68912,509.05,543.50
40.70902,507.21,546.07
40.72883,509.13,543.12
40.74912,509.10,545.27
40.76960,508.34,543.42
40.78833,509.28,542.41
40.80887,507.33,544.02
40.82888,506.27,545.08
40.84868,507.37,543.61
40.86777,508.97,544.84
40.88793,508.14,545.02
40.90990,509.07,543.64
40.92945,506.25,543.74
40.94837,509.45,544.62
40.96915,509.14,547.11
40.98954,510.14,547.95
41.00959,508.59,546.28
41.02819,507.63,548.37
41.04862,508.72,549.27
41.06954,509.58,547.30
41.08843,509.13,548.59
41.10849,508.44,548.84
41.12912,507.09,549.77
41.14892,508.25,548.33
41.16956,509.91,550.35
41.18851,510.04,548.16
41.20799,508.80,548.52
41.22991,509.59,549.10
41.24963,510.29,549.52
41.26904,510.17,545.95
41.28801,510.91,548.28
41.30977,508.41,550.53
41.32795,508.35,551.01
41.34852,510.31,548.58
41.36821,509.51,549.12
41.38921,507.91,548.44
41.40808,510.23,551.61
41.42944,510.84,549.17
41.44970,508.22,549.97
41.46932,510.72,551.76
41.48846,511.32,552.51
41.50855,513.34,548.14
41.52881,512.40,548.89
41.54834,513.05,548.45
41.56912,513.68,548.15
41.58949,514.12,548.60
41.60903,511.13,547.27
41.62863,510.36,546.83
41.64928,512.25,548.15
41.66976,510.33,546.85
41.68904,509.98,547.84
41.70902,513.48,547.84
41.72808,512.99,545.34
41.74942,512.40,542.82
41.76964,511.57,545.79
41.78838,510.03,543.38
41.80950,511.21,542.99
41.82907,510.49,542.26
41.84882,510.42,546.18
41.86872,509.36,545.62
41.88941,509.20,545.78
41.90870,508.93,544.86
41.92804,510.83,545.46
41.94831,512.83,545.29
41.96805,513.15,544.28
41.98869,514.78,546.70
42.00792,513.96,545.87
42.02856,511.85,547.06
42.04930,511.19,547.31
42.06900,510.15,549.32
42.08910,512.11,549.89
42.10879,513.15,547.82
42.12900,512.01,549.10
42.14812,513.44,549.49
42.16843,516.18,550.12
42.18899,513.75,549.16
42.20912,516.54,548.02
42.22843,515.49,546.90
42.24861,517.18,549.56
42.26860,513.94,545.98
42.28946,515.76,547.03
42.30870,514.20,549.89
42.32855,517.01,548.54
42.34807,516.62,549.11
42.36806,512.08,547.41
42.38857,512.16,550.00
42.40811,515.06,547.58
42.43042,517.55,551.63
42.45033,516.10,552.38
42.46919,515.52,552.40
42.49075,515.79,551.99
42.50914,516.85,552.45
42.53075,521.06,549.34
42.55003,517.98,551.35
42.57018,517.91,551.58
42.58955,517.67,551.60
42.61035,517.48,550.02
42.62921,517.09,550.10
42.64971,515.63,551.75
42.66948,516.88,548.11
42.68979,513.99,539.51
42.70996,511.17,524.93
42.72989,508.75,504.18
42.74954,503.61,485.92
42.77010,502.25,463.42
42.78946,498.80,446.09
42.80940,495.84,434.90
42.82996,495.41,425.96
42.85024,495.27,421.36
42.87028,498.55,416.90
42.89079,497.05,419.59
42.91005,501.27,426.89
42.92904,505.22,430.50
42.94955,510.66,441.00
42.96933,510.51,447.96
42.99057,514.42,458.63
43.00929,516.42,469.48
43.03073,514.64,479.58
43.05058,515.75,486.61
43.06960,517.83,492.48
43.08874,517.80,499.26
43.10927,517.63,506.19
43.12989,516.38,508.01
43.15025,515.73,514.03
43.16958,514.85,519.28
43.18986,516.55,524.04
43.20968,517.40,525.85
43.22916,516.84,530.81
43.25046,520.02,532.93
43.27106,519.31,537.89
43.29164,520.29,539.53
43.31007,519.62,541.99
43.33147,521.75,544.28
43.35161,524.25,549.36
43.37015,521.69,551.80
43.39123,524.34,554.00
43.41003,523.45,553.56
43.43151,521.11,557.31
43.45145,525.59,570.96
43.47041,525.50,601.17
43.48997,530.06,638.81
43.51000,532.17,668.19
43.53023,537.25,697.86
43.55126,540.01,718.24
43.57023,544.29,727.81
43.59013,550.49,729.27
43.61063,550.28,720.36
43.62982,551.56,703.13
43.65032,549.64,684.81
43.67146,544.92,668.47
43.69159,547.22,651.89
43.71174,542.58,636.48
43.73065,540.02,620.10
43.75158,541.04,611.19
43.77124,537.56,599.98
43.79077,539.02,590.84
43.81007,539.23,583.37
43.83059,537.02,578.59
43.85021,536.38,572.70
43.87054,535.05,568.89
43.89115,533.62,563.85
43.91054,532.55,561.63
43.93087,532.74,559.28
43.95005,535.90,560.30
43.97036,534.75,557.39
43.99102,535.53,558.46
44.00962,533.31,557.80
44.03049,531.46,557.80
44.05165,529.65,554.26
44.06996,529.21,556.17
44.09008,530.28,553.24
44.11152,530.67,554.24
44.13036,530.31,556.53
44.15155,527.17,556.31
44.16996,526.80,553.33
44.19142,528.62,557.22
44.20961,530.28,554.80
44.23094,531.45,556.24
44.25137,530.54,554.91
44.27035,528.49,557.48
44.29076,528.89,555.97
44.31085,531.17,553.68
44.33086,527.69,554.37
44.35041,528.38,554.92
44.37082,526.99,554.82
44.38994,530.38,556.97
44.41084,528.99,554.20
44.43134,529.89,554.85
44.45034,528.41,556.37
44.47005,531.06,554.94
44.49003,531.30,556.66
44.51069,529.29,557.42
44.53090,528.70,558.90
44.54961,529.16,555.79
44.57062,531.16,555.11
44.59119,532.96,557.16
44.61115,531.49,555.54
44.62993,529.84,556.04
44.65020,530.57,558.01
44.67130,530.92,555.49
44.69157,532.40,554.79
44.71050,528.43,554.67
44.73169,530.89,557.25
44.75111,530.59,556.14
44.77210,527.80,552.43
44.79159,528.46,553.86
44.81079,531.44,555.72
44.83192,528.57,554.27
44.85282,530.05,553.60
44.87264,528.65,552.92
44.89196,531.60,554.60
44.91131,530.23,557.29
44.93239,528.04,555.28
44.95080,530.63,556.36
44.97206,529.10,553.88
44.99169,528.50,554.59
45.01199,529.74,556.31
45.03102,529.01,558.43
45.05335,529.65,555.79
45.07334,528.14,556.89
45.09369,525.89,554.40
45.11291,528.35,557.72
45.13262,527.99,555.33
45.15180,524.97,555.93
45.17359,526.12,554.92
45.19252,525.88,558.29
45.21373,524.75,558.08
45.23339,525.13,559.54
45.25333,523.66,559.55
45.27329,525.06,558.60
45.29338,527.06,557.65
45.31362,526.26,555.05
45.33341,525.79,556.02
45.35369,527.96,558.49
45.37239,525.07,556.79
45.39216,528.22,557.90
45.41180,526.36,556.81
45.43258,527.20,554.65
45.45258,529.47,554.62
45.47320,527.77,558.21
45.49328,530.30,557.37
45.51182,527.92,556.43
45.53339,529.00,557.23
45.55238,524.44,556.35
45.57193,525.18,558.26
45.59268,527.11,556.51
45.61245,525.41,554.22
45.63287,524.65,554.47
45.65334,524.71,554.94
45.67249,524.84,555.80
45.69345,526.63,553.29
45.71257,525.99,554.98
45.73271,526.52,554.21
45.75300,525.89,551.98
45.77359,526.02,554.64
45.79320,526.00,553.68
45.81387,524.79,554.87
45.83278,526.89,551.95
45.85367,522.54,553.56
45.87327,523.60,556.01
45.89368,524.26,552.74
45.91215,522.77,553.92
45.93334,523.35,554.61
45.95215,526.35,553.22
45.97266,525.83,556.25
45.99342,525.70,554.88
46.01302,525.74,555.24
46.03248,523.17,554.53
46.05356,521.64,556.81
46.07241,524.30,556.21
46.09199,522.36,554.74
46.11199,525.84,554.92
46.13300,523.73,555.54
46.15209,525.61,553.73
46.17324,524.61,553.81
46.19351,526.95,554.82
46.21183,526.15,552.72
46.23259,525.33,552.56
46.25356,527.12,553.30
46.27306,524.06,550.57
46.29366,523.79,552.22
46.31287,526.15,553.43
46.33243,526.00,553.92
46.35182,525.34,554.77
46.37247,527.27,554.24
46.39335,527.56,553.52
46.41249,524.52,554.07
46.43184,524.46,556.48
46.45317,525.90,554.92
46.47343,521.14,557.49
46.49242,520.93,557.27
46.51298,519.73,554.79
46.53274,520.62,553.59
46.55248,521.44,554.53
46.57209,518.80,554.41
46.59228,521.40,555.33
46.61275,523.18,552.55
46.63275,520.55,552.10
46.65355,522.30,552.06
46.67331,521.35,551.04
46.69263,523.16,550.87
46.71258,524.56,551.61
46.73274,523.16,554.68
46.75215,523.06,553.60
46.77304,524.77,553.36
46.79286,524.94,557.01
46.81228,522.65,552.39
46.83374,521.69,541.46
46.85172,517.30,526.62
46.87324,515.02,512.25
46.89281,511.99,500.10
46.91250,512.90,485.65
46.93267,508.77,473.92
46.95314,505.57,459.85
46.97291,506.29,453.84
46.99235,508.11,447.03
47.01323,504.35,443.89
47.03334,504.46,440.71
47.05173,503.45,440.01
47.07265,504.11,442.95
47.09319,505.50,443.94
47.11520,507.17,449.91
47.13530,507.57,454.62
47.15428,506.08,459.01
47.17487,506.09,466.57
47.19515,507.01,474.73
47.21538,505.92,483.01
47.23393,508.02,489.97
47.25512,507.49,494.93
47.27516,509.95,504.78
47.29626,508.88,509.51
47.31632,504.98,512.49
47.33597,505.22,519.38
47.35485,507.35,523.96
47.37609,508.68,526.03
47.39489,507.56,529.94
47.41489,509.48,532.59
47.43528,508.71,532.22
47.45670,510.77,535.72
47.47657,507.81,540.96
47.49493,508.17,553.58
47.51613,511.54,579.64
47.53574,516.20,616.45
47.55543,518.15,656.16
47.57536,524.26,693.62
47.59656,526.14,717.71
47.61483,528.70,734.24
47.63571,527.43,737.12
47.65659,526.72,737.77
47.67504,524.06,724.20
47.69672,525.23,710.30
47.71586,525.40,690.24
47.73614,518.99,667.76
47.75529,518.56,646.33
47.77620,514.59,626.52
47.79569,514.90,610.84
47.81736,511.96,595.98
47.83753,513.00,586.79
47.85711,508.89,577.53
47.87668,508.78,568.68
47.89591,507.13,560.82
47.91685,507.80,556.53
47.93669,509.45,553.25
47.95633,506.68,548.45
47.97653,509.60,548.93
47.99652,507.22,545.95
48.01712,509.56,543.67
48.03633,511.39,544.63
48.05702,510.01,543.28
48.07687,510.59,543.56
48.09837,511.27,541.03
48.11702,508.26,544.26
48.13709,511.33,545.10
48.15763,509.48,545.47
48.17808,510.44,542.67
48.19747,510.75,543.46
48.21745,510.51,543.57
48.23796,509.04,544.84
48.25770,508.60,542.31
48.27792,510.79,542.82
48.29785,510.82,546.25
48.31801,510.33,545.64
48.33713,511.13,545.24
48.35826,509.25,543.31
48.37765,510.70,546.25
48.39759,509.65,543.86
48.41862,510.37,543.97
48.43742,511.33,546.47
48.45824,508.99,546.68
48.47830,510.15,548.38
48.49697,510.88,548.73
48.51864,513.08,546.57
48.53823,510.87,547.70
48.55787,512.66,545.39
48.57770,512.29,546.50
48.59676,513.21,545.86
48.61732,510.95,543.94
48.63857,510.40,544.82
48.65679,511.73,545.78
48.67757,510.23,545.17
48.69829,511.82,545.63
48.71742,509.71,546.54
48.73703,509.13,547.81
48.75822,506.20,549.16
48.77855,506.27,552.89
48.79702,508.73,549.32
48.81804,507.47,552.23
48.83724,509.74,549.78
48.85834,509.07,548.46
48.87679,509.58,547.78
48.89731,511.65,549.09
48.91684,512.11,547.21
48.93732,514.56,547.69
48.95719,512.43,547.70
48.97805,510.56,547.35
48.99788,513.49,547.30
49.01687,513.42,545.32
49.03798,509.91,545.44
49.05778,510.28,546.39
49.07680,510.97,548.01
49.09698,509.32,548.37
49.11758,510.74,547.05
49.13805,510.44,546.36
49.15809,510.47,545.95
49.17830,512.88,546.01
49.19824,510.65,544.96
49.21711,508.71,547.57
49.23714,511.11,547.05
49.25728,512.24,547.33
49.27725,513.34,546.22
49.29721,514.58,548.32
49.31822,512.69,546.35
49.33851,511.78,548.83
49.35816,513.48,546.98
49.37780,512.11,546.03
49.39808,512.62,548.26
49.41748,513.33,547.32
49.43774,514.08,547.33
49.45689,511.25,546.41
49.47654,511.64,548.65
49.49732,511.11,546.61
49.51857,512.06,547.84
49.53845,509.49,549.30
49.55704,510.53,548.08
49.57775,510.53,548.80
49.59753,512.42,549.36
49.61870,514.10,550.03
49.63812,510.25,550.02
49.65801,513.77,550.97
49.67906,511.88,548.85
49.69837,514.92,550.77
49.71826,511.82,550.42
49.73905,511.20,551.33
49.75873,514.54,551.23
49.77873,517.33,549.95
49.79993,515.08,551.36
49.81968,515.74,552.27
49.83887,519.99,549.94
49.85867,520.18,550.14
49.87860,517.91,549.12
49.89996,517.43,550.56
49.91956,518.23,548.60
49.93887,516.92,552.29
49.95894,519.71,550.66
49.97907,521.16,551.20
49.99950,521.89,550.64
50.02007,519.06,550.53
50.04032,518.31,549.29
50.05971,520.91,551.29
50.07917,522.52,550.59
50.09953,521.05,548.20
50.12028,524.00,551.05
50.14078,523.26,549.34
50.15953,522.59,548.90
50.17947,522.94,548.00
50.20036,524.53,549.61
50.22031,524.77,549.99
50.24156,523.39,551.16
50.25965,521.80,547.63
50.28036,522.01,550.29
50.30020,523.33,548.29
50.32061,523.47,549.65
50.34101,526.35,550.53
50.35951,523.87,551.37
50.38025,526.51,550.18
50.40103,526.43,551.85
50.41965,527.30,549.49
50.44021,526.57,549.49
50.45987,526.54,552.63
50.48059,526.87,555.37
50.49979,529.03,556.55
50.51975,526.25,555.28
50.54078,526.52,544.60
50.56008,524.67,532.83
50.57973,518.36,515.41
50.60082,517.20,495.42
50.61968,515.31,476.19
50.64127,512.65,462.24
50.66036,510.34,445.04
50.68079,511.04,436.11
50.70026,512.89,429.61
50.72121,511.43,427.09
50.74099,513.89,423.33
50.75969,513.16,424.97
50.78092,513.35,431.11
50.80031,516.27,437.13
50.82028,517.36,446.65
50.84110,518.39,454.04
50.86023,515.98,463.46
50.88069,516.96,474.74
50.90018,517.69,483.65
50.92141,520.84,493.74
50.94140,520.49,502.23
50.96044,521.54,508.20
50.98074,521.93,513.62
51.00144,522.27,519.43
51.02160,523.89,526.80
51.04095,526.24,530.56
51.06106,527.31,530.88
51.07968,525.04,536.91
51.10050,524.70,537.25
51.12072,525.59,540.18
51.14087,526.53,541.78
51.15966,525.61,542.10
51.18014,524.62,541.40
51.19964,526.10,542.22
51.22088,527.96,547.15
51.24127,526.02,546.38
51.26075,526.25,546.53
51.28070,525.90,554.69
51.30157,529.44,571.73
51.31976,530.42,595.62
51.34090,530.44,622.63
51.36185,535.26,647.34
51.38132,535.62,670.22
51.40090,536.41,692.42
51.42248,540.84,704.48
51.44277,542.34,711.41
51.46259,546.31,708.47
51.48446,545.22,697.10
51.50314,543.17,683.00
51.52315,544.71,667.69
51.54301,544.19,650.99
51.56519,540.19,638.52
51.58428,539.32,624.93
51.60549,534.40,613.45
51.62534,532.45,602.65
51.64392,533.53,597.39
51.66449,531.36,591.62
51.68539,531.30,586.40
51.70611,528.00,582.87
51.72471,528.51,574.76
51.74469,528.11,572.22
51.76603,526.33,567.79
51.78648,526.34,567.95
51.80582,526.89,562.84
51.82528,523.37,564.03
51.84514,522.75,559.87
51.86474,522.42,559.92
51.88622,522.13,558.98
51.90500,521.55,555.42
51.92496,520.22,555.99
51.94591,522.45,553.55
51.96497,520.16,551.68
51.98500,522.42,551.81
52.00528,524.57,550.29
52.02530,521.64,550.89
52.04647,523.07,550.46
52.06506,520.33,547.85
52.08651,520.93,548.11
52.10618,519.10,548.24
52.12720,517.37,550.19
52.14733,518.32,546.73
52.16744,514.82,546.67
52.18712,516.29,550.59
52.20657,512.80,549.19
52.22619,514.00,548.29
52.24577,512.35,549.21
52.26761,512.11,550.10
52.28573,513.62,548.40
52.30692,514.87,551.89
52.32596,512.98,551.84
52.34611,515.86,550.37
52.36598,510.96,553.17
52.38593,513.25,550.20
52.40589,513.77,550.66
52.42682,514.14,551.33
52.44837,513.42,550.77
52.46743,513.70,550.33
52.48823,511.03,550.11
52.50688,513.88,549.37
52.52829,513.37,549.40
52.54903,512.44,549.01
52.56990,512.59,546.79
52.59007,513.22,548.14
52.60993,510.21,547.08
52.62946,510.74,545.87
52.65037,508.62,545.59
52.66915,507.39,547.79
52.69028,507.55,546.97
52.70939,507.11,545.63
52.72885,508.82,547.02
52.74928,508.47,549.27
52.76869,508.36,546.28
52.78999,507.67,546.64
52.80925,510.00,548.03
52.83030,508.73,544.84
52.85024,507.35,545.83
52.86835,506.83,545.24
52.88987,508.19,545.69
52.90998,506.74,547.77
52.93015,505.61,547.79
52.94992,509.09,546.47
52.97000,508.89,547.52
52.98862,509.30,546.26
53.00984,506.92,544.81
53.03045,510.46,547.17
53.05146,510.79,547.96
53.07021,508.38,547.78
53.09052,509.81,547.76
53.11139,510.33,546.05
53.13086,511.61,544.47
53.15097,512.29,543.91
53.17050,510.16,546.81
53.19110,511.35,544.83
53.21189,511.62,545.04
53.23181,512.38,543.94
53.25264,512.41,546.01
53.27247,515.03,546.11
53.29158,514.09,544.79
53.31281,512.07,545.92
53.33164,511.93,547.20
53.35287,515.29,545.04
53.37187,516.79,544.50
53.39263,514.80,546.82
53.41173,515.12,545.49
53.43295,518.00,546.13
53.45402,517.30,544.28
53.47407,514.97,545.41
53.49250,516.11,544.72
53.51339,516.27,546.90
53.53348,514.88,545.91
53.55412,514.10,548.31
53.57346,514.89,550.11
53.59290,516.87,549.71
53.61461,517.85,549.21
53.63418,518.16,548.54
53.65441,519.24,549.40
53.67402,518.93,548.64
53.69412,520.52,549.39
53.71458,521.30,550.68
53.73358,523.42,550.93
53.75390,521.62,550.24
53.77548,521.46,549.09
53.79376,521.26,547.57
53.81451,521.02,549.47
53.83421,521.84,547.72
53.85357,521.09,548.89
53.87363,522.10,547.74
53.89519,521.18,550.47
53.91532,525.20,550.08
53.93420,525.62,552.12
53.95500,525.64,549.96
53.97496,522.36,551.31
53.99504,525.64,550.65
54.01525,525.12,550.97
54.03545,522.87,551.80
54.05366,524.37,551.30
54.07499,525.10,549.57
54.09415,524.12,548.94
54.11397,526.75,551.42
54.13421,526.93,550.65
54.15382,525.98,552.03
54.17410,526.80,552.01
54.19492,523.46,550.68
54.21375,524.25,548.01
54.23351,523.18,550.19
54.25535,524.76,548.59
54.27361,523.12,547.26
54.29431,521.52,550.32
54.31472,522.65,550.12
54.33476,525.06,554.82
54.35360,524.57,556.25
54.37369,529.52,549.58
54.39354,527.76,539.42
54.41515,530.25,518.10
54.43535,526.92,493.12
54.45532,525.53,467.55
54.47430,523.32,447.88
54.49497,516.36,431.40
54.51475,514.76,418.89
54.53495,514.88,415.58
54.55588,514.48,414.11
54.57787,513.80,416.72
54.59826,512.95,423.35
54.61723,514.49,432.99
54.63928,514.82,446.44
54.65856,516.35,458.30
54.67905,517.68,469.23
54.69903,522.03,486.94
54.71948,525.96,515.82
54.73782,533.62,566.42
54.75799,537.40,624.66
54.77875,543.69,674.04
54.79860,544.19,698.97
54.81790,542.50,705.58
54.83828,540.47,697.18
54.85841,538.65,681.84
54.87907,533.97,663.04
54.89834,532.32,644.54
54.91847,531.86,623.73
54.93772,528.11,610.24
54.95902,527.31,594.92
54.97861,529.16,586.54
54.99868,526.61,574.65
55.01871,523.54,568.85
55.03781,525.65,565.17
55.05900,523.18,560.90
55.07910,524.99,555.68
55.09795,522.79,557.14
55.11949,526.21,553.89
55.13823,524.26,552.35
55.15926,526.25,551.96
55.17765,522.51,558.29
55.19908,523.29,563.28
55.21848,526.50,581.33
55.23884,525.56,607.45
55.25854,529.24,632.95
55.27821,532.93,642.96
55.29890,530.75,629.76
55.31924,528.61,606.78
55.33929,526.26,587.68
55.35837,524.80,569.95
55.37945,525.69,556.88
55.39862,526.03,561.22
55.41821,527.98,579.38
55.43799,531.95,611.23
55.45893,533.94,634.21
55.47792,535.36,633.64
55.49897,531.83,624.33
55.51819,532.56,605.36
55.53765,529.25,585.15
55.55891,526.92,567.97
55.57832,526.98,558.74
55.59732,526.16,545.50
55.61821,526.97,536.85
55.63871,525.34,535.75
55.65924,527.14,539.73
55.67819,527.71,556.59
55.69815,528.69,594.69
55.71752,531.10,615.41
55.73776,531.16,618.42
55.75947,532.67,610.87
55.77764,535.32,599.05
55.79872,533.79,580.67
55.81791,533.30,566.52
55.83804,529.94,556.69
55.85897,529.09,547.44
55.87918,526.10,534.67
55.89753,527.24,533.11
55.91849,527.50,526.76
55.93909,525.15,527.51
55.95923,522.13,530.36
55.97843,524.82,530.43
55.99879,523.79,531.19
56.01814,520.55,534.04
56.03798,519.76,539.99
56.05751,519.28,538.32
56.07922,521.10,540.71
56.09842,522.88,545.21
56.11791,516.48,543.20
56.13769,517.85,544.60
56.15808,515.41,543.60
56.17813,517.81,541.87
56.19800,511.18,544.94
56.21941,515.04,543.67
56.23835,513.83,542.51
56.25850,512.13,544.84
56.27808,514.15,543.44
56.29923,515.18,544.32
56.31762,515.08,546.97
56.33778,514.30,547.89
56.35823,513.36,546.93
56.37936,521.21,548.92
56.39852,522.78,553.38
56.41782,516.14,551.85
56.43885,519.90,553.76
56.45843,518.17,552.27
56.47891,518.98,550.55
56.49899,523.34,550.57
56.51823,516.32,551.51
56.53909,515.57,554.05
56.55886,515.21,549.82
56.57804,517.63,553.53
56.59925,520.58,550.31
56.61895,521.24,551.34
56.63949,520.94,550.57
56.65911,519.81,551.28
56.68024,516.47,553.17
56.69867,514.00,552.87
56.71923,516.73,553.97
56.73923,516.29,551.50
56.75971,512.61,551.89
56.78018,511.79,551.34
56.80199,508.42,550.96
56.82218,508.65,548.06
56.84197,509.98,546.05
56.86236,514.13,547.45
56.88357,513.22,547.20
56.90221,514.73,548.12
56.92325,515.05,546.25
56.94290,517.34,547.09
56.96186,518.20,550.44
56.98154,519.28,547.70
57.00302,520.54,549.86
57.02301,524.33,549.22
57.04266,523.77,544.19
57.06176,526.60,544.00
