Program Time [s],data 0,data 1
10.15965,548.04,681.08
10.18016,561.03,673.16
10.20011,567.65,658.85
10.22008,570.28,629.86
10.23980,567.17,605.43
10.26054,564.79,583.46
10.27968,560.45,562.09
10.30005,552.11,544.84
10.31970,547.26,532.58
10.33983,544.13,523.25
10.36082,538.10,518.04
10.38041,532.17,510.73
10.39977,530.74,509.29
10.42042,524.63,509.21
10.43975,522.65,511.42
10.45971,524.55,508.40
10.47986,528.33,502.39
10.50090,527.35,500.13
10.52122,527.49,500.37
10.54024,525.75,503.64
10.56022,528.27,510.29
10.57981,527.43,515.73
10.60002,527.03,517.12
10.62115,527.80,522.50
10.64127,530.80,527.09
10.66038,533.63,528.13
10.68098,530.15,538.07
10.70049,525.22,542.49
10.72114,525.27,544.08
10.74081,522.67,549.61
10.76013,519.12,549.48
10.78087,516.54,549.11
10.80065,521.43,552.17
10.82238,518.27,552.66
10.84136,520.56,552.20
10.86162,518.39,552.31
10.88142,519.12,554.98
10.90163,521.67,556.36
10.92337,522.21,553.37
10.94192,522.82,551.74
10.96293,520.83,552.85
10.98324,521.93,550.79
11.00382,520.56,552.71
11.02363,520.29,558.23
11.04261,511.88,554.55
11.06507,493.08,552.50
11.08622,469.19,544.79
11.10681,452.99,538.70
11.12715,445.70,537.23
11.14837,440.17,538.14
11.16823,441.54,539.65
11.18831,439.09,538.86
11.20825,441.58,540.23
11.22910,447.11,544.70
11.24862,452.48,548.54
11.27009,458.41,553.08
11.28947,460.79,559.95
11.30966,465.60,565.15
11.33076,470.40,564.37
11.34966,475.36,568.93
11.37104,479.42,569.36
11.39056,483.10,570.39
11.41060,483.83,571.99
11.43118,474.82,551.58
11.45075,467.80,532.39
11.47097,458.08,519.98
11.49112,460.37,514.99
11.50979,455.77,521.42
11.53124,459.45,517.33
11.55082,457.51,523.05
11.57011,464.72,525.15
11.59038,467.54,527.24
11.61091,471.60,535.04
11.63250,474.49,536.14
11.65151,487.31,557.61
11.67290,498.17,582.81
11.69455,512.05,607.55
11.71520,525.55,631.57
11.73502,531.44,641.20
11.75659,537.88,623.48
11.77621,545.32,624.42
11.79728,546.36,611.98
11.81740,546.44,620.39
11.83603,544.92,625.49
11.85583,545.54,600.95
11.87593,541.79,592.21
11.89746,543.94,592.26
11.91823,536.27,575.86
11.93918,526.64,536.69
11.95925,520.63,520.05
11.97731,513.75,495.25
11.99933,506.14,488.82
12.01848,501.20,498.25
12.03888,503.23,488.04
12.05864,499.54,481.12
12.07943,499.19,479.22
12.09994,506.97,487.60
12.11980,505.99,490.42
12.14032,512.55,494.40
12.15949,513.64,509.31
12.18089,517.26,515.57
12.19973,523.83,515.90
12.22014,520.74,516.95
12.24020,522.97,527.63
12.26108,524.90,529.98
12.27958,526.79,515.73
12.29992,528.97,525.33
12.32053,524.43,531.21
12.34076,524.09,528.94
12.36125,523.45,524.08
12.37952,525.94,519.45
12.40105,526.09,532.11
12.42048,531.40,527.04
12.43997,528.73,537.38
12.46130,522.77,538.93
12.48024,527.25,535.22
12.50039,525.97,525.81
12.52108,523.64,525.38
12.54020,523.04,554.76
12.56066,524.27,555.45
12.58135,523.18,545.19
12.59953,522.32,534.44
12.62060,523.97,529.93
12.64123,528.85,535.06
12.66123,531.63,538.57
12.68048,528.47,545.44
12.70082,529.98,542.09
12.72107,529.20,552.24
12.74243,532.07,548.70
12.76077,528.58,540.39
12.78215,528.03,542.71
12.80135,529.96,548.67
12.82226,525.00,551.42
12.84252,504.61,569.74
12.86104,484.32,585.95
12.88212,470.46,593.71
12.90094,469.00,600.54
12.92081,473.88,600.76
12.94112,477.06,595.45
12.96098,485.21,596.24
12.98195,495.25,603.61
13.00107,503.15,603.28
13.02111,514.38,600.41
13.04079,521.66,597.42
13.06234,527.18,592.33
13.08089,532.24,586.68
13.10192,532.79,603.48
13.12140,535.71,593.18
13.14126,537.93,586.64
13.16094,535.92,583.77
13.18306,533.73,580.20
13.20328,537.26,581.34
13.22210,536.46,588.40
13.24312,535.86,600.01
13.26190,532.12,595.41
13.28331,540.67,585.47
13.30326,548.09,578.90
13.32330,550.32,589.28
13.34294,552.91,589.13
13.36296,550.01,579.74
13.38531,545.94,579.16
13.40441,544.74,590.02
13.42448,539.92,585.89
13.44452,535.04,578.93
13.46488,528.95,574.00
13.48460,526.80,569.43
13.50454,530.91,561.49
13.52519,530.29,565.25
13.54677,532.47,563.37
13.56541,541.32,565.69
13.58626,552.91,576.11
13.60813,560.79,567.84
13.62799,555.86,565.72
13.64867,550.53,573.67
13.67008,548.60,571.43
13.68999,540.27,573.97
13.71053,534.78,583.22
13.73222,543.71,601.58
13.75216,547.09,650.66
13.77140,545.68,688.85
13.79191,550.22,693.33
13.81036,548.66,696.27
13.83108,549.19,671.96
13.85182,537.48,638.47
13.87116,515.32,609.60
13.89232,496.57,586.36
13.91225,478.30,548.77
13.93330,470.72,523.15
13.95363,466.08,505.98
13.97499,462.01,493.84
13.99517,469.34,492.99
14.01617,469.68,482.06
14.03711,471.69,494.87
14.05738,480.79,496.63
14.07754,485.77,501.69
14.09722,494.85,502.43
14.11735,497.99,499.85
14.13600,499.65,494.14
14.15577,499.04,495.77
14.17579,500.65,495.87
14.19718,506.89,509.51
14.21631,506.02,524.26
14.23615,505.70,518.65
14.25558,506.80,524.73
14.27733,510.49,524.70
14.29709,511.53,525.29
14.31699,509.74,520.43
14.33741,508.73,520.83
14.35568,505.65,512.70
14.37599,504.93,513.42
14.39628,507.24,510.36
14.41642,507.60,507.19
14.43533,505.73,510.75
14.45618,507.55,516.88
14.47639,506.93,513.56
14.49615,508.09,524.47
14.51737,516.46,531.75
14.53588,513.45,557.90
14.55633,518.76,595.25
14.57653,512.39,615.97
14.59662,508.56,618.16
14.61670,511.29,599.17
14.63636,509.63,571.25
14.65668,507.98,538.08
14.67588,503.68,513.79
14.69710,510.35,494.05
14.71687,508.63,474.50
14.73641,510.75,466.66
14.75731,511.73,468.39
14.77546,508.31,464.21
14.79591,510.28,456.79
14.81714,514.34,476.43
14.83641,501.19,491.75
14.85631,498.02,504.02
14.87672,500.25,519.87
14.89683,511.27,569.11
14.91732,526.87,617.29
14.93551,539.50,666.25
14.95695,550.96,690.52
14.97826,560.55,704.73
14.99829,566.23,720.86
15.01821,573.98,743.04
15.03787,579.43,756.23
15.05652,584.96,764.76
15.07674,582.59,757.45
15.09831,580.94,750.43
15.11741,569.55,728.50
15.13665,555.94,685.35
15.15831,529.52,640.92
15.17783,513.92,586.59
15.19867,500.63,535.35
15.21748,494.26,507.93
15.23745,494.53,485.35
15.25883,497.61,470.90
15.27926,492.69,474.80
15.30093,491.23,467.37
15.32122,483.86,468.94
15.34108,489.07,477.47
15.36151,490.75,480.22
15.38130,495.33,493.64
15.40095,495.99,499.37
15.42021,498.68,507.99
15.44023,503.24,515.40
15.46102,516.01,521.17
15.48203,512.59,517.91
15.50190,513.40,535.47
15.52157,505.16,539.61
15.54229,514.98,547.73
15.56250,514.49,556.58
15.58351,505.26,561.03
15.60163,508.38,567.99
15.62149,505.14,574.41
15.64214,502.29,576.57
15.66184,502.24,582.66
15.68152,499.34,587.35
15.70199,508.11,592.67
15.72325,504.44,600.95
15.74329,505.41,607.05
15.76155,509.90,608.73
15.78161,513.69,613.58
15.80160,524.73,607.19
15.82151,524.65,584.74
15.84323,521.44,556.86
15.86312,516.94,530.71
15.88238,514.85,509.99
15.90185,512.82,500.85
15.92222,504.98,484.50
15.94229,506.42,476.50
15.96240,501.72,472.23
15.98359,496.93,468.51
16.00266,500.03,471.71
16.02216,501.85,479.03
16.04245,497.49,487.02
16.06318,500.36,495.77
16.08486,501.23,515.56
16.10400,501.37,525.33
16.12359,507.81,531.72
16.14340,501.90,538.75
16.16556,503.31,540.62
16.18697,503.27,556.20
16.20581,502.43,566.21
16.22715,505.36,574.15
16.24637,505.37,581.12
16.26635,496.39,586.72
16.28662,497.47,588.49
16.30678,505.24,593.63
16.32539,501.14,594.37
16.34722,496.53,591.25
16.36755,506.11,596.61
16.38662,494.27,592.42
16.40720,494.89,591.11
16.42839,495.25,595.47
16.44809,498.01,597.45
16.46838,495.52,595.02
16.48962,496.31,599.17
16.50944,499.03,594.63
16.53043,499.52,592.30
16.54933,498.00,595.90
16.57112,502.46,591.34
16.59074,505.00,591.09
16.61018,505.65,593.36
16.62921,502.90,592.20
16.64937,509.60,587.19
16.67110,506.36,590.54
16.68961,506.99,587.47
16.71117,505.24,592.06
16.73305,509.36,588.98
16.75248,507.00,589.68
16.77291,508.84,585.42
16.79305,505.13,586.69
16.81308,504.14,594.01
16.83243,511.81,616.99
16.85395,514.87,664.50
16.87257,515.84,711.29
16.89252,518.59,746.85
16.91288,522.45,769.36
16.93287,528.06,775.69
16.95292,529.02,765.46
16.97370,521.60,750.77
16.99338,525.72,735.10
17.01258,520.22,714.04
17.03304,522.02,694.95
17.05312,522.32,679.20
17.07353,515.14,664.28
17.09385,518.39,649.45
17.11446,521.14,641.20
17.13523,521.87,629.63
17.15367,523.81,628.45
17.17436,523.06,629.22
17.19414,522.67,629.33
17.21394,524.29,625.68
17.23531,528.02,621.63
17.25469,530.82,622.96
17.27494,530.81,615.68
17.29360,526.61,614.26
17.31585,526.06,613.47
17.33637,522.53,606.95
17.35487,520.09,611.12
17.37500,520.54,605.87
17.39615,523.22,604.42
17.41621,520.69,601.33
17.43579,521.43,602.12
17.45527,523.94,597.26
17.47582,524.67,597.41
17.49581,520.36,597.47
17.51657,520.17,595.77
17.53720,522.15,595.75
17.55585,520.62,596.67
17.57691,524.47,593.43
17.59827,523.96,589.38
17.61692,521.19,591.07
17.63715,520.51,591.81
17.65825,521.54,586.34
17.67726,518.52,589.76
17.69661,520.16,586.79
17.71644,518.28,587.16
17.73683,519.74,587.61
17.75772,516.49,589.57
17.77747,514.83,589.35
17.79818,518.63,586.21
17.81664,517.05,584.49
17.83659,518.06,587.04
17.85708,518.39,588.94
17.87804,519.01,591.13
17.89734,514.92,587.74
17.91771,517.94,589.50
17.93816,515.03,587.41
17.95692,514.85,589.90
17.97674,515.39,586.85
17.99768,516.16,586.43
18.01716,517.28,582.97
18.03777,514.42,573.57
18.05724,513.20,552.54
18.07653,510.36,529.76
18.09677,503.89,502.47
18.11921,498.82,483.80
18.13893,495.72,461.09
18.15951,488.16,449.35
18.17844,486.51,433.41
18.19928,489.79,427.46
18.21848,491.93,422.06
18.23882,490.06,420.42
18.25889,492.17,421.26
18.27993,495.14,428.10
18.29988,499.36,433.90
18.31881,499.24,445.39
18.33895,505.11,460.47
18.35951,505.78,471.75
18.37967,504.82,483.81
18.39973,507.66,493.41
18.41968,503.41,504.42
18.43916,503.14,513.76
18.45941,507.58,526.37
18.47897,506.23,529.47
18.49878,508.25,538.11
18.51906,507.90,542.71
18.53925,507.10,547.86
18.55916,509.56,553.03
18.58014,507.15,556.78
18.60025,510.03,559.96
18.61905,508.29,561.20
18.63959,509.07,563.99
18.65914,505.59,566.71
18.67952,503.34,567.76
18.69949,505.34,569.10
18.71942,508.34,571.48
18.73898,506.26,576.19
18.75935,508.60,578.38
18.77845,506.87,578.95
18.80045,508.24,574.82
18.81961,509.62,576.62
18.83876,508.15,577.04
18.85836,510.70,578.98
18.87887,507.22,576.60
18.89930,508.80,576.51
18.92000,507.23,577.86
18.93997,507.83,577.13
18.95968,505.97,584.08
18.98042,507.76,615.65
19.00121,510.81,675.46
19.01997,520.07,750.43
19.04041,521.42,799.31
19.05972,520.06,825.45
19.08094,520.13,831.33
19.10071,519.24,821.89
19.12115,516.12,801.05
19.14017,512.46,770.41
19.16002,508.90,740.23
19.18066,505.80,711.59
19.20119,501.71,688.94
19.22025,500.59,666.39
19.24034,499.89,647.32
19.25970,501.02,633.48
19.28021,498.03,621.57
19.30002,497.86,612.80
19.31964,497.72,602.41
19.34038,498.89,595.25
19.35990,499.47,592.09
19.38069,501.48,586.05
19.40167,497.14,579.93
19.42197,496.68,573.26
19.44116,492.71,572.26
19.46127,494.81,570.68
19.48022,498.01,568.88
19.50169,495.75,566.14
19.52063,496.21,568.34
19.54025,494.54,567.33
19.56196,493.97,565.86
19.58256,494.51,565.52
19.60204,494.81,564.87
19.62173,497.18,564.55
19.64221,497.47,567.40
19.66160,498.14,566.42
19.68179,496.20,567.48
19.70112,499.52,568.62
19.72087,497.08,570.57
19.74192,498.72,568.53
19.76208,499.70,566.44
19.78179,499.00,565.90
19.80061,499.65,570.29
19.82188,499.95,569.96
19.84114,501.06,572.53
19.86036,499.16,568.14
19.88195,500.59,566.71
19.90092,497.67,567.94
19.92077,499.33,568.70
19.94078,500.43,568.85
19.96087,500.46,568.12
19.98180,501.18,566.94
20.00126,502.45,570.35
20.02192,501.51,568.85
20.04059,501.28,565.36
20.06122,499.47,567.30
20.08031,501.29,568.14
20.10060,501.96,567.74
20.12230,501.73,568.43
20.14237,502.39,568.35
20.16067,504.93,566.69
20.18124,505.22,567.04
20.20121,504.45,566.61
20.22228,506.65,568.25
20.24039,507.42,565.62
20.26176,510.63,563.30
20.28148,508.70,567.33
20.30011,505.65,565.70
20.32082,506.25,567.23
20.34185,504.52,565.23
20.36140,502.30,564.35
20.38221,504.08,563.28
20.40377,502.05,564.07
20.42339,502.22,565.67
20.44440,501.38,565.12
20.46480,503.55,569.06
20.48350,508.56,567.56
20.50525,509.10,567.29
20.52539,508.74,568.22
20.54706,510.47,568.35
20.56693,511.39,571.23
20.58630,512.16,570.89
20.60880,517.11,569.12
20.62920,518.86,573.92
20.64964,517.98,573.39
20.66824,521.62,574.46
20.69051,521.84,573.41
20.70960,521.42,575.65
20.72985,518.14,574.24
20.75081,519.74,574.03
20.77111,518.94,572.04
20.79114,519.03,573.24
20.81023,520.89,575.26
20.83100,520.08,575.16
20.85069,521.50,575.38
20.86955,522.91,574.06
20.89045,522.54,577.35
20.91069,524.24,575.19
20.93049,522.61,575.62
20.94987,524.18,575.17
20.96950,525.91,573.82
20.99135,522.08,577.16
21.01004,522.45,580.96
21.02978,525.06,573.52
21.05139,527.42,563.64
21.06960,529.84,550.89
21.09071,538.76,539.65
21.11075,541.13,523.92
21.13096,544.99,506.15
21.15127,546.51,487.82
21.16997,536.84,474.97
21.18982,531.95,461.28
21.21001,531.41,450.50
21.23037,524.08,443.02
21.25075,521.60,442.64
21.27178,520.29,440.09
21.29142,515.70,440.02
21.31065,514.84,445.95
21.33071,509.87,454.27
21.35109,508.44,462.77
21.37036,506.29,472.01
21.39166,508.34,485.88
21.41200,507.32,493.74
21.43207,510.40,503.03
21.45284,506.59,510.70
21.47333,506.87,518.61
21.49190,507.38,527.50
21.51165,506.53,535.81
21.53143,506.96,539.04
21.55213,507.76,544.78
21.57178,510.65,550.40
21.59164,510.93,553.77
21.61267,510.59,557.27
21.63312,508.64,560.42
21.65272,509.32,564.89
21.67203,511.16,567.16
21.69294,512.09,567.95
21.71195,512.12,570.05
21.73371,506.92,567.18
21.75268,510.62,570.93
21.77284,509.35,570.37
21.79259,505.50,572.38
21.81380,506.96,573.55
21.83365,508.89,571.58
21.85367,506.53,575.80
21.87340,512.09,594.20
21.89353,516.13,642.45
21.91398,526.11,725.14
21.93343,534.25,801.27
21.95366,543.24,856.59
21.97333,540.05,876.28
21.99389,539.88,872.98
22.01361,535.51,849.34
22.03457,529.47,816.47
22.05482,521.41,780.27
22.07409,518.62,740.03
22.09531,511.87,704.80
22.11553,506.68,669.77
22.13724,502.02,640.10
22.15570,497.64,619.78
22.17613,496.48,597.42
22.19638,498.27,587.80
22.21729,495.61,576.66
22.23597,499.10,570.32
22.25710,497.97,563.27
22.27766,495.99,557.56
22.29755,493.78,554.98
22.31729,493.73,548.13
22.33781,491.48,541.78
22.35773,489.50,540.53
22.37780,490.18,543.80
22.39786,492.26,540.83
22.41659,492.12,540.44
22.43720,490.50,540.93
22.45780,492.02,543.69
22.47724,495.33,544.71
22.49722,494.03,546.89
22.51803,495.01,548.03
22.53664,497.70,549.79
22.55789,500.47,549.28
22.57693,500.84,551.74
22.59654,502.67,553.03
22.61881,501.00,553.16
22.63798,503.72,553.58
22.65859,499.87,555.60
22.67840,502.54,558.90
22.69753,500.45,556.28
22.71884,503.20,558.92
22.73815,501.72,558.67
22.75840,503.54,559.32
22.77846,502.89,556.86
22.79937,507.32,560.76
22.81747,507.00,560.25
22.83720,505.16,557.26
22.85744,503.65,559.55
22.87768,501.32,557.92
22.89820,503.38,561.14
22.91884,501.54,562.26
22.93783,499.92,562.18
22.95769,498.34,560.77
22.97774,500.97,562.07
22.99794,498.95,565.75
23.01856,501.24,565.14
23.03792,503.01,564.64
23.05764,501.14,563.81
23.07833,504.64,564.92
23.09790,503.43,564.76
23.11811,503.72,563.10
23.13839,502.52,564.24
23.15875,500.57,562.61
23.17813,501.72,562.64
23.19920,504.51,562.87
23.21863,504.35,563.53
23.23774,504.43,563.14
23.25919,503.01,565.27
23.27751,504.57,566.66
23.29818,502.61,565.98
23.31823,505.04,564.29
23.33839,501.15,563.28
23.35845,502.79,566.26
23.37731,502.09,564.45
23.39879,502.76,563.30
23.41817,504.46,563.23
23.43875,505.75,561.38
23.45790,506.34,559.25
23.47723,506.45,559.23
23.49759,505.75,558.26
23.51888,509.10,559.46
23.53799,506.88,562.66
23.55806,508.41,562.35
23.57876,507.09,561.81
23.59788,505.02,563.38
23.61786,506.13,563.31
23.63794,504.75,563.72
23.65873,505.56,564.72
23.67769,507.03,563.22
23.69908,505.60,564.40
23.71789,503.41,562.98
23.73894,502.15,565.05
23.75803,505.22,564.68
23.77761,504.32,561.74
23.79767,504.37,564.33
23.81836,502.33,560.85
23.83916,505.47,562.32
23.85758,505.30,558.98
23.87844,506.17,561.25
23.89845,506.51,560.91
23.91887,504.29,559.80
23.93836,507.20,560.40
23.95732,506.92,560.04
23.97714,506.97,559.85
23.99743,504.89,559.99
24.01910,509.11,559.77
24.03871,505.76,559.50
24.05864,506.80,562.96
24.07768,504.08,560.81
24.09788,507.62,561.60
24.11837,506.16,561.16
24.13927,504.68,560.44
24.15881,504.75,563.88
24.17798,505.42,564.78
24.19893,506.27,565.19
24.21753,506.80,562.48
24.23769,507.95,549.24
24.25715,507.71,529.15
24.27882,506.45,506.93
24.29816,504.06,484.83
24.31848,504.32,465.34
24.33853,504.93,454.17
24.35915,501.67,439.36
24.37894,497.90,434.07
24.39746,494.02,429.38
24.41769,495.56,430.14
24.43788,495.36,433.42
24.45759,496.55,440.44
24.47806,498.60,450.61
24.49756,500.34,460.14
24.51748,501.32,471.77
24.53795,499.89,481.59
24.55923,503.04,489.69
24.57869,502.95,501.62
24.59758,505.59,507.70
24.61815,504.77,513.58
24.63867,502.51,520.49
24.65764,506.00,527.68
24.67929,506.72,531.26
24.69828,511.01,534.47
24.71917,510.72,538.13
24.73917,511.13,544.25
24.75818,510.61,545.17
24.77834,512.10,547.22
24.79741,509.90,551.06
24.81811,511.00,550.88
24.83838,508.80,555.78
24.85904,512.37,556.99
24.87775,509.15,558.39
24.89811,508.36,558.82
24.91739,512.50,557.22
24.93888,509.53,559.70
24.95795,512.66,559.15
24.97860,513.66,560.42
24.99799,511.26,561.58
25.01866,510.94,562.75
25.03895,511.96,560.52
25.05778,509.98,561.86
25.07750,511.73,562.12
25.09927,511.81,562.82
25.11754,514.36,561.79
25.13800,513.97,560.88
25.15778,510.40,561.45
25.17755,511.50,563.51
25.19860,507.95,563.31
25.21897,511.83,565.14
25.23825,509.09,562.61
25.25882,513.11,563.80
25.27817,515.45,573.54
25.29783,516.61,596.81
25.31874,520.62,634.53
25.33907,518.94,672.02
25.35772,520.79,701.80
25.37721,523.15,726.42
25.39910,528.76,737.46
25.41765,530.49,744.26
25.43879,531.87,734.50
25.45826,527.85,721.34
25.47874,525.55,700.04
25.49887,526.00,681.15
25.51780,522.89,665.86
25.53962,525.81,652.20
25.55924,525.72,638.26
25.58001,523.78,623.99
25.59949,523.82,615.74
25.61952,519.81,607.63
25.63987,521.47,602.77
25.65874,521.14,594.95
25.67908,522.23,589.07
25.69922,521.01,586.09
25.71900,522.13,580.80
25.73926,525.72,577.76
25.75991,524.79,577.52
25.77970,522.98,575.27
25.79858,522.73,571.47
25.81954,520.31,571.70
25.83837,521.67,569.54
25.85923,520.27,565.20
25.87907,518.30,563.25
25.89897,518.30,560.70
25.91881,519.08,560.63
25.93845,521.19,563.14
25.96022,524.61,560.53
25.97943,523.35,561.56
25.99897,521.00,562.09
26.01958,521.94,560.05
26.03922,520.34,560.82
26.05982,519.91,562.81
26.07847,522.43,560.52
26.09969,522.47,562.92
26.11915,518.96,562.33
26.13834,517.59,562.19
26.15859,518.56,566.09
26.17825,520.58,563.55
26.19876,523.03,566.62
26.21894,522.60,567.47
26.23868,522.90,565.85
26.25958,522.34,563.54
26.27848,523.36,563.98
26.30011,523.85,565.71
26.32014,522.05,566.89
26.33908,521.01,564.33
26.36015,518.84,562.75
26.37964,518.64,561.99
26.39999,517.46,566.10
26.42092,520.85,563.89
26.43917,519.31,563.51
26.45955,520.10,566.14
26.47965,521.22,567.72
26.49951,520.35,567.94
26.52012,518.64,568.82
26.54037,518.35,567.34
26.56121,517.86,569.29
26.57989,519.53,568.70
26.59975,519.14,567.73
26.61932,520.98,568.06
26.63962,520.73,569.04
26.65961,523.19,567.15
26.68064,521.97,568.95
26.70076,520.91,569.46
26.72172,522.55,569.56
26.74017,524.31,569.16
26.76085,524.79,568.90
26.78138,523.17,569.46
26.80205,524.95,570.90
26.82219,521.80,570.60
26.84213,521.54,570.43
26.86109,516.83,569.93
26.88220,517.52,568.05
26.90221,520.58,570.68
26.92110,520.08,570.77
26.94182,519.15,568.68
26.96150,517.28,566.13
26.98033,519.00,569.41
27.00033,516.82,567.37
27.02193,516.27,567.52
27.04285,515.60,569.83
27.06282,519.56,569.33
27.08186,517.88,567.47
27.10145,516.83,566.96
27.12296,520.39,565.48
27.14280,520.62,564.17
27.16294,518.48,565.35
27.18253,519.45,566.38
27.20366,519.72,564.69
27.22388,516.90,567.03
27.24217,517.55,567.08
27.26212,517.62,564.71
27.28263,516.35,564.16
27.30273,516.31,564.74
27.32222,513.72,566.50
27.34397,512.77,565.25
27.36233,514.66,565.75
27.38272,511.95,566.88
27.40332,512.42,566.93
27.42385,513.35,564.80
27.44268,512.57,565.71
27.46298,513.25,564.74
27.48294,511.04,563.65
27.50374,510.63,566.03
27.52403,509.72,565.82
27.54359,512.23,565.01
27.56247,511.78,564.97
27.58413,509.01,564.77
27.60268,508.22,566.35
27.62281,509.58,567.11
27.64394,507.93,565.53
27.66213,512.23,568.71
27.68244,510.03,568.84
27.70374,511.30,569.59
27.72408,509.66,567.54
27.74358,509.36,566.00
27.76258,507.83,566.96
27.78277,509.29,563.81
27.80308,508.99,563.90
27.82334,510.52,564.92
27.84244,509.02,563.39
27.86365,509.61,564.07
27.88418,510.49,562.69
27.90282,508.89,560.91
27.92311,507.72,561.58
27.94275,509.83,562.26
27.96358,511.75,562.75
27.98250,509.82,560.75
28.00317,508.48,561.81
28.02361,507.24,567.11
28.04305,504.56,565.19
28.06285,506.66,566.23
28.08403,502.89,558.89
28.10303,496.67,549.25
28.12224,489.37,536.70
28.14246,482.09,514.73
28.16244,473.83,495.33
28.18320,473.23,469.83
28.20311,470.05,452.82
28.22231,472.99,433.81
28.24328,474.93,419.53
28.26311,478.53,414.39
28.28341,481.67,412.20
28.30311,486.48,409.48
28.32287,489.92,417.26
28.34310,494.41,424.50
28.36271,496.23,432.86
28.38223,500.34,442.69
28.40289,502.70,456.76
28.42356,506.15,466.48
28.44321,502.77,479.03
28.46351,503.88,489.52
28.48355,507.95,500.82
28.50275,508.40,506.74
28.52281,506.75,517.38
28.54299,506.39,523.06
28.56266,508.84,529.49
28.58282,507.51,535.63
28.60231,506.57,539.50
28.62319,505.16,545.38
28.64332,503.34,547.46
28.66213,506.30,547.86
28.68246,504.65,548.28
28.70254,505.98,550.40
28.72366,506.66,552.99
28.74393,505.86,552.97
28.76274,507.63,554.74
28.78327,505.01,556.05
28.80278,505.92,555.53
28.82352,502.27,557.37
28.84345,503.68,556.10
28.86327,502.66,556.80
28.88315,501.99,558.30
28.90362,503.73,557.10
28.92359,500.61,559.44
28.94373,501.08,558.62
28.96337,503.20,558.75
28.98373,505.02,560.42
29.00305,506.18,561.47
29.02403,502.28,562.26
29.04206,506.18,562.77
29.06249,504.64,571.30
29.08331,501.17,594.43
29.10320,502.97,630.80
29.12223,501.41,668.54
29.14307,505.25,709.40
29.16330,508.54,740.59
29.18400,511.01,759.08
29.20283,518.89,765.56
29.22287,518.39,756.90
29.24314,517.22,736.74
29.26343,516.62,718.69
29.28232,514.46,698.25
29.30250,515.56,679.18
29.32326,512.42,661.64
29.34311,510.90,643.75
29.36342,512.17,632.74
29.38238,509.25,623.07
29.40221,509.45,612.61
29.42405,509.23,601.56
29.44266,509.79,597.21
29.46254,511.56,589.65
29.48384,506.06,583.15
29.50352,507.07,581.87
29.52397,505.43,575.28
29.54294,506.32,574.69
29.56400,504.00,571.22
29.58355,503.88,571.00
29.60249,503.44,566.72
29.62313,503.84,567.82
29.64264,502.18,564.55
29.66407,501.80,561.94
29.68395,500.41,562.38
29.70324,500.77,563.71
29.72211,498.45,559.76
29.74287,498.72,559.59
29.76252,499.89,561.08
29.78336,499.76,562.40
29.80362,503.60,561.96
29.82331,499.21,561.19
29.84352,499.61,558.70
29.86279,500.45,560.27
29.88342,500.69,560.77
29.90333,500.67,559.92
29.92327,501.78,558.35
29.94386,499.78,557.02
29.96258,497.68,557.08
29.98313,499.71,557.67
30.00258,502.35,559.27
30.02340,499.72,559.91
30.04260,499.91,561.17
30.06384,497.83,561.65
30.08399,498.92,559.13
30.10377,499.52,561.34
30.12373,498.15,561.77
30.14284,498.62,561.79
30.16375,498.24,563.07
30.18387,495.94,562.04
30.20301,499.65,560.94
30.22261,500.22,559.01
30.24263,496.43,557.89
30.26373,497.90,555.63
30.28297,496.89,555.99
30.30368,498.75,557.03
30.32373,496.63,555.02
30.34404,495.89,555.12
30.36361,495.92,554.50
30.38392,498.49,556.71
30.40284,499.15,554.91
30.42234,498.01,556.55
30.44244,497.79,556.58
30.46344,497.98,553.11
30.48311,495.04,554.31
30.50329,498.75,554.17
30.52379,497.96,552.49
30.54321,497.95,554.52
30.56232,498.03,552.48
30.58376,496.59,554.76
30.60322,499.90,554.52
30.62359,498.20,556.33
30.64357,497.69,556.19
30.66265,497.58,557.53
30.68257,500.39,554.90
30.70265,500.89,556.76
30.72280,500.94,556.36
30.74381,497.96,554.35
30.76276,496.82,552.86
30.78405,497.59,553.60
30.80277,499.63,554.23
30.82302,500.80,553.50
30.84238,499.98,556.64
30.86197,501.42,553.54
30.88374,498.20,554.21
30.90419,497.07,556.00
30.92328,499.28,553.37
30.94371,499.24,553.31
30.96263,500.33,555.08
30.98289,499.68,555.54
31.00249,500.19,555.65
31.02374,502.07,553.26
31.04296,501.19,553.13
31.06379,501.51,552.93
31.08364,498.72,553.60
31.10229,497.38,552.31
31.12225,500.56,555.76
31.14235,501.81,553.44
31.16329,500.05,553.01
31.18313,498.26,553.09
31.20339,501.63,554.45
31.22223,498.97,553.98
31.24275,497.83,555.41
31.26400,497.27,554.48
31.28232,495.47,554.87
31.30382,494.58,555.86
31.32340,496.94,554.75
31.34207,495.33,554.01
31.36352,495.44,557.06
31.38350,495.09,556.49
31.40354,496.02,556.15
31.42235,495.93,554.78
31.44284,495.66,557.36
31.46227,497.12,554.38
31.48339,497.90,554.84
31.50348,495.98,556.39
31.52396,496.05,553.81
31.54288,496.39,556.28
31.56244,496.19,553.42
31.58407,495.59,553.83
31.60223,497.37,553.83
31.62382,497.17,555.23
31.64334,497.37,556.93
31.66390,498.07,557.23
31.68255,502.44,559.48
31.70211,500.17,560.23
31.72241,503.22,561.66
31.74263,500.60,562.43
31.76242,503.76,553.84
31.78329,501.71,538.71
31.80340,503.67,519.09
31.82280,501.64,494.14
31.84242,503.52,476.88
31.86372,502.20,457.10
31.88334,500.49,445.46
31.90313,499.69,433.35
31.92233,496.98,429.78
31.94331,496.58,424.69
31.96238,493.43,422.31
31.98402,493.31,425.07
32.00327,491.11,431.74
32.02191,493.27,435.49
32.04305,490.87,442.92
32.06288,491.57,453.16
32.08250,493.75,463.53
32.10327,489.95,471.88
32.12247,491.59,481.79
32.14369,493.58,492.00
32.16362,493.71,499.20
32.18358,492.35,509.01
32.20216,492.00,514.79
32.22364,492.55,520.31
32.24343,495.81,527.46
32.26344,494.95,530.61
32.28370,493.82,533.20
32.30268,494.99,537.86
32.32257,498.13,540.67
32.34351,496.44,541.59
32.36367,497.28,545.83
32.38304,498.57,543.61
32.40229,502.09,548.04
32.42372,500.13,550.50
32.44249,501.02,549.48
32.46350,503.13,555.40
32.48318,501.08,556.04
32.50395,498.63,560.76
32.52400,499.75,565.22
32.54345,501.02,567.50
32.56381,499.59,568.32
32.58373,502.23,566.52
32.60346,498.91,563.42
32.62401,499.63,563.22
32.64226,501.32,561.31
32.66296,499.19,563.06
32.68380,500.88,569.33
32.70359,503.35,590.10
32.72274,503.15,617.04
32.74230,504.47,651.30
32.76273,505.16,672.84
32.78371,506.47,686.34
32.80359,511.22,691.40
32.82382,511.07,689.71
32.84238,508.22,681.13
32.86327,507.02,670.50
32.88307,506.30,656.73
32.90400,506.76,641.05
32.92241,503.77,631.70
32.94318,503.96,619.68
32.96369,506.70,611.96
32.98291,504.88,605.56
33.00267,506.55,614.69
33.02281,507.68,621.29
33.04391,507.30,617.93
33.06396,506.12,616.88
33.08270,505.42,613.17
33.10301,509.13,604.55
33.12261,507.93,599.74
33.14292,506.56,594.68
33.16293,504.86,592.97
33.18238,507.51,586.04
33.20390,505.06,583.67
33.22312,508.04,574.76
33.24276,506.22,574.44
33.26286,504.40,569.55
33.28212,505.32,568.55
33.30252,508.37,564.91
33.32235,508.60,564.20
33.34236,506.39,564.00
33.36185,506.77,563.87
33.38230,507.89,563.38
33.40236,509.50,561.28
33.42242,508.70,559.58
33.44369,510.65,561.73
33.46240,510.11,562.07
33.48377,511.47,560.93
33.50293,509.50,559.53
33.52311,512.22,560.69
33.54349,511.60,561.17
33.56272,509.79,559.77
33.58386,508.94,561.91
33.60329,508.61,563.79
33.62256,509.49,561.12
33.64213,509.82,563.17
33.66335,509.48,559.61
33.68429,508.84,562.09
33.70397,510.47,561.78
33.72336,510.17,564.86
33.74407,513.72,564.76
33.76508,515.07,562.48
33.78349,515.35,564.86
33.80337,512.08,566.10
33.82460,513.77,564.81
33.84330,510.88,564.30
33.86358,510.72,566.30
33.88505,511.51,563.01
33.90507,510.56,564.47
33.92388,514.41,566.41
33.94361,513.62,567.34
33.96355,510.86,566.67
33.98411,510.53,566.82
34.00362,510.64,563.56
34.02362,510.36,565.84
34.04343,510.04,563.77
34.06427,511.80,567.41
34.08497,514.45,564.65
34.10323,515.32,565.50
34.12362,513.42,565.57
34.14337,514.65,565.00
34.16491,515.31,566.23
34.18481,512.95,563.17
34.20371,514.87,563.24
34.22478,514.57,564.48
34.24308,513.68,563.49
34.26415,513.08,565.78
34.28458,516.20,563.89
34.30336,514.33,565.03
34.32441,516.02,564.68
34.34385,517.15,565.03
34.36414,518.95,566.33
34.38358,519.22,564.22
34.40398,517.61,563.21
34.42343,515.70,564.85
34.44435,518.77,563.44
34.46312,518.97,561.98
34.48403,518.37,563.26
34.50377,516.70,564.77
34.52462,520.29,563.83
34.54341,519.88,565.28
34.56428,517.51,565.41
34.58363,518.57,563.71
34.60464,517.08,566.66
34.62389,519.96,567.26
34.64394,519.30,568.15
34.66577,518.36,564.09
34.68436,518.55,565.52
34.70433,520.94,565.31
34.72548,518.00,567.52
34.74452,518.10,565.27
34.76463,519.09,566.41
34.78459,519.76,564.98
34.80453,523.07,564.31
34.82906,523.50,564.11
34.84540,521.51,565.82
34.86463,522.66,568.11
34.88473,521.56,565.97
34.90466,521.63,565.31
34.92484,522.65,566.63
34.94572,521.77,567.54
34.96454,521.25,565.67
34.98425,521.86,565.49
35.00560,522.39,566.77
35.02436,523.52,567.53
35.04407,521.97,563.81
35.06510,523.57,566.79
35.08413,525.21,566.48
35.10402,524.60,567.44
35.12535,525.87,568.48
35.14496,522.96,567.85
35.16455,524.11,569.26
35.18546,524.22,571.63
35.20480,526.49,569.37
35.22508,523.56,568.42
35.24583,523.09,569.47
35.26498,523.97,569.56
35.28453,522.89,570.80
35.30557,520.81,554.18
35.32557,519.85,533.32
35.34500,517.46,507.93
35.36510,512.58,485.43
35.38493,514.30,468.90
35.40512,510.00,461.85
35.42496,513.71,457.03
35.44527,513.76,460.62
35.46488,513.51,464.89
35.48561,513.16,474.92
35.50533,511.95,478.30
35.52477,514.60,483.74
35.54546,510.98,480.95
35.56558,511.49,480.42
35.58435,513.62,479.07
35.60581,513.19,480.79
35.62440,515.84,482.30
35.64573,515.61,485.02
35.66518,516.96,488.18
35.68458,516.98,493.48
35.70520,517.34,499.63
35.72462,517.90,505.54
35.74565,520.15,509.49
35.76492,517.87,515.68
35.78427,519.06,519.28
35.80581,519.81,524.85
35.82535,522.55,529.10
35.84570,522.91,532.45
35.86418,519.73,539.39
35.88575,521.53,542.98
35.90515,522.36,543.13
35.92450,524.47,545.79
35.94556,522.74,551.10
35.96514,521.83,552.90
35.98418,524.08,553.78
36.00438,523.64,558.75
36.02523,521.50,556.90
36.04573,521.23,559.71
36.06476,520.50,564.03
36.08431,520.77,562.54
36.10407,522.51,562.24
36.12406,523.30,562.70
36.14549,521.98,565.50
36.16471,520.15,565.36
36.18430,521.97,566.64
36.20566,522.16,568.14
36.22589,523.05,572.79
36.24496,525.43,594.12
36.26529,525.02,625.94
36.28546,526.25,658.68
36.30579,528.44,698.52
36.32408,533.14,728.25
36.34416,533.59,750.34
36.36451,536.91,767.66
36.38491,537.67,773.55
36.40589,541.95,766.38
36.42407,540.05,752.33
36.44460,539.65,737.16
36.46571,535.98,713.33
36.48477,534.21,695.41
36.50480,533.74,674.03
36.52437,532.66,657.02
36.54502,532.83,643.56
36.56486,530.70,631.82
36.58579,530.40,617.83
36.60378,527.09,608.48
36.62452,525.87,602.73
36.64404,526.25,594.57
36.66402,527.87,587.58
36.68572,527.41,581.58
36.70584,526.25,578.09
36.72469,524.88,577.05
36.74420,526.23,572.44
36.76568,526.90,567.20
36.78650,524.73,566.60
36.80551,522.61,564.44
36.82688,521.29,562.35
36.84500,521.50,562.00
36.86642,522.40,563.05
36.88694,519.94,565.56
36.90509,524.17,565.39
36.92503,524.00,563.23
36.94574,520.60,565.30
36.96509,520.83,565.21
36.98628,519.11,564.08
37.00656,519.39,566.33
37.02513,523.67,565.29
37.04697,521.23,565.96
37.06697,519.48,566.77
37.08657,521.79,564.97
37.10555,522.36,564.37
37.12614,520.78,561.26
37.14685,522.09,563.33
37.16566,520.78,563.55
37.18656,523.24,563.07
37.20546,524.02,565.84
37.22489,521.96,565.82
37.24611,519.76,563.79
37.26520,519.49,564.18
37.28630,522.72,565.60
37.30582,519.51,561.80
37.32641,519.12,560.92
37.34574,520.97,562.31
37.36659,517.88,560.69
37.38634,520.12,561.44
37.40625,518.52,564.33
37.42499,516.99,564.40
37.44604,517.28,562.75
37.46642,520.03,563.46
37.48556,519.52,562.31
37.50645,521.82,565.69
37.52511,519.32,565.51
37.54576,520.63,563.73
37.56521,521.72,562.07
37.58596,520.17,562.03
37.60557,519.60,564.57
37.62697,516.05,563.52
37.64585,519.48,564.39
37.66535,515.78,564.44
37.68552,514.97,563.15
37.70672,513.56,564.20
37.72680,515.38,566.02
37.74522,514.42,563.96
37.76581,513.70,565.62
37.78722,514.08,564.00
37.80601,513.48,565.03
37.82785,513.69,566.70
37.84743,516.83,563.84
37.86639,515.83,565.10
37.88801,514.53,563.82
37.90600,511.73,565.03
37.92872,512.95,565.01
37.94787,512.66,565.02
37.96767,511.98,565.55
37.98793,509.76,563.28
38.00691,510.08,565.13
38.02881,511.20,564.24
38.04750,510.92,565.10
38.06760,506.70,565.10
38.08743,509.83,565.47
38.10713,508.82,564.24
38.12737,507.74,564.87
38.14788,508.81,563.72
38.16844,505.29,559.68
38.18709,506.98,561.87
38.20801,507.34,561.57
38.22799,506.14,561.78
38.24707,509.39,561.16
38.26756,507.09,561.14
38.28749,509.34,564.49
38.30705,505.85,562.11
38.32853,507.79,564.19
38.34961,507.00,561.74
38.36960,503.90,562.47
38.38933,504.04,563.86
38.40893,504.92,563.50
38.42837,502.32,561.46
38.44841,503.12,562.98
38.46866,500.69,560.37
38.48823,501.81,562.08
38.50945,500.34,562.98
38.52987,498.52,560.36
38.54869,502.35,560.79
38.56938,499.94,562.23
38.58872,503.01,561.31
38.60982,500.48,561.97
38.62888,503.02,564.86
38.64845,504.95,564.03
38.66977,502.74,563.28
38.68831,502.81,564.54
38.70851,504.23,564.39
38.72972,506.07,563.53
38.74816,505.43,565.82
38.76853,506.46,568.01
38.78907,502.80,561.89
38.80865,504.17,549.99
38.82852,500.77,536.45
38.85061,494.36,520.33
38.86853,489.01,502.15
38.88870,481.08,491.43
38.90915,478.23,477.89
38.92860,475.90,469.38
38.94880,473.87,461.98
38.96971,473.16,454.71
38.98920,472.31,452.28
39.00807,470.98,452.00
39.02928,474.65,452.35
39.04840,478.33,455.70
39.06831,479.64,455.03
39.08800,480.79,457.69
39.10835,482.00,461.74
39.12910,483.04,462.24
39.14862,487.57,467.33
39.16834,489.17,473.82
39.18968,491.29,476.68
39.20958,494.09,482.70
39.22937,494.31,488.93
39.24973,496.39,497.06
39.26950,495.73,501.63
39.28927,496.28,511.24
39.30814,497.92,516.45
39.32900,497.06,523.66
39.34962,500.04,527.66
39.36953,497.32,532.20
39.38863,498.27,534.04
39.40921,499.78,540.49
39.42840,498.84,541.46
39.44795,499.14,546.33
39.46914,496.25,545.01
39.48814,500.01,547.25
39.50936,499.41,548.02
39.52907,497.16,551.89
39.54958,498.61,554.48
39.56867,498.07,553.13
39.58848,497.32,555.23
39.60837,497.89,555.76
39.62926,499.64,557.84
39.64814,499.61,555.91
39.66926,497.04,557.95
39.68941,500.63,557.51
39.70822,497.74,559.69
39.72956,500.00,557.43
39.74843,499.62,558.93
39.76878,495.66,556.69
39.78852,497.98,556.99
39.80834,494.06,559.26
39.82901,497.25,568.60
39.84967,498.33,586.92
39.86854,501.00,609.69
39.88944,503.55,641.95
39.90971,505.03,675.16
39.92944,506.82,703.74
39.94917,511.19,728.52
39.96917,515.80,741.78
39.98948,519.87,746.10
40.00839,522.44,744.53
40.02926,522.76,734.05
40.04839,520.71,717.28
40.06882,519.68,696.88
40.08814,517.61,680.40
40.10868,517.23,661.92
40.12902,512.51,644.60
40.14908,514.32,633.97
40.16923,511.63,621.01
40.18853,512.40,607.96
40.20952,507.44,600.72
40.22995,506.54,590.69
40.24831,504.89,586.66
40.26793,504.41,577.35
40.28842,505.88,571.21
40.30890,507.97,565.91
40.32952,506.68,558.95
40.34908,507.15,559.12
40.36794,507.56,553.75
40.38941,505.46,555.38
40.40821,504.61,553.89
40.42972,503.48,554.79
40.44812,504.75,553.94
40.46923,501.93,552.69
40.48878,502.10,552.35
40.50953,502.37,554.02
40.52875,500.16,552.59
40.54941,499.50,554.39
40.56828,500.58,553.72
40.58962,499.79,556.31
40.60932,501.48,557.07
40.62841,499.87,557.10
40.64998,500.29,554.80
40.66847,502.13,556.54
40.68840,499.37,557.66
40.70894,503.59,556.18
40.72860,502.70,553.24
40.74958,502.88,555.45
40.76966,499.91,555.50
40.78952,500.37,554.51
40.80808,499.79,556.05
40.82858,501.02,555.73
40.84879,500.59,555.49
40.86782,501.38,557.57
40.88948,503.58,554.68
40.90826,502.78,555.76
40.92875,499.99,553.88
40.94887,501.45,557.01
40.96942,502.97,557.90
40.98947,500.76,559.35
41.00834,503.11,561.44
41.02850,503.18,558.66
41.04963,503.10,558.33
41.06907,501.11,562.79
41.08905,500.99,559.98
41.10933,502.99,559.24
41.12809,501.36,560.73
41.14977,501.11,561.94
41.16878,501.09,562.83
41.18808,503.25,561.29
41.20780,500.90,561.63
41.22857,501.47,562.07
41.24820,503.26,561.30
41.26905,504.27,561.17
41.28986,502.31,560.05
41.30900,501.95,562.32
41.32878,501.55,562.78
41.34864,501.25,559.82
41.36847,501.52,561.02
41.38880,504.57,563.17
41.40842,505.24,563.40
41.42990,504.38,563.34
41.44864,503.79,561.57
41.46842,502.29,563.67
41.48960,508.07,564.30
41.50896,507.47,562.40
41.52949,506.98,562.86
41.54968,502.60,559.60
41.56921,503.78,559.72
41.58878,503.71,561.50
41.60947,505.37,559.72
41.62932,505.49,558.20
41.64905,502.45,558.34
41.66797,506.24,560.95
41.68898,503.60,558.10
41.70919,505.23,557.16
41.72783,506.48,558.79
41.74853,504.21,555.59
41.76831,505.38,556.66
41.78872,504.28,555.83
41.80948,506.05,554.84
41.82927,501.95,553.79
41.84860,502.08,557.11
41.86853,502.85,556.14
41.88814,501.71,558.60
41.90795,505.00,557.24
41.92868,506.66,556.14
41.94951,507.74,554.62
41.96885,505.38,555.48
41.98990,505.18,559.68
42.00830,506.66,557.86
42.02843,505.08,558.34
42.04914,505.27,559.89
42.06985,503.36,558.73
42.08954,502.82,560.03
42.10852,503.65,558.82
42.12813,506.41,561.81
42.14929,508.02,562.65
42.16914,507.55,561.93
42.18909,505.60,559.72
42.20817,508.44,562.16
42.22938,507.60,559.12
42.24873,509.00,561.97
42.26969,510.48,558.65
42.28922,508.50,559.90
42.30908,509.20,559.66
42.32795,508.78,561.98
42.34821,508.99,562.33
42.36902,504.94,561.78
42.38927,505.26,559.70
42.40860,506.25,560.22
42.42998,508.10,562.58
42.44946,510.59,562.10
42.47017,508.50,563.22
42.48920,510.33,564.93
42.50921,513.28,563.04
42.53027,511.73,561.55
42.54903,513.14,561.43
42.56893,509.92,561.90
42.59072,511.82,562.83
42.61002,510.16,563.44
42.63056,510.37,562.62
42.64982,508.43,563.02
42.66964,507.42,561.79
42.68999,508.34,550.80
42.71017,503.79,534.66
42.72968,499.29,515.56
42.74981,496.41,493.59
42.77042,495.06,471.68
42.78904,492.44,455.11
42.81052,489.66,439.47
42.82953,490.91,432.39
42.85040,487.61,427.98
42.87038,488.55,423.66
42.88992,490.80,429.93
42.90978,493.58,434.28
42.92908,497.59,439.03
42.95060,502.30,446.87
42.97059,503.97,457.43
42.98922,508.67,467.35
43.00890,508.85,477.91
43.02952,509.48,485.79
43.04894,510.96,494.99
43.06968,511.68,505.35
43.08924,511.78,509.72
43.11001,508.07,515.49
43.13018,506.68,518.00
43.14896,509.56,524.87
43.17028,507.82,531.27
43.18928,509.75,531.70
43.20896,509.05,536.74
43.23014,512.02,539.83
43.25074,511.65,543.69
43.27076,513.29,547.29
43.29173,516.02,550.76
43.31054,515.83,553.13
43.33073,516.61,555.46
43.35105,516.20,559.65
43.37057,517.60,562.14
43.39047,516.06,563.53
43.41137,514.13,565.84
43.43139,515.81,567.25
43.45166,517.97,584.16
43.47148,522.00,618.70
43.49143,521.75,653.24
43.50980,527.97,687.21
43.53174,529.90,713.73
43.55003,536.64,738.59
43.57032,541.65,747.00
43.59037,541.69,746.85
43.61127,543.61,739.12
43.63102,543.91,722.86
43.65077,541.71,701.82
43.67060,543.22,686.13
43.69189,539.14,665.46
43.70987,537.79,649.15
43.73107,536.29,634.73
43.75061,533.68,622.24
43.77095,534.74,615.78
43.79128,533.68,604.89
43.81164,531.35,598.98
43.83169,530.89,591.69
43.85170,530.16,587.27
43.87131,527.21,579.81
43.89099,526.03,576.58
43.91047,526.83,573.37
43.93081,525.76,574.64
43.95176,526.77,571.25
43.97188,529.78,569.86
43.99014,530.53,571.13
44.01137,527.55,571.03
44.03055,525.56,568.08
44.05149,523.60,568.59
44.07031,525.20,569.57
44.09160,522.85,565.83
44.11004,524.44,567.77
44.13104,522.23,566.82
44.15089,523.68,569.08
44.17076,523.65,569.25
44.19003,521.23,567.31
44.20969,524.15,567.96
44.22986,524.68,566.75
44.25189,525.87,567.92
44.26995,522.79,569.31
44.29005,522.57,568.88
44.31031,524.90,568.23
44.32976,521.35,566.61
44.35148,523.67,569.41
44.37073,522.95,568.32
44.39067,522.56,567.35
44.41130,523.32,565.95
44.42994,525.32,567.39
44.45135,522.75,569.54
44.47067,523.88,568.18
44.49056,523.16,567.03
44.50982,522.92,568.12
44.53037,523.72,569.91
44.55097,526.56,568.70
44.57049,522.81,569.77
44.59143,526.52,566.76
44.61119,524.40,569.25
44.63109,524.20,566.78
44.64991,525.76,570.79
44.67085,524.53,569.11
44.69092,523.35,567.64
44.71112,525.44,567.45
44.73075,524.72,570.10
44.75226,523.64,568.04
44.77121,523.15,566.03
44.79126,521.86,567.99
44.81062,524.72,566.71
44.83240,523.75,567.09
44.85207,524.47,568.02
44.87197,523.68,565.57
44.89103,524.47,567.30
44.91132,523.58,568.63
44.93193,523.02,569.20
44.95101,522.06,567.43
44.97281,524.40,568.61
44.99257,521.78,566.84
45.01122,521.41,570.30
45.03224,520.41,567.98
45.05286,520.31,567.01
45.07336,523.07,568.11
45.09324,520.12,567.54
45.11231,518.66,569.05
45.13182,521.46,568.51
45.15191,520.72,567.86
45.17280,520.86,567.32
45.19247,518.31,569.15
45.21346,516.91,569.03
45.23225,519.74,568.37
45.25267,517.84,570.78
45.27356,519.70,567.43
45.29323,520.17,570.02
45.31304,520.97,570.21
45.33282,520.44,568.80
45.35340,520.35,570.10
45.37194,521.47,571.44
45.39372,518.74,569.66
45.41291,521.99,568.27
45.43201,522.51,568.25
45.45235,521.79,569.48
45.47321,522.23,569.03
45.49228,524.44,569.93
45.51195,519.74,567.56
45.53267,520.23,570.35
45.55196,518.62,567.42
45.57219,520.10,568.87
45.59228,521.32,567.56
45.61328,518.97,570.01
45.63190,519.70,566.06
45.65240,517.53,569.73
45.67229,519.19,567.20
45.69356,519.47,568.10
45.71245,518.63,565.46
45.73329,517.15,566.94
45.75311,520.02,565.72
45.77268,519.43,564.98
45.79228,518.06,567.36
45.81297,519.76,565.29
45.83321,520.17,564.43
45.85251,519.92,567.82
45.87194,517.21,564.91
45.89313,519.54,565.64
45.91297,516.10,564.82
45.93298,520.88,564.35
45.95344,519.28,568.01
45.97191,518.40,568.32
45.99283,519.60,565.81
46.01335,519.33,566.80
46.03174,515.74,567.35
46.05294,516.79,569.06
46.07332,518.21,570.79
46.09296,519.19,568.67
46.11341,517.89,569.83
46.13355,519.08,567.80
46.15205,520.26,566.59
46.17365,520.73,568.27
46.19267,520.70,567.06
46.21260,519.04,563.18
46.23302,518.75,562.77
46.25214,519.45,564.19
46.27166,518.24,562.53
46.29280,518.92,563.79
46.31255,518.67,565.31
46.33189,518.45,565.24
46.35226,521.06,564.70
46.37371,518.10,564.98
46.39353,519.65,566.00
46.41268,520.19,566.84
46.43360,520.25,566.90
46.45370,517.74,568.05
46.47226,517.41,568.58
46.49327,514.80,566.09
46.51238,515.60,568.03
46.53319,511.80,567.32
46.55220,513.64,566.55
46.57172,513.08,565.65
46.59334,513.44,567.79
46.61358,513.61,567.51
46.63216,515.89,564.57
46.65331,514.25,564.15
46.67253,516.27,562.79
46.69192,514.06,564.52
46.71360,516.30,563.96
46.73281,515.91,565.63
46.75194,517.30,566.16
46.77199,518.09,569.07
46.79276,515.92,566.87
46.81207,517.66,563.32
46.83333,514.63,553.57
46.85320,513.37,541.35
46.87198,509.92,524.08
46.89232,507.33,509.65
46.91215,506.65,493.81
46.93279,505.24,480.82
46.95223,501.70,470.25
46.97288,501.33,460.95
46.99367,498.89,455.69
47.01194,499.10,450.94
47.03352,498.84,446.55
47.05353,497.77,447.81
47.07286,497.15,450.69
47.09410,497.99,451.05
47.11396,499.28,457.38
47.13439,501.28,463.75
47.15399,498.37,467.25
47.17513,499.68,475.54
47.19460,500.38,484.51
47.21473,498.67,493.23
47.23379,500.47,500.12
47.25387,502.39,508.12
47.27643,500.80,511.64
47.29504,498.38,518.89
47.31654,497.34,523.90
47.33584,497.75,530.61
47.35480,497.36,533.22
47.37510,501.10,537.46
47.39529,502.17,539.42
47.41518,503.27,544.04
47.43562,503.36,544.14
47.45600,503.73,549.21
47.47615,501.12,554.73
47.49631,504.35,565.63
47.51582,506.61,594.44
47.53501,507.82,633.00
47.55506,511.71,671.02
47.57501,515.45,711.30
47.59488,519.15,740.28
47.61668,521.54,755.75
47.63598,519.75,757.98
47.65662,521.32,757.51
47.67553,520.31,743.92
47.69522,516.10,727.80
47.71613,517.80,705.74
47.73520,513.43,683.51
47.75617,511.90,662.73
47.77462,511.41,641.59
47.79715,505.52,625.58
47.81565,504.42,612.18
47.83714,503.08,600.93
47.85689,501.92,589.61
47.87658,503.61,579.95
47.89744,502.69,574.98
47.91694,501.28,569.72
47.93744,502.20,564.40
47.95730,503.34,560.75
47.97727,500.44,557.83
47.99632,499.91,558.99
48.01588,501.72,554.82
48.03573,504.93,556.07
48.05666,502.87,555.35
48.07700,505.71,553.51
48.09786,501.00,556.53
48.11844,504.37,553.90
48.13824,503.43,554.83
48.15721,503.95,558.29
48.17687,501.38,554.21
48.19855,503.21,553.64
48.21867,503.78,556.82
48.23873,503.13,556.91
48.25831,502.87,554.06
48.27840,503.75,557.46
48.29664,504.74,554.52
48.31743,504.96,556.64
48.33793,502.17,555.19
48.35805,503.91,557.32
48.37792,505.17,557.18
48.39773,505.60,557.01
48.41702,504.51,556.86
48.43756,502.93,557.28
48.45737,504.49,559.37
48.47662,505.94,560.45
48.49726,506.57,558.09
48.51754,503.98,558.33
48.53837,504.84,559.62
48.55832,504.95,560.54
48.57864,503.93,557.12
48.59842,502.79,559.11
48.61699,505.09,557.21
48.63795,504.02,556.89
48.65751,504.48,557.93
48.67708,503.91,558.61
48.69724,503.26,557.85
48.71714,501.38,558.42
48.73728,501.45,561.44
48.75751,501.29,561.26
48.77679,500.09,562.91
48.79841,501.98,560.93
48.81805,500.98,564.17
48.83689,501.37,563.82
48.85819,504.52,560.26
48.87759,502.83,559.32
48.89815,503.38,560.70
48.91705,506.48,558.93
48.93823,504.54,556.55
48.95724,506.61,556.90
48.97814,505.40,559.77
48.99804,504.49,556.69
49.01759,505.58,556.73
49.03787,503.52,559.56
49.05684,503.79,557.66
49.07755,503.68,559.58
49.09855,501.34,559.58
49.11841,503.44,558.39
49.13857,503.94,558.53
49.15730,504.55,557.67
49.17778,506.14,558.78
49.19758,504.64,558.62
49.21678,502.39,558.32
49.23817,502.33,556.49
49.25661,503.64,557.40
49.27740,504.38,559.99
49.29747,505.64,559.57
49.31812,506.47,559.12
49.33714,507.66,558.90
49.35869,506.66,559.82
49.37725,506.67,561.51
49.39775,503.18,559.35
49.41796,504.10,560.89
49.43694,505.20,559.20
49.45683,503.66,561.01
49.47698,505.48,558.35
49.49806,503.98,560.30
49.51761,504.66,560.39
49.53703,505.33,561.19
49.55711,503.78,562.05
49.57798,503.86,560.81
49.59886,504.13,562.64
49.61891,503.95,563.40
49.63801,504.27,560.62
49.65899,507.01,561.40
49.67855,504.78,561.41
49.69857,504.51,563.59
49.71924,504.12,562.77
49.73980,505.68,563.34
49.75981,506.02,563.58
49.77934,507.29,563.81
49.80008,509.98,563.93
49.81925,509.96,563.46
49.83943,511.63,563.16
49.85929,513.30,561.29
49.87979,511.22,560.31
49.89861,511.41,563.88
49.91874,510.93,561.69
49.93886,512.10,560.56
49.95901,513.37,562.07
49.98007,512.20,563.69
49.99884,513.20,562.00
50.01970,512.26,559.61
50.04033,515.36,561.30
50.06034,514.08,563.68
50.07878,512.72,560.59
50.10036,515.20,563.33
50.11921,514.72,561.75
50.14127,517.41,561.87
50.16017,517.66,562.79
50.18098,516.01,562.86
50.19994,517.79,560.47
50.21967,517.96,561.03
50.24142,517.67,561.01
50.26030,515.58,559.18
50.28100,515.78,561.35
50.29979,519.90,558.69
50.31962,520.68,561.47
50.34142,519.06,560.82
50.36052,518.48,563.00
50.37959,520.00,564.16
50.39960,520.11,562.04
50.42108,518.28,560.73
50.44117,522.36,564.14
50.46122,520.70,564.39
50.48062,522.84,566.07
50.50130,522.64,566.39
50.51959,519.32,565.22
50.54150,517.81,559.60
50.56132,516.90,545.12
50.58104,514.91,526.92
50.60022,511.62,505.78
50.62072,508.29,484.21
50.64132,506.16,467.46
50.66095,503.97,455.38
50.67996,505.19,442.33
50.69994,502.59,433.95
50.71976,506.30,432.79
50.74093,508.13,430.78
50.76071,505.06,431.31
50.78065,506.96,436.77
50.80019,509.46,443.89
50.82136,508.22,451.84
50.84087,512.32,464.23
50.86148,510.69,471.08
50.87976,510.80,483.82
50.90036,512.26,493.14
50.92137,516.03,502.66
50.94040,517.21,511.48
50.96048,516.96,519.99
50.98125,516.83,527.23
51.00082,515.94,530.43
51.02092,514.57,537.11
51.04049,519.49,540.87
51.06103,520.65,542.77
51.08047,518.45,546.37
51.10013,520.00,549.64
51.12085,517.51,550.17
51.14010,519.37,551.52
51.16132,518.28,555.63
51.18143,518.17,556.34
51.20004,518.29,554.36
51.22058,521.63,558.63
51.23987,518.13,556.81
51.25957,517.64,558.46
51.28158,518.11,568.35
51.30111,519.72,583.80
51.31982,521.40,610.85
51.34151,523.88,637.18
51.36197,526.30,667.54
51.38103,528.94,688.54
51.40254,531.73,713.04
51.42070,534.94,726.23
51.44185,540.30,727.91
51.46283,541.70,726.56
51.48285,539.58,715.80
51.50431,541.03,702.09
51.52293,539.62,682.10
51.54258,538.04,670.60
51.56351,536.20,652.69
51.58529,531.14,642.22
51.60442,528.81,628.92
51.62544,528.02,617.00
51.64511,526.24,610.21
51.66484,526.57,602.01
51.68571,523.38,600.83
51.70568,521.07,594.27
51.72523,523.47,588.27
51.74505,520.00,583.62
51.76505,522.55,583.28
51.78532,519.68,580.04
51.80499,520.24,577.45
51.82599,518.85,575.73
51.84477,518.11,573.67
51.86535,517.17,572.46
51.88515,517.59,570.44
51.90652,517.97,569.04
51.92475,513.74,567.63
51.94524,513.80,569.15
51.96639,514.75,566.37
51.98454,514.69,561.86
52.00502,518.44,560.08
52.02613,517.15,559.88
52.04610,518.35,562.37
52.06452,515.10,561.52
52.08629,513.60,559.95
52.10583,513.69,559.23
52.12551,512.34,558.94
52.14641,510.61,560.28
52.16670,508.54,560.49
52.18624,509.60,558.70
52.20580,508.82,560.67
52.22623,508.42,563.32
52.24666,509.24,562.71
52.26585,505.60,560.98
52.28710,505.73,560.95
52.30671,506.14,560.64
52.32659,506.07,563.03
52.34617,508.83,565.36
52.36592,504.49,565.17
52.38674,505.61,561.08
52.40754,507.79,561.31
52.42613,508.70,562.63
52.44703,506.76,563.97
52.46725,506.18,562.53
52.48747,505.21,562.23
52.50679,508.34,559.24
52.52866,506.69,562.14
52.54932,506.91,559.33
52.56928,507.05,561.08
52.58968,502.58,557.02
52.60870,503.77,559.12
52.63023,500.22,559.67
52.64893,499.82,557.45
52.66914,500.61,556.45
52.68964,499.61,557.28
52.71048,500.26,558.07
52.72987,500.58,559.53
52.75051,502.52,560.15
52.76916,501.56,558.36
52.78894,502.00,561.82
52.81022,501.53,560.75
52.83021,500.17,560.39
52.84919,500.19,559.67
52.86867,501.01,559.47
52.88882,500.69,556.90
52.90881,499.63,559.05
52.92943,499.70,559.14
52.95034,499.78,556.79
52.96968,499.79,556.65
52.98986,500.68,558.60
53.00960,502.73,559.38
53.03109,504.54,559.51
53.05137,504.53,557.69
53.07067,502.46,557.03
53.08972,504.95,556.43
53.11150,502.11,557.82
53.13111,502.62,558.13
53.15081,502.98,555.99
53.17018,502.83,557.14
53.19092,504.73,555.94
53.21091,506.79,556.77
53.23241,505.30,558.13
53.25286,507.69,558.97
53.27173,506.28,556.14
53.29294,508.68,557.77
53.31248,507.00,557.56
53.33178,503.49,557.27
53.35320,504.76,558.54
53.37192,507.08,556.65
53.39167,508.80,559.53
53.41182,510.68,559.87
53.43363,511.57,558.31
53.45252,510.88,556.34
53.47363,508.17,558.59
53.49248,511.43,559.68
53.51265,508.66,557.24
53.53408,508.77,558.76
53.55378,509.27,559.29
53.57437,510.22,558.95
53.59388,510.96,558.93
53.61484,509.08,561.09
53.63500,513.04,561.24
53.65381,512.05,562.50
53.67413,512.19,562.16
53.69404,515.88,563.64
53.71437,514.75,563.76
53.73435,516.90,560.60
53.75496,514.31,561.67
53.77407,514.65,560.26
53.79379,514.73,562.63
53.81531,516.19,563.29
53.83404,515.51,562.18
53.85435,514.65,560.77
53.87378,514.00,559.96
53.89527,515.17,563.14
53.91538,518.85,563.10
53.93533,517.24,561.52
53.95529,517.11,564.40
53.97480,518.55,562.12
53.99436,520.77,563.12
54.01481,520.42,561.86
54.03522,518.66,561.61
54.05455,519.08,563.93
54.07476,519.75,563.04
54.09411,520.68,563.57
54.11396,517.63,564.16
54.13490,518.92,561.14
54.15551,520.51,561.32
54.17412,518.08,561.43
54.19458,518.46,562.22
54.21425,519.08,560.99
54.23414,517.39,558.45
54.25463,519.04,560.54
54.27522,516.08,560.99
54.29425,517.54,559.31
54.31477,517.36,561.55
54.33460,519.07,567.21
54.35434,521.80,568.62
54.37549,521.96,563.72
54.39424,524.20,550.18
54.41419,525.68,527.76
54.43388,519.98,503.80
54.45515,517.81,474.50
54.47476,516.66,455.42
54.49514,511.31,436.91
54.51557,507.00,425.18
54.53611,507.86,421.44
54.55625,506.20,417.56
54.57849,507.57,421.06
54.59864,508.08,432.42
54.61748,507.59,441.09
54.63780,510.45,455.20
54.65741,509.27,465.79
54.67755,512.81,479.65
54.69751,512.74,493.89
54.71812,520.27,530.39
54.73917,527.88,579.23
54.75900,533.96,637.07
54.77924,537.43,688.31
54.79898,537.32,717.22
54.81826,536.29,724.37
54.83858,535.32,716.41
54.85921,532.99,700.73
54.87899,530.31,679.51
54.89870,525.53,660.75
54.91894,525.68,641.81
54.93834,523.70,622.86
54.95755,522.47,607.87
54.97918,521.18,597.69
54.99835,518.43,591.03
55.01751,519.11,582.13
55.03841,516.75,577.91
55.05784,519.02,572.81
55.07922,518.73,568.47
55.09857,519.90,567.18
55.11848,519.65,567.22
55.13783,517.64,564.98
55.15846,517.06,566.33
55.17874,517.50,568.96
55.19863,518.30,577.85
55.21857,521.05,592.71
55.23844,520.40,622.75
55.25879,526.40,649.89
55.27877,525.14,657.96
55.29803,525.58,644.01
55.31807,524.53,623.00
55.33764,519.29,602.27
55.35748,519.07,581.56
55.37852,517.78,568.73
55.39861,521.14,570.95
55.41768,521.31,594.05
55.43769,524.47,628.06
55.45925,528.98,648.35
55.47769,529.37,652.21
55.49841,526.43,636.66
55.51915,526.97,617.11
55.53891,525.01,600.04
55.55830,522.83,581.48
55.57939,521.51,570.59
55.59886,520.61,558.54
55.61793,519.94,548.42
55.63883,516.32,546.70
55.65942,517.57,551.60
55.67847,520.57,569.81
55.69782,522.64,606.97
55.71861,524.94,632.30
55.73868,525.75,633.59
55.75854,526.46,626.35
55.77889,526.53,609.75
55.79812,524.45,592.75
55.81848,528.05,578.84
55.83806,526.86,568.44
55.85755,522.00,557.93
55.87819,521.76,548.73
55.89930,522.15,543.07
55.91810,519.52,534.63
55.93824,516.52,536.43
55.95853,518.07,540.08
55.97876,517.77,541.41
55.99885,518.33,544.35
56.01882,516.40,545.28
56.03923,515.34,550.88
56.05866,513.20,550.66
56.07924,514.93,553.79
56.09917,513.83,558.94
56.11773,512.76,555.28
56.13858,509.93,556.71
56.15759,508.99,552.32
56.17831,508.89,554.89
56.19855,502.58,556.40
56.21838,506.61,555.78
56.23907,509.00,551.20
56.25895,506.98,553.60
56.27748,505.19,556.90
56.29792,509.75,557.06
56.31874,511.01,557.12
56.33916,507.07,559.39
56.35760,508.16,560.21
56.37838,513.69,559.88
56.39737,514.04,564.62
56.41871,510.09,566.33
56.43850,512.89,566.33
56.45945,513.74,563.34
56.47887,513.72,558.95
56.49751,518.23,562.44
56.51887,507.40,566.17
56.53788,506.79,562.67
56.55842,509.94,562.81
56.57903,513.10,564.72
56.59826,513.40,561.81
56.61797,515.33,563.56
56.63943,513.57,560.11
56.66017,512.11,562.29
56.67842,510.30,564.93
56.69975,509.13,564.85
56.72009,507.40,566.96
56.73882,509.84,563.46
56.75992,506.79,563.90
56.77965,504.80,564.74
56.80221,498.29,560.70
56.82233,502.34,561.46
56.84173,505.14,561.17
56.86306,505.57,559.51
56.88343,506.57,559.27
56.90156,509.47,559.07
56.92279,508.45,558.81
56.94269,509.33,556.07
56.96179,510.91,560.43
56.98195,513.84,561.66
57.00183,515.66,562.54
57.02162,516.77,558.47
57.04264,516.38,555.94
57.06329,518.39,556.77
