Program Time [s],data 0,data 1
40.3735,514.67,550.4
40.3934,510.54,549.32
40.4137,505.43,548.06
40.4334,504.74,547.05
40.4537,505.2,544.64
40.4734,501.36,542.71
40.4935,500.69,543.57
40.5134,499.55,539.45
40.5334,498.64,536.56
40.5534,497.91,535.45
40.5734,497.73,533.36
40.5935,499.38,532.49
40.6135,499.11,536.19
40.6335,499.69,535.15
40.6535,496.15,531.32
40.6735,494.12,533.26
40.6934,496.29,536.61
40.7134,496.64,534.68
40.7334,498.51,533.75
40.7535,498.61,532.4
40.7734,497.69,532.32
40.7935,496.75,535.65
40.8134,496.4,541.12
40.8335,495.72,541.5
40.8535,494.78,542.6
40.8735,493.22,543.48
40.8934,491.98,542.78
40.9135,496.38,545.83
40.9334,499.9,550.86
40.9535,499.72,547.49
40.9745,501.98,545.79
40.9944,499.38,544.43
41.0145,494.31,547.15
41.0345,492.65,549.32
41.0544,492.32,552.45
41.0744,494.05,555.76
41.0945,495.64,557.21
41.1144,495.31,558.97
41.1344,496.05,561.17
41.1544,498.84,559.54
41.1745,502.27,560.63
41.1944,502.82,559.51
41.2144,505.85,559.4
41.2344,508.48,559.92
41.2545,506.39,564.34
41.2744,505.91,564.87
41.2944,505.93,567.5
41.3144,505.34,569.6
41.3344,506.87,569.88
41.3544,511.3,567.5
41.3745,511.24,567.4
41.3946,511.59,567.72
41.4154,511.27,567.38
41.4357,510.62,566.9
41.4555,508.49,563.92
41.4755,506.4,562.54
41.4955,505.32,561.23
41.5155,500.65,559.98
41.5364,500.52,555.79
41.5564,500.02,554.43
41.5764,500.41,552.54
41.5964,500.73,551.43
41.6164,499.99,550.75
41.6364,497.99,549.6
41.6565,496.39,550.28
41.6765,496.71,548.62
41.6965,494.57,550.3
41.7164,491.46,551.24
41.7367,492.16,553.39
41.7574,495.73,552.31
41.7774,493.79,551.85
41.7975,494.63,553.08
41.8175,496.1,552.46
41.8384,493.08,551.17
41.8584,493.07,551.74
41.8785,496.45,552.99
41.8994,497.96,550.19
41.9194,491.57,548.55
41.9394,490.66,546.64
41.9594,493.32,543.91
41.9795,491.66,543.33
41.9994,492.93,543.07
42.0195,492.94,540.45
42.0404,495.75,538.16
42.0605,494,537.33
42.0805,495,538.06
42.1004,493,535.65
42.1204,494.4,532.92
42.1404,496.32,532.94
42.1605,496.06,532.55
42.1804,496.85,533.04
42.2004,494.48,535.83
42.2204,491.98,537.27
42.2404,491.58,536.61
42.2605,493.47,537.49
42.2804,492.77,536.59
42.3004,491.22,535.87
42.3204,490.38,533.3
42.3405,489.3,533.44
42.3615,488.84,535.75
42.3814,492.07,535.6
42.4014,490.86,532.28
42.4214,484.89,529.42
42.4414,486.71,527.74
42.4614,480.77,526.59
42.4814,476.01,526.47
42.5014,481.01,530.78
42.5214,469.21,525.62
42.5414,473.97,527.5
42.5614,478.97,529.6
42.5814,480.98,533.48
42.6016,476.98,534.18
42.6214,471.59,531.55
42.6424,473.87,531.24
42.6635,476.9,532.79
42.6835,483.72,532.03
42.7034,487.17,532.63
42.7235,491.14,536.3
42.7435,488.71,540.04
42.7634,501.97,541.43
42.7834,514.57,542.35
42.8034,513.46,546.48
42.8235,506.17,547.98
42.8444,492.93,545.99
42.8644,493.15,545.79
42.8844,488.12,551.23
42.9044,495.09,546.98
42.9245,489.48,542.99
42.9444,485.38,541.79
42.9644,493.7,542.63
42.9844,498.36,541.31
43.0045,492.89,540.24
43.0245,496.11,539
43.0444,481.09,544.4
43.0644,481.07,541.92
43.0844,483.06,545.33
43.1044,483.45,542.47
43.1246,486.16,541.77
43.1444,495.93,541.22
43.1644,490.54,540.18
43.1846,490.43,542.54
43.2044,495.15,542.23
43.2244,496.92,539.79
43.2444,504.93,536.83
43.2645,501.95,540.66
43.2844,504.96,540.53
43.3044,504.97,542.82
43.3244,507.57,544.06
43.3448,510.46,541.25
43.3645,502.57,540.6
43.3846,490.85,543.08
43.4045,490.48,542.26
43.4244,498.19,542.41
43.4444,494.15,545.73
43.4645,491.12,546.58
43.4844,483.9,547.87
43.5044,489.32,546.69
43.5244,488.85,546.55
43.5444,492.08,547.44
43.5647,481.87,548.55
43.5845,483.49,548.44
43.6046,482.59,547.96
43.6244,480.68,548.76
43.6444,485.14,552.21
43.6645,482.91,549.77
43.6844,487.53,550.02
43.7044,491.02,550.01
43.7244,493.42,547.41
43.7445,495.74,547.93
43.7645,494.39,548.94
43.7844,495.71,549.75
43.8044,497.57,550.4
43.8244,495.05,553.92
43.8446,498.44,554.74
43.8644,495.36,554.59
43.8844,493.68,555.07
43.9044,494.75,555.26
43.9244,495.8,554.41
43.9444,497.84,554.92
43.9644,499.47,554.54
43.9844,506.38,554.43
44.0045,506.3,553.55
44.0244,504.64,550.24
44.0445,504.71,550.99
44.0644,507.37,549.39
44.0844,506.7,549.31
44.1044,504.96,548.65
44.1244,500.57,549.72
44.1444,500.45,549.58
44.1645,499.76,549.06
44.1845,500.01,547.65
44.2044,501.01,547.32
44.2244,501.01,545.86
44.2444,501.6,545.08
44.2644,500.88,544.67
44.2844,497.51,545.93
44.3044,496.61,546.55
44.3244,496.28,545.64
44.3444,494.03,544.91
44.3644,495.82,545.13
44.3845,495.46,546.7
44.4044,496.17,545.96
44.4245,495.53,544.37
44.4444,496.43,544.7
44.4645,495.14,545.56
44.4844,494.31,546.05
44.5044,495.85,546.24
44.5244,495.68,544.39
44.5444,496.14,543.91
44.5644,494.92,545.13
44.5845,495.93,546.5
44.6045,495.35,547.4
44.6244,497.28,547.52
44.6444,497.42,548.22
44.6644,497.34,546.97
44.6845,497.87,545.78
44.7044,499.3,544.02
44.7245,499.84,544.62
44.7445,500.87,545.3
44.7644,498.9,546.64
44.7844,498.12,546.91
44.8044,496.69,547.73
44.8244,498.15,548.38
44.8445,498.72,547.91
44.8644,500.78,548.12
44.8844,500.42,548.7
44.9044,499.34,547.96
44.9244,497.67,548.17
44.9444,497.74,549.13
44.9644,496.99,548.51
44.9844,496.59,548.61
45.0044,495.87,547.48
45.0244,496.9,546.19
45.0444,496.52,545.95
45.0644,496.02,545.76
45.0844,494.61,545.21
45.1045,497.69,544.77
45.1244,496.55,543.21
45.1444,497.04,543.57
45.1645,497.83,543.46
45.1844,496.87,544.57
45.2045,497.49,543.05
45.2245,496.59,543.44
45.2444,498.48,544.15
45.2644,496.18,545.12
45.2844,498.34,544.1
45.3044,499.88,544.68
45.3244,500.1,544.74
45.3446,497.88,545.79
45.3644,500.1,544.44
45.3844,500.88,543.75
45.4044,501.71,543.4
45.4244,503.17,543.72
45.4445,504.33,543.38
45.4644,503.27,545.7
45.4844,500.61,545.56
45.5044,500.29,546.65
45.5245,500.63,547.92
45.5445,499.91,549.33
45.5644,501.72,549.07
45.5845,500.38,549.05
45.6044,498.9,550.24
45.6244,501.12,549.99
45.6444,501.1,550.8
45.6644,501.08,550.64
45.6845,500.86,551.11
45.7048,500.29,550.69
45.7245,500.23,549.75
45.7444,499.79,550.4
45.7644,500.23,549.52
45.7844,500.78,549.82
45.8046,501.83,550.05
45.8244,504.06,549.44
45.8444,504.05,548.95
45.8644,504.24,549.16
45.8844,503.19,548.73
45.9045,503.55,548.78
45.9245,502.44,548.23
45.9444,502.95,547.78
45.9645,503.76,546.63
45.9845,505.81,546.7
46.0044,505.65,546.96
46.0246,504.92,548.37
46.0446,504.33,549.49
46.0648,503.27,551
46.0845,503.01,553.8
46.1044,502.21,554.84
46.1244,502.37,556.27
46.1445,501.7,556.02
46.1645,501.96,556.41
46.1844,501.97,556.73
46.2046,500.37,558.78
46.2245,500.7,558.43
46.2446,500.56,556.94
46.2649,501.05,556.35
46.285,500.44,555.28
46.3046,501.55,554.23
46.3248,501.04,554.18
46.3445,499.83,554.34
46.3649,500.47,553.48
46.3846,500.77,555.38
46.4047,501.42,555.9
46.4245,502.33,555.52
46.4449,501.67,555.02
46.4645,501.73,554.02
46.4844,500.39,553.21
46.5046,500.11,553.77
46.525,500.49,553.82
46.5446,499.99,552.85
46.5644,499.79,551.88
46.5844,500.43,548.51
46.6044,501.35,546.6
46.6244,500.08,548.28
46.6445,501.06,548.43
46.6645,501.05,551.54
46.6844,501.84,558.23
46.7046,496.67,572.79
46.7254,489.94,593.03
46.7455,483.35,613.22
46.7663,479.08,623.98
46.7865,482.06,619.78
46.8065,486.65,607.43
46.8264,491.12,590.54
46.8464,497.5,570.63
46.8664,501.8,552.91
46.8863,505.04,536.13
46.9065,506.63,524.5
46.9264,508.1,516
46.9464,507.08,510
46.9663,507.67,507
46.9864,507.33,505.4
47.0066,507.27,507.12
47.0264,506.61,507.1
47.0464,504.29,510.88
47.0665,503.23,515.3
47.0864,503.59,519.04
47.1065,503.07,521.83
47.1265,502.86,524.07
47.1464,504.88,526.65
47.1666,505.11,527.32
47.1865,504.69,528.46
47.2066,504.95,529.17
47.2263,506.56,530.53
47.2463,506.05,532.83
47.2664,504.64,534.86
47.2865,504.91,535.49
47.3067,502.73,537.79
47.3264,502.58,538.83
47.3464,501.67,540.07
47.3664,501.53,540.45
47.3864,501.43,541.56
47.4069,501.34,543.05
47.4266,500.07,543.84
47.4464,499.86,542.87
47.4664,501.69,542.9
47.4864,503.15,543.72
47.5068,503.92,543.37
47.5267,504.14,543.7
47.5465,502.91,543.96
47.5664,502.53,544.57
47.5864,502.82,545.45
47.607,503.46,545.36
47.6265,504.77,545.49
47.6464,503.41,546.39
47.6664,503.73,547.91
47.6864,503.38,547.93
47.7066,504.91,546.74
47.7266,501.33,546.8
47.7465,499.46,548.24
47.7666,499.17,546.99
47.7867,499.73,548.19
47.8067,501.79,547.95
47.8266,504.23,548.36
47.8465,505.98,548.49
47.8664,507.39,547.79
47.8865,504.71,547.43
47.907,505.77,545.75
47.9264,505.81,545.8
47.9465,505.45,546.44
47.9674,506.96,545.55
47.9874,506.77,544.24
48.0073,507.42,543.39
48.0276,504.93,543.91
48.0473,504.35,543.13
48.0674,503.88,541.3
48.0874,506.1,540.84
48.1077,506.08,539.88
48.1275,506.66,540.3
48.1477,506.53,539.44
48.1674,508.63,540.75
48.1874,508.9,540.2
48.2073,508.52,540.56
48.2276,509.42,539.85
48.2475,507.33,541.28
48.2676,506.87,542.02
48.2876,507.69,541.02
48.3074,506.95,543.21
48.3274,504.96,543.57
48.3474,503.57,543.46
48.3675,501.46,541.37
48.3874,499.77,540.49
48.4084,498.41,540.59
48.4284,499.13,539.88
48.4484,498.3,538.1
48.4684,497.24,538.68
48.4884,493.99,537.54
48.5086,491.8,537.84
48.5284,490.84,537.47
48.5484,490.07,536.97
48.5689,487.86,537.18
48.5884,486.68,538.34
48.6084,486.35,537.48
48.6284,485.88,537.58
48.6486,486.7,535.26
48.6686,487.76,534.41
48.6886,489.01,533.73
48.7087,489.41,532.98
48.7284,490.33,532.19
48.7485,490.86,531.15
48.7684,492.09,531.12
48.7884,492.47,530.5
48.8084,493.38,531.6
48.8286,494.3,531.28
48.8485,493.04,531.22
48.8686,492.43,530.98
48.8886,491.35,530.98
48.9084,491.68,530.59
48.9285,491.94,531.27
48.9483,491.75,531.21
48.9683,492.8,531.37
48.9884,492.84,532.1
49.0083,494.27,533.28
49.0287,495.22,532.62
49.0487,497.38,532.7
49.0685,499.3,532.96
49.0885,498.04,534.77
49.1084,498.63,531.41
49.1283,500.31,527.93
49.1484,500.64,526.94
49.1684,500.12,525.96
49.1884,500.29,525.76
49.2085,499.63,526.41
49.229,498.71,527.13
49.2486,496.97,529.5
49.2688,496.97,529.6
49.2883,495.78,529.28
49.3083,496.02,530.83
49.3284,495.22,530.46
49.3485,494.97,530.97
49.3685,493.98,530.57
49.3885,492.98,531.06
49.4086,495.59,532.25
49.4284,496.07,533.4
49.4486,494.86,534.12
49.4685,496.08,534.29
49.4885,495.87,534.64
49.5084,495.49,534.91
49.5286,496.2,534.93
49.5486,495.16,534.74
49.5684,495.72,536.19
49.5888,496.18,537.15
49.6083,496.34,537.32
49.6284,497.48,537.26
49.6485,497.38,537.41
49.6684,496.1,536.93
49.6883,495.88,536.14
49.7084,494.91,536.31
49.7284,495.53,536.65
49.7485,496.22,536.32
49.7684,494.98,536.66
49.7885,496.38,536.92
49.8084,495.1,536.34
49.8284,495.48,536.07
49.8485,494.59,534.66
49.8683,495.47,534.53
49.8884,493.78,533.62
49.9084,495.02,533.7
49.9284,495.02,533.96
49.9484,495.01,535.57
49.9684,496.01,535.05
49.9884,495.81,534.24
50.0084,493.25,534.39
50.0284,491.8,534.71
50.0484,491.44,534.77
50.0684,491.95,535.02
50.0883,492.36,534.61
50.1084,492.89,534.49
50.1284,491.51,534.19
50.1484,491.81,533.75
50.1684,492.25,533.2
50.1884,492.8,532.76
50.2083,491.44,532.21
50.2284,490.95,532.77
50.2484,491.36,533.01
50.2684,490.69,533.41
50.2883,489.95,533.53
50.3084,495.36,532.22
50.3284,500.29,532.18
50.3484,503.83,532.34
50.3685,506.26,531.67
50.3883,505.21,534.54
50.4084,503.57,542.43
50.4283,500.06,556.35
50.4484,494.84,583.28
50.4686,492.28,611.82
50.4883,492.62,627.26
50.5083,493.5,625.61
50.5286,492.8,611.28
50.5485,494.84,590.03
50.5684,497.07,567.82
50.5883,498.06,546.26
50.6084,499.64,528.81
50.6284,499.12,514.44
50.6485,499.49,503.36
50.6686,499.59,496.68
50.6884,498.48,493.75
50.7083,498.78,492.4
50.7284,498.02,494.32
50.7484,497.82,496.05
50.7684,498.66,498.04
50.7883,496.52,501.24
50.8084,495.42,503.79
50.8283,496.14,507.83
50.8484,495.91,510.66
50.8684,496.33,513.93
50.8883,494.46,518.15
50.9083,493.37,521.32
50.9283,495.3,523.45
50.9484,494.04,525.56
50.9684,494.03,527.25
50.9884,493.42,530
51.0084,492.94,531.8
51.0284,492.95,534.64
51.0484,492.56,536.11
51.0684,494.05,536.29
51.0883,493.24,536.83
51.1084,492.59,537.67
51.1284,492.07,537.93
51.1484,492.46,540.15
51.1683,493.57,539.52
51.1884,494.65,539.21
51.2083,495.72,537.97
51.2284,494.58,538.58
51.2484,493.86,538.66
51.2683,494.69,540.13
51.2884,493.95,539.5
51.3086,493.76,539.2
51.3294,494.61,539.36
51.3493,494.29,538.89
51.3694,495.23,538.31
51.3894,496.18,538.25
51.4094,496.55,537.6
51.4294,498.04,537.68
51.4497,497.43,538.34
51.4694,498.54,538.67
51.4893,497.24,539.14
51.5094,497.19,539.31
51.5295,495.75,540.65
51.5494,496,541.92
51.5694,496.8,541.94
51.5894,497.04,541.95
51.6094,497.03,542.16
51.6294,498.03,541.13
51.6494,497.22,542.1
51.6694,497.18,541.48
51.6895,499.74,541.59
51.7094,500.79,541.67
51.7293,500.43,542.33
51.7493,498.35,542.27
51.7693,498.08,542.41
51.7893,498.66,542.33
51.8093,499.73,542.27
51.8294,499.98,544.61
51.8493,500.39,545.09
51.8693,499.31,545.87
51.8894,499.05,546.1
51.9094,499.24,546.48
51.9295,497.59,545.58
51.9493,498.07,544.67
51.9693,496.46,545.53
51.9894,496.17,544.03
52.0093,495.13,543.02
52.0293,495.51,542.82
52.0493,494.81,541.65
52.0693,496.84,541.12
52.0894,496.88,541.1
52.1093,497.3,541.28
52.1294,496.84,540.42
52.1495,497.67,540.14
52.1693,497.14,540.11
52.1895,496.11,539.69
52.2093,496.29,539.15
52.2294,497.23,538.12
52.2495,495.38,538.9
52.2693,494.31,539.72
52.2893,495.85,539.57
52.3093,494.88,539.66
52.3294,495.7,539.93
52.3493,496.36,540.14
52.3694,496.49,538.91
52.3894,495.59,537.73
52.4094,495.07,537.78
52.4293,495.06,539.43
52.4493,495.05,539.74
52.4693,494.64,540.79
52.4894,495.31,540.43
52.5094,496.05,540.75
52.5294,494.24,541.6
52.5494,495.19,540.88
52.5693,493.95,540.3
52.5893,492.96,540.64
52.6093,495.57,540.31
52.6294,497.66,542.05
52.6493,499.12,542.64
52.6693,498.9,542.51
52.6893,498.72,544.81
52.7093,499.18,545.25
52.7293,499.54,544.6
52.7494,500.03,545.28
52.7694,500.23,545.62
52.7894,500.38,545.9
52.8095,499.3,546.12
52.8294,497.44,546.1
52.8494,498.15,545.88
52.8693,497.12,545.9
52.8894,497.9,545.32
52.9095,496.92,545.46
52.9294,498.34,545.77
52.9495,496.67,546.01
52.9694,496.33,546.61
52.9895,495.87,546.69
53.0093,495.69,546.55
53.0294,496.96,546.44
53.0497,496.96,546.35
53.0697,498.57,546.88
53.0894,499.66,546.71
53.1094,498.33,546.96
53.1293,497.06,545.97
53.1494,498.05,544.98
53.1695,497.04,545.18
53.1896,499.03,544.35
53.2096,497.62,544.88
53.2295,495.7,544.5
53.2497,496.76,544
53.2696,496.81,543.4
53.2895,497.85,543.72
53.3094,498.08,544.18
53.3294,498.06,543.94
53.3493,498.65,545.75
53.3694,497.52,545.8
53.3893,497.62,546.44
53.4095,496.69,546.35
53.4294,494.95,546.28
53.4497,495.76,544.83
53.4694,495.61,544.86
53.4893,497.09,544.09
53.5093,498.27,545.47
53.5294,496.82,546.18
53.5494,497.25,546.14
53.5693,496.8,546.11
53.5894,496.24,546.09
53.6094,496.39,546.27
53.6294,496.71,546.42
53.6493,496.37,546.13
53.6693,495.7,546.91
53.6894,496.16,546.73
53.7095,496.53,546.58
53.7304,497.42,548.06
53.7504,498.34,548.45
53.7703,498.07,549.96
53.7904,497.86,549.77
53.8121,496.08,549.62
53.8314,497.47,549.09
53.8513,497.57,548.47
53.8714,496.86,548.78
53.8915,497.69,548.62
53.9114,499.75,547.9
53.9323,498.6,546.92
53.9523,499.88,546.94
53.9723,500.9,546.35
53.9924,501.12,546.88
54.0123,501.1,547.1
54.0323,498.88,546.68
54.0523,498.9,547.15
54.0725,497.92,547.52
54.0923,498.74,548.21
54.1126,501.19,548.17
54.1323,498.95,549.34
54.1525,498.16,549.47
54.1724,497.93,548.18
54.1924,498.14,548.34
54.2123,496.71,548.27
54.2324,497.37,548.82
54.2526,498.3,549.45
54.2723,498.24,549.96
54.2924,497.59,550.57
54.3124,499.27,550.66
54.3324,499.82,550.53
54.3525,498.85,549.82
54.3723,496.88,550.06
54.3924,498.71,549.64
54.4123,495.97,550.32
54.4323,500.77,550.85
54.4524,503.42,549.88
54.4723,506.33,548.31
54.4924,508.27,547.04
54.5123,509.21,547.24
54.5323,510.77,547.19
54.5525,511.62,546.15
54.5724,513.09,544.92
54.5923,512.07,545.74
54.6123,512.46,544.79
54.6323,510.37,546.03
54.6524,508.49,546.63
54.6724,507.8,547.9
54.6923,505.84,547.52
54.7125,503.47,547.62
54.7322,503.78,547.29
54.7523,503.02,547.23
54.7723,502.62,546.99
54.7923,502.69,547.39
54.8124,501.55,546.11
54.8324,501.84,545.89
54.8524,501.27,544.71
54.8723,500.62,544.77
54.8923,498.3,545.42
54.9123,496.84,547.33
54.9322,497.67,547.67
54.9526,499.14,548.13
54.9724,500.71,548.91
54.9923,499.57,548.52
55.0123,501.05,549.02
55.0323,501.64,549.82
55.0522,500.11,549.85
55.0724,500.49,549.48
55.0923,499.99,548.59
55.1123,499.39,549.67
55.1323,499.12,549.33
55.1524,500.29,549.87
55.1724,500.43,549.89
55.1923,501.35,550.32
55.2123,501.28,549.65
55.2324,499.82,547.52
55.2524,498.86,548.02
55.2724,499.29,547.41
55.2923,500.43,547.33
55.3123,500.74,546.26
55.3323,499.99,546.61
55.3525,498.8,547.69
55.3724,497.64,548.15
55.3923,498.51,547.92
55.4123,497.61,548.54
55.4323,497.89,549.43
55.4524,497.71,549.34
55.4723,498.57,548.07
55.4924,499.45,548.26
55.5124,499.16,548.61
55.5333,499.13,548.29
55.5534,498.9,545.63
55.5743,498.52,543.9
55.5945,500.02,542.72
55.6143,499.41,541.78
55.6344,499.73,541.22
55.6543,499.99,540.38
55.6743,499.59,540.1
55.6943,498.67,539.08
55.7143,496.34,539.07
55.7344,496.07,538.65
55.7543,495.86,537.52
55.7743,495.68,537.22
55.7943,494.35,537.17
55.8143,494.48,537.14
55.8343,495.38,537.51
55.8544,496.71,537.41
55.8744,496.76,537.73
55.8944,497.21,537.78
55.9145,497.97,537.43
55.9343,498.18,536.94
55.9543,497.54,536.35
55.9745,496.63,536.48
55.9944,495.91,536.59
56.0144,496.52,536.27
56.0344,495.22,536.01
56.0543,494.38,536.01
56.0743,493.3,536.21
56.0944,494.84,536.77
56.1144,493.67,536.41
56.1343,494.54,536.73
56.1543,495.23,535.98
56.1743,496.38,535.99
56.1944,495.51,536.39
56.2144,495.01,536.91
56.2345,496.2,537.73
56.2543,494.96,537.58
56.2743,495.77,537.47
56.2943,494.82,536.17
56.3143,495.45,535.34
56.3343,495.96,534.27
56.3543,497.17,534.42
56.3743,497.14,534.93
56.3943,497.31,535.55
56.4143,496.65,536.64
56.4343,496.72,536.31
56.4543,496.97,535.65
56.4743,497.38,535.92
56.4943,498.7,535.73
56.5143,498.96,534.79
56.5343,498.17,534.63
56.5543,497.34,534.3
56.5743,496.87,534.44
56.5943,496.3,534.95
56.6143,496.04,535.76
56.6343,496.23,535.41
56.6543,497.18,534.93
56.6743,496.75,535.54
56.6943,499.4,536.63
56.7143,500.32,536.71
56.7343,501.25,536.57
56.7543,501.6,536.45
56.7743,502.88,535.76
56.7944,503.51,534.61
56.8143,504.2,535.09
56.8343,503.76,535.87
56.8543,503.61,536.7
56.8745,503.09,537.56
56.8943,502.07,537.45
56.9144,503.26,538.56
56.9343,502.01,538.65
56.9543,502.2,537.92
56.9743,500.76,537.93
56.9944,498.81,537.95
57.0143,497.85,537.76
57.0343,498.08,538.81
57.0543,498.06,538.44
57.0743,496.25,539.96
57.0943,497.2,540.56
57.1143,496.56,539.25
57.1343,497.25,538.8
57.1544,496.6,537.24
57.1743,495.88,536.39
57.1944,496.5,535.91
57.2144,495.6,534.93
57.2344,496.88,534.35
57.2543,495.11,534.88
57.2743,494.88,534.1
57.2943,495.91,533.48
57.3143,496.13,532.78
57.3343,496.7,532.83
57.3544,496.36,534.06
57.3743,495.69,534.85
57.3944,495.35,535.28
57.4143,494.08,534.82
57.4345,495.46,534.66
57.4543,494.17,533.13
57.4744,495.34,531.9
57.4943,495.07,531.92
57.5143,495.06,532.94
57.5343,495.44,534.15
57.5543,493.96,534.12
57.5743,494.16,534.3
57.5944,496.73,534.04
57.6143,495.39,535.03
57.6343,493.51,535.42
57.6543,494.41,535.14
57.6743,494.33,535.51
57.6943,496.46,535.01
57.7143,497.77,534.61
57.7343,497.21,534.69
57.7544,495.37,534.35
57.7745,493.5,535.08
57.7954,493.6,534.46
57.8152,493.08,534.97
57.8353,493.86,534.98
57.8554,493.49,533.78
57.8753,493.79,533.42
57.8953,493.63,533.54
57.9154,493.71,532.63
57.9352,493.57,533.91
57.9554,493.05,534.52
57.9754,492.44,534.42
57.9954,494.35,534.14
58.0152,494.88,533.91
58.0354,496.71,533.93
58.0554,496.17,533.74
58.0764,496.73,533.99
58.0972,495.59,533.39
58.1175,495.07,534.52
58.1373,495.05,534.21
58.1572,494.64,534.17
58.1773,496.12,534.74
58.1973,497.09,534.39
58.2173,496.47,534.11
58.2383,497.78,533.49
58.2592,497.02,534.79
58.2794,495.82,535.43
58.3004,495.45,536.75
58.3204,496.16,537.2
58.3415,496.73,537.96
58.3624,496.78,540.37
58.3824,494.83,542.29
58.4023,494.86,544.43
58.4223,496.09,544.15
58.4423,496.47,544.72
58.4623,496.58,544.17
58.4823,497.46,545.14
58.5023,497.57,545.71
58.5223,497.46,548.97
58.5423,497.76,552.38
58.5625,497.61,562.9
58.5824,496.29,581.92
58.6033,493.83,604.34
58.6233,492.47,619.67
58.6433,493.57,620.14
58.6633,495.06,608.51
58.6832,495.65,593.21
58.7033,499.92,573.57
58.7233,501.33,554.05
58.7433,502.07,538.24
58.7633,502.65,525.19
58.7832,502.72,515.15
58.8032,502.78,508.32
58.8233,503.62,505.66
58.8433,503.5,504.73
58.8633,504.8,505.78
58.8833,504.64,509.03
58.9033,503.91,512.22
58.9233,502.93,516.38
58.9433,502.54,520.9
58.9633,502.63,525.12
58.9833,500.71,530.1
59.0034,500.77,534.48
59.0235,500.41,540.18
59.0432,500.93,544.55
59.0633,500.74,547.44
59.0834,499.6,549.35
59.1034,500.28,550.08
59.1233,500.62,551.46
59.1433,500.3,551.77
59.1635,500.64,552.02
59.1832,500.31,553.81
59.2034,498.65,554.65
59.2235,498.52,555.32
59.2433,497.61,555.66
59.2634,498.29,555.33
59.2833,498.23,554.66
59.3034,497.59,553.73
59.3233,498.47,552.38
59.3433,499.38,551.71
59.3633,497.3,552.96
59.3833,495.04,552.77
59.4033,493.83,552.62
59.4234,493.87,553.69
59.4432,496.49,552.16
59.4632,497.99,552.52
59.4834,500.6,552.02
59.5034,500.68,551.82
59.5235,500.14,552.25
59.5433,500.11,554.4
59.5632,501.49,556.72
59.5834,501.19,558.38
59.6034,500.75,559.9
59.6234,501.2,560.32
59.6433,501.16,562.46
59.6633,500.53,562.77
59.6833,502.02,565.01
59.7032,502.42,565.21
59.7233,503.94,565.37
59.7432,502.15,564.49
59.7632,502.92,562.4
59.7833,504.13,560.52
59.8033,505.51,560.01
59.8233,504.21,557.21
59.8434,501.17,554.37
59.8633,501.93,553.69
59.8832,500.15,549.76
59.9032,499.72,548.4
59.9234,500.77,545.12
59.9433,500.62,543.3
59.9632,500.09,542.84
59.9835,500.08,544.47
60.0034,501.46,545.18
60.0234,503.97,545.94
60.0433,503.57,545.95
60.0632,505.86,546.56
60.0832,505.29,545.45
60.1035,508.03,544.56
60.1233,506.02,540.65
60.1432,505.82,540.92
60.1633,506.46,538.13
60.1833,506.56,535.71
60.2033,504.85,536.37
60.2232,501.68,537.09
60.2432,499.74,535.87
60.2633,498.2,535.5
60.2843,498.96,536.2
60.3043,501.37,538.56
60.3243,499.49,539.45
60.3455,497.99,540.96
60.3653,497.2,541.17
60.3855,496.56,541.53
60.4056,497.04,542.43
60.4254,497.04,543.14
60.4454,497.03,544.51
60.4656,498.82,543.21
60.4856,501.06,542.97
60.5052,500.65,542.57
60.5253,500.72,542.46
60.5453,502.17,542.37
60.5652,502.34,542.09
60.5852,501.27,542.88
60.6054,499.02,541.7
60.6253,498.01,541.56
60.6454,500.41,539.45
60.6664,496.53,536.56
60.6863,495.62,534.65
60.7074,491.5,533.72
60.7273,493.6,532.37
60.7472,492.68,538.1
60.7674,493.94,541.28
60.7875,496.75,540.82
60.8072,493,539.66
60.8273,498,539.13
60.8472,500.4,542.3
60.8674,499.12,540.64
60.8884,499.7,543.11
60.9094,500.36,544.09
60.9292,499.29,542.07
60.9496,496.03,541.06
60.9704,495.02,539.25
60.9905,495.02,540
61.0105,495.41,540.2
61.0305,493.53,540.96
61.0503,491.83,540.17
61.0704,492.46,535.93
61.0902,491.97,533.35
61.1102,492.97,531.68
61.1303,494.98,533.14
61.1502,497.18,535.51
61.1703,496.35,535.61
61.1913,498.28,535.49
61.2114,499.82,536.39
61.2323,500.66,536.91
61.2522,500.53,536.93
61.2722,501.82,536.34
61.2923,502.06,536.68
61.3122,502.25,536.54
61.3334,500.8,539.23
61.3542,499.84,539.79
61.3742,500.07,540.23
61.3943,499.46,542.18
61.4142,498.56,543.95
61.4342,497.65,545.56
61.4543,497.12,545.65
61.4743,497.1,546.32
61.4953,495.88,546.45
61.5163,495.1,547.16
61.5363,493.28,547.93
61.5566,493.03,548.74
61.5765,492.62,550.8
61.5963,492.9,552.24
61.6162,494.12,555.19
61.6362,495.09,557.75
61.6562,496.47,559.2
61.6763,498.78,560.96
61.6964,498.42,562.17
61.7162,497.74,563.73
61.7362,497.99,565.19
61.7563,498.79,562.95
61.7763,498.43,560.36
61.7963,499.15,557.69
61.8164,498.92,555.75
61.8363,498.93,555.4
61.8563,498.15,554.32
61.8762,496.72,552.06
61.8966,496.37,551.65
61.9163,496.1,550.32
61.9365,496.28,548.85
61.9563,496.82,548.48
61.9763,497.86,548.79
61.9965,497.09,549.43
62.0163,497.67,550.14
62.0362,498.74,547.91
62.0564,501.19,547.73
62.0764,501.35,546.59
62.0964,500.88,546.27
62.1164,501.1,546.21
62.1363,501.08,544.97
62.1562,500.87,546.18
62.1763,498.09,544.54
62.1963,496.67,542.43
62.2163,497.94,544.75
62.2362,496.55,544.2
62.2562,497.24,543.76
62.2763,497.19,544.41
62.2963,497.55,544.93
62.3163,499.24,545.94
62.3362,499.79,548.15
62.3562,499.44,548.72
62.3764,500.55,549.98
62.3962,500.64,552.38
62.4162,500.51,551.71
62.4362,499.21,552.36
62.4564,499.77,552.49
62.4762,499.21,551.79
62.4963,499.77,552.23
62.5163,499.82,552.39
62.5364,499.25,551.31
62.5563,499.8,551.05
62.5765,498.84,549.04
62.5963,498.67,548.43
62.6163,496.74,546.94
62.6365,498.79,545.36
62.6563,497.63,543.28
62.6763,500.11,545.23
62.6962,501.69,547.18
62.7163,505.95,549.55
62.7363,507.56,548.04
62.7564,505.65,549.63
62.7762,505.92,548.9
62.7962,505.13,549.12
62.8164,504.91,548.7
62.8363,502.93,549.16
62.8562,501.34,549.13
62.8765,501.47,548.9
62.8963,500.58,545.92
62.9165,499.26,543.54
62.9362,500.01,542.63
62.9562,497.81,541.3
62.9762,496.85,542.04
62.9962,497.08,542.23
63.0163,497.86,543.79
63.0364,498.69,545.63
63.0562,498.95,547.1
63.0762,498.76,547.48
63.0962,499.61,547.59
63.1164,502.29,548.67
63.1363,500.83,548.34
63.1563,500.46,548.87
63.1774,500.17,549.09
63.1973,498.74,547.68
63.2174,499.59,547.34
63.2373,497.67,547.87
63.2573,497.14,548.9
63.2782,497.31,547.52
63.2982,497.25,546.61
63.3182,497.6,547.29
63.3383,498.28,547.03
63.3582,501.62,549.03
63.3783,504.3,551.62
63.3985,506.64,551.5
63.4184,508.11,552.2
63.4382,507.09,552.96
63.4582,506.07,553.17
63.4782,505.06,553.33
63.4982,505.65,552.07
63.5182,504.52,551.05
63.5383,505.01,552.04
63.5594,505.21,549.83
63.5793,504.97,551.67
63.5994,504.17,548.93
63.6193,502.94,549.35
63.6393,502.35,551.08
63.6592,502.28,550.06
63.6793,499.63,551.65
63.6993,498.3,550.52
63.7192,499.64,548.62
63.7396,499.31,546.69
63.7592,497.85,543.55
63.7792,498.88,540.64
63.7992,498.5,541.51
63.8194,498.4,544.41
63.8395,498.12,546.53
63.8592,496.1,546.22
63.8793,494.48,544.38
63.8994,495.58,545.5
63.9194,495.87,544.8
63.9393,497.89,544.04
63.9593,495.51,544.63
63.9793,495.81,546.51
63.9992,494.65,546.21
64.0193,494.32,546.36
64.0396,493.06,544.69
64.0592,494.84,543.55
64.0793,493.28,540.84
64.0994,493.42,540.87
64.1193,494.34,542.3
64.1392,495.47,547.64
64.1592,495.98,547.91
64.1792,495.58,551.53
64.1992,493.26,551.02
64.2193,492.41,551.42
64.2392,492.93,549.33
64.2593,494.54,549.67
64.2793,495.63,550.73
64.2993,496.71,548.99
64.3195,497.37,547.59
64.3392,496.49,548.07
64.3595,497.59,548.06
64.3793,496.08,546.65
64.3994,494.86,543.72
64.4192,495.49,542.17
64.4392,496.99,540.34
64.4603,497.39,537.87
64.4802,497.71,537.3
64.5003,497.57,536.04
64.5202,495.86,538.23
64.5402,498.09,537.98
64.5603,498.67,538.59
64.5813,498.73,537.87
64.6012,498.39,539.3
64.6212,494.51,539.84
64.6412,494.01,539.07
64.6612,493.61,537.06
64.6812,492.89,534.64
64.7013,490.91,535.92
64.7217,491.73,534.73
64.7414,495.18,536.39
64.7616,494.15,536.31
64.7813,495.32,532.85
64.8012,494.85,531.88
64.8212,494.88,529.7
64.8412,496.11,531.56
64.8612,495.08,531.45
64.8814,495.07,533.16
64.9011,498.25,538.93
64.9213,497.8,540.74
64.9414,497.24,537.99
64.9612,497.39,536.59
64.9818,500.72,534.48
65.0014,499.37,532.78
65.0215,498.1,535.62
65.0414,498.48,535.3
65.0614,499.18,535.84
65.0816,498.95,533.87
65.1012,500.36,532.9
65.1213,499.09,530.52
65.1412,497.87,529.81
65.1613,498.49,531.65
65.1813,497.6,534.32
65.2013,497.48,537.26
65.2214,496.58,540.01
65.2413,496.27,542.8
65.2614,495.01,542.84
65.2815,496.01,544.67
65.3012,497.61,546.74
65.3212,497.49,544.99
65.3413,500.19,543.59
65.3615,501.95,543.47
65.3812,502.16,542.18
65.4012,501.33,539.14
65.4214,499.66,536.72
65.4415,498.73,535.97
65.4615,497.18,535.98
65.4818,497.55,538.98
65.5016,496.04,539.39
65.5212,496.63,542.11
65.5413,495.3,543.09
65.5612,495.24,543.87
65.5812,493.59,541.3
65.602,491.88,542.44
65.6212,493.3,543.55
65.6412,493.24,542.24
65.6613,492.79,539.99
65.6814,494.63,538.99
65.7013,496.31,535.79
65.7213,496.45,533.24
65.7412,496.16,529.99
65.7614,495.13,527.79
65.7813,494.3,528.83
65.8013,493.64,530.87
65.8212,495.91,532.89
65.8418,497.93,533.31
65.8613,498.14,533.85
65.8814,498.12,535.08
65.9011,498.09,534.26
65.9214,497.87,534.41
65.9411,495.7,534.33
65.9612,496.36,534.86
65.9812,493.29,531.09
66.0015,493.03,531.07
66.0212,493.82,530.86
66.0412,493.26,532.89
66.0613,494.81,531.71
66.0812,494.85,532.37
66.1016,495.88,533.49
66.1214,495.7,532
66.1413,496.56,531.6
66.1622,496.85,532.08
66.1821,496.48,531.46
66.2023,494.98,530.37
66.2222,494.79,531.1
66.2423,495.43,531.48
66.2622,491.74,532.18
66.2825,492.99,531.74
66.3022,492.8,530.2
66.3221,492.44,530.76
66.3426,492.95,530.61
66.3624,492.96,532.08
66.3822,494.77,532.07
66.4022,494.61,532.25
66.4224,494.29,533.6
66.4424,495.23,533.68
66.4624,494.79,532.95
66.4824,493.83,531.36
66.5025,494.66,532.69
66.5222,492.73,534.55
66.5422,494.58,534.04
66.5626,493.67,532.43
66.5821,495.53,533.74
66.6024,494.43,535.2
66.6222,495.14,533.96
66.6424,494.91,536.37
66.6622,493.73,537.49
66.6822,493.98,537.59
66.7022,492.79,536.88
66.7232,494.03,537.9
66.7432,493.22,540.12
66.7633,493.38,539.7
66.7833,493.5,538.56
66.8041,493.6,538.65
66.8242,493.08,538.32
66.8444,494.67,538.45
66.8641,493.93,537.96
66.8842,493.35,538.77
66.9042,493.08,538.02
66.9243,493.46,538.01
66.9441,493.37,536.61
66.9642,495.9,536.69
66.9842,494.52,537.75
67.0042,494.01,537
67.0242,493.21,538.2
67.0443,492.97,538.96
67.0642,493.37,536.57
67.0842,496.9,538.65
67.1042,498.32,537.32
67.1243,499.46,538.26
67.1442,499.16,538.01
67.1642,498.73,536.61
67.1842,497.19,536.88
67.2052,496.75,537.71
67.2254,497.4,538.37
67.2463,498.52,539.09
67.2662,498.42,540.27
67.2862,500.13,542.02
67.3063,500.71,542.02
67.3264,502.36,540.41
67.3463,503.29,540.93
67.3663,503.43,542.34
67.3862,503.15,541.48
67.4062,503.92,542.58
67.4262,501.73,541.86
67.4462,501.99,541.09
67.4662,500.59,542.07
67.4862,500.27,543.06
67.5061,500.62,543.05
67.5262,499.49,543.44
67.5463,498.2,542.95
67.5662,497.16,541.96
67.5864,497.32,544.37
67.6063,497.66,544.89
67.6262,499.33,544.52
67.6462,500.26,545.41
67.6662,500.61,545.73
67.6862,498.09,545.98
67.7063,499.47,548.19
67.7263,498.58,546.55
67.7462,497.86,545.84
67.7664,496.29,544.47
67.7864,495.03,545.18
67.8065,494.82,546.54
67.8262,493.86,546.43
67.8463,493.89,546.35
67.8663,495.71,546.88
67.8862,497.57,545.9
67.9063,497.85,545.12
67.9264,497.68,546.1
67.9463,497.75,545.48
67.9662,498.2,547.78
67.9864,498.76,548.43
68.0064,498.41,547.74
68.0264,499.93,548.39
68.0462,501.14,547.91
68.0664,498.91,548.33
68.0862,498.13,549.26
68.1063,497.5,547.41
68.1263,497.4,546.73
68.1462,496.52,545.58
68.1666,497.22,546.07
68.1864,497.17,545.25
68.2064,497.14,544.6
68.2262,496.51,545.68
68.2462,497.61,545.95
68.2664,498.29,545.76
68.2864,497.63,545.01
68.3063,497.7,543.8
68.3263,498.56,542.64
68.3463,498.45,543.11
68.3662,498.36,543.49
68.3862,499.09,542.99
68.4061,497.07,544.59
68.4263,499.06,545.68
68.4463,499.45,545.54
68.4662,500.56,546.43
68.4863,501.24,546.75
68.5063,501.2,546
68.5262,500.76,546.8
68.5467,499.61,546.64
68.5662,500.08,546.31
68.5862,499.47,546.65
68.6062,500.17,544.92
68.6262,500.74,543.53
68.6462,500.99,542.63
68.6663,500.59,542.1
68.6864,501.87,541.28
68.7065,502.1,540.43
68.7263,502.08,539.34
68.7462,501.66,539.67
68.7663,501.93,539.14
68.7862,500.94,540.91
68.8063,500.56,540.53
68.8262,501.44,542.22
68.8463,500.16,541.58
68.8662,500.12,541.66
68.8862,499.1,541.53
68.9064,498.68,543.02
68.9264,498.54,542.62
68.9463,498.24,542.5
68.9664,498.59,541.6
68.9863,497.67,541.28
69.0064,496.94,540.62
69.0263,496.15,538.5
69.0464,497.92,538.6
69.0663,498.14,540.28
69.0863,499.71,540.22
69.1064,500.77,541.18
69.1262,500.81,542.34
69.1463,500.65,542.87
69.1662,501.52,542.7
69.1862,501.82,541.76
69.2064,501.25,542.81
69.2263,500.2,545.25
69.2462,498.56,547
69.2662,496.25,546
69.2863,497.2,547.6
69.3063,496.56,548.68
69.3264,497.65,549.74
69.3462,499.52,548.99
69.3662,501.61,550.2
69.3861,500.29,552.56
69.4062,498.83,555.24
69.4263,499.87,556.4
69.4462,499.29,555.92
69.4661,499.03,555.13
69.4863,499.03,554.11
69.5063,497.42,551.69
69.5261,497.94,548.35
69.5462,497.95,548.28
69.5662,500.16,549.82
69.5863,501.33,549.66
69.6063,503.06,549.33
69.6261,502.45,549.66
69.6463,502.96,549.53
69.6663,502.57,552.62
69.6862,503.05,553.1
69.7062,503.04,554.88
69.7272,502.83,553.5
69.7473,503.47,554.2
69.7672,503.57,550.96
69.7872,501.66,550.17
69.8082,503.93,549.94
69.8282,503.54,548.55
69.8485,503.03,550.64
69.8681,504.03,551.91
69.8882,501.22,551.33
69.9082,502.78,551.26
69.9281,501.22,548.81
69.9483,499.78,546.65
69.9681,496.82,547.12
69.9881,498.86,547.49
70.0082,497.89,544.8
70.0292,498.71,540.44
70.0502,499.57,536.95
70.0704,497.85,535.56
70.0902,498.08,534.25
70.1101,494.67,537.2
70.1301,492.93,536.16
70.1502,495.15,535.33
70.1701,497.92,536.26
70.1901,499.73,536.01
70.2101,499.19,535.01
70.2302,501.15,534.81
70.2512,501.32,533.04
70.2714,503.06,531.64
70.2912,503.84,531.71
70.3112,504.88,532.17
70.3314,503.5,530.33
70.3511,500.8,526.87
70.3714,499.84,526.29
70.3913,496.27,524.23
70.4111,496.82,523.79
70.4313,497.65,527.43
70.4512,496.92,527.94
70.4712,495.54,526.36
70.4913,495.83,524.68
70.5112,498.06,525.55
70.5311,497.25,522.24
