Program Time [s],data 0,data 1
69.96014,495.00,507.80
69.97930,496.34,508.79
70.00025,497.69,507.52
70.02020,501.38,508.91
70.03940,502.18,508.05
70.05950,503.05,511.80
70.08049,501.27,509.34
70.10108,503.50,508.89
70.11962,503.45,508.66
70.13919,506.08,511.22
70.16026,505.57,508.74
70.17939,503.73,510.54
70.19911,504.95,508.44
70.22055,505.74,507.23
70.24050,506.81,507.83
70.25993,506.40,508.67
70.28036,506.02,507.08
70.29900,507.22,511.78
70.32096,504.66,510.24
70.34048,505.39,508.60
70.35934,507.09,507.24
70.38037,505.95,507.78
70.40031,505.68,509.54
70.41956,504.05,507.94
70.44081,503.02,509.69
70.45939,507.34,509.64
70.48095,505.38,511.58
70.50041,509.86,508.02
70.51971,508.03,510.28
70.53926,506.80,509.95
70.56003,507.01,506.97
70.58092,509.44,507.94
70.59995,508.62,507.21
70.62009,506.15,508.24
70.64004,507.52,509.75
70.66019,507.20,510.15
70.68054,510.47,510.17
70.70005,508.85,509.53
70.72045,509.30,508.93
70.74076,509.82,510.91
70.76076,507.83,508.91
70.78090,506.64,512.00
70.79949,508.19,510.84
70.81975,502.91,509.74
70.83973,505.81,508.39
70.86010,506.73,508.24
70.88009,504.63,511.85
70.89927,505.19,507.78
70.92032,504.44,509.48
70.93942,506.07,509.61
70.95984,505.81,511.68
70.97918,502.58,509.14
71.00018,504.89,512.42
71.01994,501.30,510.79
71.03965,504.67,510.09
71.05921,503.09,511.68
71.08036,500.83,508.51
71.10105,503.21,507.88
71.12033,500.76,510.38
71.14079,505.21,508.44
71.16083,504.08,509.37
71.18094,504.60,511.77
71.19988,506.32,510.88
71.22080,504.88,511.21
71.24023,505.93,511.53
71.26059,505.06,511.16
71.28067,504.77,510.79
71.30007,503.76,512.16
71.32025,505.29,510.99
71.34046,506.41,512.54
71.36024,504.22,509.53
71.37957,504.33,509.07
71.39982,502.59,509.11
71.42051,504.86,510.66
71.43950,504.14,508.01
71.46082,502.15,510.39
71.48045,504.45,513.20
71.50198,501.77,506.77
71.52032,503.28,491.42
71.54157,501.41,472.18
71.56228,497.81,450.64
71.58160,495.32,429.01
71.60252,487.61,409.08
71.62236,482.25,392.47
71.64230,481.25,378.91
71.66232,479.41,367.84
71.68323,481.06,362.77
71.70226,482.24,360.13
71.72316,483.22,364.52
71.74312,484.62,369.89
71.76332,483.32,374.75
71.78395,485.24,386.10
71.80459,484.05,396.99
71.82375,485.82,408.39
71.84313,489.39,419.98
71.86435,490.29,429.34
71.88380,488.81,437.75
71.90381,489.13,447.87
71.92493,489.96,455.79
71.94290,491.05,463.29
71.96371,490.27,469.10
71.98449,491.22,474.35
72.00509,488.80,478.81
72.02432,491.58,482.61
72.04482,490.39,486.33
72.06492,488.77,487.26
72.08398,491.11,490.70
72.10376,489.58,491.13
72.12445,489.94,494.38
72.14413,491.95,495.61
72.16348,490.13,497.43
72.18421,490.35,496.62
72.20383,492.30,499.51
72.22323,488.06,498.02
72.24323,487.82,501.74
72.26375,491.90,500.78
72.28311,493.81,515.06
72.30371,499.24,544.13
72.32485,501.61,579.46
72.34483,503.35,616.79
72.36326,504.51,644.22
72.38488,506.44,666.62
72.40477,512.26,679.01
72.42352,512.90,674.21
72.44324,516.08,665.67
72.46454,513.38,649.32
72.48463,513.27,635.50
72.50428,512.37,616.40
72.52467,511.16,603.05
72.54390,507.58,588.15
72.56370,508.31,575.30
72.58432,506.63,566.33
72.60417,501.70,558.76
72.62388,501.51,552.44
72.64465,497.17,543.65
72.66408,496.51,540.69
72.68320,496.05,534.09
72.70490,496.21,531.36
72.72351,494.58,528.44
72.74492,492.93,522.48
72.76399,493.07,521.01
72.78333,494.73,521.14
72.80368,492.98,516.83
72.82447,492.44,516.63
72.84479,494.43,513.22
72.86404,493.02,514.56
72.88414,493.61,511.17
72.90475,492.24,511.90
72.92404,494.56,508.84
72.94384,492.05,506.98
72.96429,491.11,506.84
72.98304,492.90,507.00
73.00313,491.57,508.90
73.02415,493.27,507.76
73.04382,495.44,504.59
73.06416,491.78,508.47
73.08329,491.45,504.91
73.10480,489.36,507.81
73.12508,488.22,507.55
73.14442,488.48,506.02
73.16363,490.37,509.83
73.18411,489.87,505.00
73.20434,488.16,506.12
73.22484,492.55,506.25
73.24361,488.92,506.30
73.26350,492.09,508.94
73.28382,492.17,508.98
73.30338,494.03,508.62
73.32391,495.19,507.21
73.34410,494.66,507.29
73.36410,494.35,509.06
73.38479,494.98,506.08
73.40353,494.09,507.28
73.42439,492.92,506.26
73.44303,496.34,503.66
73.46335,493.94,504.42
73.48408,490.89,504.09
73.50469,491.71,504.12
73.52471,492.15,505.79
73.54441,493.95,506.76
73.56410,490.96,506.76
73.58462,491.98,503.74
73.60333,491.04,505.00
73.62513,489.13,504.63
73.64406,490.34,503.66
73.66455,491.64,505.34
73.68549,488.48,504.18
73.70570,488.19,504.72
73.72465,488.07,500.83
73.74468,484.94,500.09
73.76567,483.92,503.17
73.78566,485.75,503.50
73.80555,482.19,502.15
73.82474,482.43,500.58
73.84433,481.90,503.79
73.86594,485.47,503.12
73.88487,486.41,502.69
73.90486,485.53,503.26
73.92394,490.30,502.90
73.94602,490.20,504.03
73.96697,491.36,502.00
73.98691,490.97,500.76
74.00658,492.82,502.18
74.02716,491.63,500.79
74.04809,491.30,498.30
74.06751,489.70,501.34
74.08802,489.58,498.97
74.10664,489.36,497.02
74.12800,489.65,497.40
74.14615,488.21,500.03
74.16704,488.25,498.39
74.18657,485.09,498.44
74.20613,488.01,498.30
74.22659,489.31,498.57
74.24686,489.74,499.65
74.26670,487.86,500.59
74.28685,486.70,498.75
74.30722,488.00,499.64
74.32801,490.06,499.09
74.34616,486.60,499.04
74.36746,488.49,500.95
74.38738,486.81,500.37
74.40704,487.54,499.52
74.42813,485.66,500.81
74.44797,484.96,500.95
74.46790,485.42,500.63
74.48896,482.36,500.49
74.50756,487.02,498.30
74.52728,484.77,500.47
74.54859,487.80,501.72
74.56896,486.05,500.71
74.58784,484.22,499.00
74.60842,485.42,501.96
74.62741,486.55,499.91
74.64828,489.06,501.54
74.66942,489.19,501.52
74.69086,487.78,499.66
74.70935,489.95,501.28
74.72964,490.25,499.50
74.75041,492.23,498.11
74.77209,490.95,501.19
74.79072,489.67,501.20
74.81063,488.99,499.48
74.83069,489.52,500.70
74.85052,490.21,497.65
74.87212,489.13,498.41
74.89117,487.60,499.44
74.91154,488.94,497.17
74.93049,488.35,495.23
74.95162,486.60,499.39
74.97097,487.03,498.59
74.99042,488.13,495.86
75.01091,486.30,496.19
75.03113,487.71,494.89
75.05310,487.30,493.00
75.07208,488.78,492.08
75.09234,492.78,493.49
75.11311,490.36,493.31
75.13292,492.86,494.42
75.15222,494.39,493.28
75.17242,493.50,497.61
75.19309,494.54,494.60
75.21244,491.79,488.85
75.23422,494.66,475.57
75.25337,494.62,462.58
75.27238,493.01,447.48
75.29276,489.55,434.40
75.31423,488.46,415.54
75.33317,483.92,404.46
75.35429,482.79,394.86
75.37508,481.61,386.24
75.39332,480.21,379.29
75.41403,480.82,375.73
75.43389,481.11,375.15
75.45470,485.45,380.46
75.47414,484.69,385.20
75.49356,485.59,391.01
75.51295,488.63,395.80
75.53380,489.25,405.27
75.55470,490.21,411.64
75.57453,491.96,420.00
75.59450,495.05,426.80
75.61460,493.40,438.03
75.63448,495.15,441.00
75.65373,496.30,449.00
75.67446,496.45,459.19
75.69474,499.25,462.26
75.71385,498.66,469.42
75.73495,497.68,471.33
75.75439,497.32,478.80
75.77444,498.43,484.24
75.79345,501.88,512.77
75.81422,503.16,547.88
75.83318,462.22,595.10
75.85440,473.15,634.23
75.87330,485.28,665.33
75.89448,491.51,683.36
75.91464,495.70,685.00
75.93389,500.13,676.58
75.95357,501.41,661.26
75.97463,503.41,644.14
75.99365,502.02,626.12
76.01463,504.98,610.18
76.03341,503.51,594.37
76.05406,503.89,582.12
76.07389,502.74,571.18
76.09325,502.67,561.17
76.11350,503.87,553.21
76.13364,501.39,548.85
76.15425,498.82,539.65
76.17315,499.58,533.88
76.19324,499.72,529.67
76.21307,498.41,526.30
76.23391,499.53,523.70
76.25414,498.33,520.94
76.27449,498.56,521.20
76.29474,498.86,516.42
76.31317,494.36,514.94
76.33475,493.85,514.26
76.35305,493.78,509.53
76.37406,494.54,512.43
76.39424,492.41,509.48
76.41307,492.71,509.84
76.43330,494.73,505.03
76.45365,495.85,505.24
76.47331,493.49,504.53
76.49389,496.47,507.07
76.51515,498.76,505.52
76.53564,498.79,506.91
76.55708,497.11,506.27
76.57502,497.71,506.01
76.59591,500.08,507.35
76.61592,500.95,505.68
76.63680,497.51,507.05
76.65509,496.87,506.32
76.67684,499.76,507.28
76.69599,503.20,505.14
76.71623,504.24,503.90
76.73673,501.77,506.63
76.75521,503.52,503.99
76.77604,501.06,502.61
76.79585,504.06,503.86
76.81691,503.97,504.20
76.83637,504.72,507.43
76.85656,503.16,504.99
76.87490,504.33,504.61
76.89591,504.93,506.10
76.91509,503.18,502.18
76.93680,505.09,502.14
76.95785,502.53,502.54
76.97664,503.05,501.69
76.99593,507.28,505.75
77.01707,504.31,506.53
77.03739,506.76,508.53
77.05765,505.33,507.72
77.07767,507.72,506.37
77.09624,509.28,509.32
77.11649,506.60,506.18
77.13731,504.99,505.34
77.15734,505.18,505.91
77.17622,507.15,506.86
77.19627,506.58,505.13
77.21788,504.86,502.95
77.23639,503.92,507.20
77.25658,505.14,505.52
77.27713,505.20,503.30
77.29709,503.94,502.98
77.31722,502.43,504.19
77.33739,503.14,504.18
77.35789,503.58,504.95
77.37723,503.26,506.26
77.39672,504.94,502.87
77.41687,503.69,504.94
77.43770,502.15,505.48
77.45605,502.44,505.13
77.47690,503.65,506.26
77.49604,501.99,504.61
77.51657,503.41,505.74
77.53614,503.17,505.42
77.55607,503.58,507.28
77.57615,502.70,506.14
77.59777,504.70,505.94
77.61663,502.87,502.60
77.63675,503.08,505.88
77.65644,503.95,503.25
77.67689,502.58,503.96
77.69703,506.10,504.10
77.71735,507.06,507.47
77.73675,503.44,504.46
77.75769,505.06,503.54
77.77667,504.15,503.26
77.79734,505.81,503.91
77.81647,505.90,504.17
77.83764,503.75,502.18
77.85793,505.72,502.60
77.87759,504.49,504.46
77.89759,505.01,505.66
77.91758,505.77,504.74
77.93647,505.62,503.63
77.95736,503.28,501.99
77.97740,503.24,502.58
77.99695,502.59,504.32
78.01627,503.67,504.11
78.03685,505.06,501.96
78.05643,504.72,502.21
78.07720,504.50,500.69
78.09725,503.50,501.95
78.11771,504.83,501.88
78.13761,503.81,501.04
78.15739,502.67,500.88
78.17785,502.91,502.24
78.19766,504.43,503.08
78.21765,501.96,499.73
78.23663,504.97,502.57
78.25659,502.15,501.14
78.27689,504.59,500.60
78.29699,501.89,502.09
78.31655,503.67,500.16
78.33733,501.27,502.74
78.35668,501.36,503.08
78.37746,502.88,501.37
78.39604,502.82,501.18
78.41678,503.89,502.27
78.43664,505.71,500.50
78.45648,504.82,502.17
78.47762,502.66,500.91
78.49758,501.33,503.99
78.51753,503.82,503.07
78.53755,502.57,503.63
78.55692,499.84,503.71
78.57763,500.78,504.62
78.59768,503.36,504.77
78.61765,503.60,503.69
78.63682,502.58,500.92
78.65648,500.73,504.02
78.67656,499.29,501.18
78.69651,498.77,503.51
78.71626,499.75,500.50
78.73627,500.47,500.76
78.75591,500.94,502.19
78.77757,501.37,502.26
78.79761,502.69,502.33
78.81685,499.55,503.81
78.83697,501.72,504.88
78.85634,501.97,504.15
78.87791,501.52,503.15
78.89590,502.98,503.51
78.91724,503.80,503.15
78.93657,503.02,503.48
78.95710,501.61,505.86
78.97737,503.85,502.75
78.99677,504.77,504.91
79.01601,502.46,501.80
79.03695,501.23,504.12
79.05782,502.01,503.67
79.07683,504.16,501.46
79.09684,505.54,504.29
79.11779,494.60,504.45
79.13698,498.69,500.25
79.15793,500.21,499.27
79.17691,501.70,500.88
79.19733,500.97,501.12
79.21742,503.84,501.28
79.23575,506.84,502.92
79.25749,507.77,501.46
79.27719,505.28,494.84
79.29631,508.35,484.90
79.31658,508.64,468.13
79.33727,504.04,447.69
79.35727,503.96,431.01
79.37681,503.04,412.02
79.39766,503.41,397.00
79.41725,500.02,383.64
79.43694,497.92,376.54
79.45711,498.80,367.28
79.47681,495.98,366.03
79.49715,497.89,364.72
79.51640,496.48,366.86
79.53743,497.67,374.11
79.55715,498.96,379.92
79.57645,501.24,391.23
79.59784,501.95,397.23
79.61778,498.62,407.92
79.63798,499.29,416.03
79.65857,500.32,428.10
79.67727,501.16,436.96
79.69726,504.78,442.97
79.71932,502.97,451.93
79.73895,505.95,462.40
79.75988,506.57,469.30
79.77939,502.54,474.45
79.79959,502.43,475.39
79.81896,502.23,483.31
79.83892,504.17,485.18
79.85981,502.45,487.12
79.87863,501.22,505.08
79.89913,504.70,535.46
79.91810,506.92,570.67
79.93904,509.68,611.17
79.95809,510.47,648.65
79.97872,509.16,674.17
79.99846,511.52,686.74
80.01908,512.06,694.60
80.03829,511.16,688.45
80.05843,512.45,674.71
80.07975,512.82,655.05
80.09879,508.85,634.65
80.11803,507.56,614.99
80.14449,506.35,596.65
80.15867,506.17,579.93
80.17831,508.25,569.44
80.19968,505.17,555.78
80.22001,504.81,550.37
80.24040,503.13,543.62
80.26036,502.74,536.81
80.27994,502.74,533.51
80.29940,505.76,528.62
80.31986,505.34,522.98
80.34046,507.29,519.67
80.36072,509.39,516.53
80.37946,507.49,514.69
80.39898,509.07,512.64
80.42016,507.33,512.99
80.43908,509.45,511.92
80.46000,507.35,512.10
80.48010,507.76,513.51
80.49898,505.68,512.09
80.51924,505.42,510.27
80.53967,503.93,512.42
80.56010,502.83,511.33
80.57943,506.42,512.91
80.59960,504.35,511.69
80.62079,504.68,512.46
80.63982,507.08,512.06
80.66020,507.74,511.06
80.67910,507.52,511.48
80.69943,510.24,513.35
80.72089,506.67,513.39
80.73906,505.07,513.80
80.76016,506.05,513.19
80.77954,506.90,511.61
80.79911,506.02,509.82
80.82083,504.34,511.53
80.83953,507.02,510.99
80.86079,503.78,512.67
80.88083,507.13,508.36
80.89943,505.39,511.61
80.92057,506.79,509.82
80.93961,506.40,511.32
80.96000,509.20,507.99
80.97966,509.55,510.61
81.00050,505.45,508.10
81.02045,509.85,509.33
81.03972,508.60,510.01
81.06090,508.24,511.50
81.07937,506.97,508.80
81.10021,507.32,508.98
81.12001,507.48,509.61
81.14050,506.30,511.55
81.16037,504.37,511.29
81.17978,504.71,513.58
81.20088,505.47,510.76
81.21900,506.10,511.53
81.24036,503.91,510.70
81.25903,504.46,510.02
81.27920,502.07,511.64
81.30032,505.64,512.76
81.31909,506.61,511.30
81.33935,507.06,510.54
81.36068,506.86,509.91
81.37915,505.61,512.59
81.40019,503.55,511.44
81.42074,505.61,510.46
81.44060,505.99,509.38
81.45972,504.12,511.38
81.48059,506.95,509.51
81.49948,505.06,509.81
81.52009,506.75,508.95
81.53955,504.78,507.98
81.55983,505.60,507.85
81.58021,505.58,509.93
81.60001,506.81,506.67
81.61871,506.08,509.96
81.64018,506.84,507.22
81.66026,506.45,508.68
81.67988,503.58,505.90
81.69957,506.10,505.71
81.72055,507.43,507.66
81.74009,507.29,509.58
81.76085,507.71,508.76
81.77989,507.28,509.23
81.80024,505.25,507.57
81.82006,505.02,506.84
81.83995,505.52,507.45
81.86144,506.74,506.88
81.88074,504.51,507.19
81.90177,505.76,509.25
81.92138,507.40,508.87
81.94021,507.38,506.63
81.96001,507.21,505.78
81.98040,505.00,509.64
82.00015,508.89,508.49
82.02140,508.64,506.84
82.04011,507.20,506.51
82.06134,506.09,508.20
82.08128,505.61,509.14
82.10173,504.57,507.85
82.12054,503.66,508.96
82.14138,502.65,509.69
82.16187,504.01,510.82
82.18161,502.26,508.29
82.20316,502.80,509.26
82.22243,502.27,509.56
82.24228,505.11,508.41
82.26341,502.45,508.54
82.28254,504.32,509.56
82.30223,502.55,506.22
82.32252,501.02,508.66
82.34280,502.55,509.05
82.36186,503.66,508.76
82.38248,503.91,507.94
82.40363,504.60,504.42
82.42266,501.66,506.49
82.44380,501.63,506.79
82.46329,501.26,508.55
82.48191,504.81,504.54
82.50390,506.05,506.66
82.52315,502.55,508.19
82.54361,506.47,505.18
82.56316,503.62,505.02
82.58275,504.12,505.52
82.60271,502.06,508.73
82.62299,502.82,505.42
82.64390,504.28,508.68
82.66277,503.37,506.84
82.68266,501.97,509.30
82.70297,503.88,506.55
82.72268,502.14,506.28
82.74373,504.39,505.31
82.76192,502.58,505.46
82.78237,504.74,506.24
82.80332,500.35,505.55
82.82283,504.21,508.61
82.84360,501.13,507.90
82.86291,503.98,506.05
82.88278,501.55,507.43
82.90314,501.66,507.99
82.92375,504.17,507.03
82.94215,501.42,505.16
82.96225,503.04,506.59
82.98326,504.08,506.09
83.00323,501.94,508.84
83.02278,502.59,509.54
83.04365,502.92,508.25
83.06440,504.05,504.66
83.08298,504.48,507.27
83.10329,502.63,503.24
83.12459,501.32,506.54
83.14408,500.61,507.01
83.16437,500.34,507.23
83.18445,502.01,508.24
83.20432,501.79,505.66
83.22387,501.96,507.72
83.24399,504.13,506.35
83.26389,503.28,506.55
83.28398,503.58,504.18
83.30446,502.72,505.10
83.32341,501.04,504.42
83.34349,501.83,503.62
83.36316,499.94,504.41
83.38388,499.73,502.76
83.40418,502.64,503.09
83.42375,500.34,505.14
83.44378,501.66,503.68
83.46449,500.22,506.88
83.48392,501.29,505.97
83.50367,500.45,496.59
83.52401,501.52,483.29
83.54460,498.66,464.72
83.56473,497.51,442.83
83.58473,497.91,423.33
83.60399,492.13,404.93
83.62473,492.81,390.55
83.64399,491.36,380.35
83.66419,493.01,371.73
83.68316,494.24,365.44
83.70361,494.58,365.93
83.72333,494.17,368.13
83.74298,492.85,370.14
83.76349,494.79,378.30
83.78458,498.31,385.92
83.80374,497.13,398.25
83.82430,498.06,405.86
83.84357,500.57,418.30
83.86362,501.12,427.99
83.88483,501.01,435.84
83.90463,500.71,444.41
83.92384,499.78,454.69
83.94464,499.12,460.34
83.96385,497.59,465.41
83.98290,502.34,471.00
84.00306,502.39,473.46
84.02364,502.14,478.23
84.04424,500.97,483.87
84.06405,501.22,484.75
84.08459,501.41,497.08
84.10316,502.58,526.34
84.12412,505.36,564.73
84.14334,505.82,607.55
84.16426,507.29,647.03
84.18494,508.10,673.27
84.20461,510.07,676.74
84.22482,508.83,672.65
84.24431,504.97,660.11
84.26480,506.47,643.84
84.28473,504.88,628.27
84.30409,503.21,611.39
84.32448,500.24,593.85
84.34546,500.07,583.59
84.36514,497.95,568.40
84.38448,499.05,559.42
84.40395,499.90,551.35
84.42404,500.50,544.35
84.44447,498.34,535.66
84.46474,496.82,531.95
84.48528,497.85,529.84
84.50526,497.04,525.97
84.52452,500.02,522.26
84.54422,498.23,520.67
84.56494,499.10,517.23
84.58642,499.05,513.34
84.60525,499.85,513.37
84.62634,501.11,511.82
84.64601,497.88,511.63
84.66663,499.37,509.36
84.68619,497.50,509.18
84.70609,496.96,504.13
84.72628,494.21,503.38
84.74533,495.89,503.60
84.76669,495.49,503.04
84.78559,496.45,505.03
84.80575,493.67,504.36
84.82521,496.70,504.78
84.84581,495.12,505.36
84.86688,494.83,503.83
84.88529,494.19,503.97
84.90690,496.08,504.99
84.92670,496.49,502.90
84.94601,495.14,502.33
84.96507,495.65,504.43
84.98608,496.82,501.45
85.00747,495.52,501.73
85.02588,494.50,500.23
85.04582,492.07,501.96
85.06679,492.92,501.80
85.08760,495.17,505.39
85.10645,494.33,509.65
85.12684,493.39,509.96
85.14783,496.02,510.69
85.16630,495.25,509.94
85.18696,494.12,509.79
85.20616,495.07,509.51
85.22758,494.74,510.04
85.24845,491.38,506.26
85.26967,488.69,505.23
85.28889,489.77,506.56
85.30884,487.89,503.00
85.32881,486.57,504.05
85.34826,483.95,503.74
85.37022,485.93,502.44
85.38951,483.55,504.73
85.40910,484.36,505.00
85.43088,483.09,503.04
85.45147,485.87,503.36
85.47218,485.76,503.28
85.49147,484.63,501.14
85.51206,485.46,499.66
85.53180,486.25,498.67
85.55232,485.21,498.02
85.57194,487.19,499.03
85.59217,487.87,500.27
85.61296,487.67,497.71
85.63358,487.56,500.58
85.65186,488.94,498.93
85.67231,486.29,498.59
85.69302,489.67,497.76
85.71281,489.66,499.37
85.73352,487.18,498.99
85.75343,489.40,498.07
85.77231,489.67,498.25
85.79313,493.25,495.40
85.81287,491.48,495.88
85.83229,491.03,495.72
85.85268,492.10,496.86
85.87356,492.35,493.90
85.89225,491.99,493.84
85.91304,488.81,494.97
85.93309,491.52,493.68
85.95323,489.43,494.57
85.97186,487.07,495.79
85.99223,487.56,495.06
86.01243,487.32,495.47
86.03161,487.20,495.70
86.05341,486.89,494.33
86.07288,483.99,495.21
86.09234,483.27,495.91
86.11228,485.55,492.82
86.13262,483.72,494.30
86.15195,484.03,492.90
86.17253,484.87,495.95
86.19319,486.44,492.52
86.21328,483.36,492.82
86.23233,485.32,494.00
86.25206,484.74,491.41
86.27233,483.13,493.03
86.29198,485.25,493.11
86.31291,483.52,493.39
86.33348,483.20,493.46
86.35194,487.61,488.54
86.37242,485.41,489.68
86.39291,489.46,490.73
86.41369,487.72,489.79
86.43352,486.60,490.59
86.45204,486.00,487.53
86.47263,485.45,491.58
86.49300,486.14,491.97
86.51220,485.62,492.70
86.53312,488.12,492.51
86.55353,490.42,492.15
86.57358,490.81,494.38
86.59432,487.41,495.62
86.61421,488.72,496.60
86.63427,490.42,494.31
86.65312,488.12,496.65
86.67305,488.53,495.95
86.69311,490.73,494.52
86.71327,490.91,493.34
86.73261,489.16,493.46
86.75267,491.32,494.98
86.77332,490.36,496.20
86.79458,491.86,494.56
86.81419,490.99,494.57
86.83466,490.98,495.85
86.85385,488.29,495.96
86.87417,491.48,495.19
86.89420,489.36,495.65
86.91387,489.47,498.46
86.93514,490.45,497.25
86.95567,491.25,495.91
86.97389,489.99,496.97
86.99404,490.26,494.41
87.01396,490.56,495.26
87.03477,489.62,495.84
87.05392,488.73,496.48
87.07522,491.36,496.42
87.09409,489.38,496.75
87.11519,491.84,496.72
87.13574,489.71,495.86
87.15411,492.72,495.76
87.17405,493.73,497.67
87.19476,488.89,497.50
87.21364,490.47,497.62
87.23629,491.95,497.92
87.25509,493.65,498.98
87.27546,494.98,499.77
87.29637,495.52,497.15
87.31598,495.40,499.66
87.33544,492.53,496.96
87.35517,494.60,496.89
87.37524,495.00,500.15
87.39650,496.25,498.83
87.41486,494.15,498.91
87.43564,496.12,497.58
87.45603,496.64,499.81
87.47621,495.91,500.78
87.49764,496.96,499.64
87.51726,500.10,498.93
87.53715,500.56,501.41
87.55831,500.67,501.23
87.57791,501.20,498.64
87.59841,502.74,501.29
87.61697,504.65,498.24
87.63749,503.28,502.04
87.65795,502.26,500.13
87.67825,503.47,500.11
87.69705,504.87,501.74
87.71868,503.99,503.32
87.73830,503.00,501.26
87.75825,504.86,504.81
87.77680,501.24,505.68
87.79778,500.12,502.62
87.81822,501.98,503.97
87.83804,504.12,504.59
87.85798,499.99,503.76
87.87826,501.46,505.23
87.89696,500.95,503.81
87.91839,500.51,503.72
87.93771,501.50,491.27
87.95810,499.40,474.01
87.97786,496.44,456.06
87.99865,495.56,435.72
88.01773,496.18,421.41
88.03848,498.24,406.75
88.05812,497.80,397.59
88.07810,500.81,388.79
88.09869,500.57,386.57
88.11933,500.32,382.16
88.13873,498.97,380.57
88.15918,501.12,383.80
88.17917,500.96,386.62
88.19954,501.74,388.20
88.22004,506.14,394.06
88.24001,507.51,400.91
88.26016,504.96,407.27
88.27976,506.78,415.86
88.29999,504.28,423.70
88.32065,507.64,433.08
88.34015,504.88,442.25
88.35910,506.43,448.20
88.38006,505.63,455.27
88.39931,508.74,459.44
88.41951,507.55,465.20
88.43970,506.60,473.07
88.45995,507.66,477.90
88.47940,507.03,481.75
88.49992,506.88,482.99
88.52057,509.65,490.06
88.53876,509.85,490.84
88.55986,506.35,494.06
88.58027,509.52,503.13
88.60035,507.16,522.95
88.61878,511.92,557.37
88.64010,512.60,595.55
88.66005,513.86,628.20
88.67999,514.55,657.90
88.70058,516.96,678.16
88.72037,513.45,685.71
88.74059,511.48,683.86
88.76029,509.43,667.55
88.77918,510.03,651.47
88.79897,509.31,633.66
88.81946,507.47,614.45
88.84017,508.19,598.79
88.85895,508.73,582.02
88.87963,506.02,570.85
88.90029,505.34,559.33
88.92038,506.19,549.27
88.94029,504.97,542.29
88.96014,504.45,536.59
88.98016,504.60,530.10
89.00003,505.21,526.77
89.02014,504.72,521.00
89.04071,503.62,519.62
89.05880,504.61,517.70
89.07953,504.21,515.21
89.10040,505.69,514.85
89.11867,504.88,514.97
89.13883,505.59,513.72
89.15913,507.82,511.35
89.17956,507.03,512.72
89.20039,505.04,509.74
89.21965,509.01,511.09
89.23962,506.93,509.91
89.26053,505.71,513.50
89.28040,507.71,512.77
89.29984,505.74,512.87
89.31957,507.03,512.86
89.33874,507.20,511.91
89.36061,509.40,507.77
89.38006,509.49,508.05
89.39919,508.84,509.69
89.41878,511.50,509.09
89.43895,510.60,509.45
89.46037,506.66,509.24
89.48071,508.09,509.20
89.50004,507.08,509.93
89.51991,506.18,510.86
89.53977,505.67,509.64
89.56070,507.00,510.26
89.57892,509.20,509.94
89.59932,510.61,506.61
89.61915,506.43,506.38
89.63969,508.53,510.29
89.65975,508.19,507.38
89.67886,509.01,506.38
89.69980,505.43,508.05
89.72043,507.41,506.06
89.73889,507.46,506.61
89.76004,506.27,507.80
89.77998,505.93,507.07
89.79930,505.93,508.19
89.81910,505.13,505.80
89.83919,507.70,505.72
89.85908,507.72,508.95
89.87997,507.32,509.10
89.89937,507.45,510.82
89.91901,506.68,512.67
89.93938,509.39,510.52
89.95983,509.28,510.72
89.97897,510.47,513.21
89.99959,509.50,509.58
90.01888,510.32,509.08
90.03968,508.12,507.25
90.05955,509.36,508.34
90.07997,510.91,510.84
90.09882,511.23,508.65
90.12060,509.86,511.20
90.14016,505.91,510.64
90.15918,507.81,511.29
90.18004,504.56,509.31
90.19854,506.28,510.51
90.21919,504.63,508.19
90.24045,504.54,508.21
90.25942,505.34,508.21
90.28018,507.79,509.69
90.29915,505.37,508.30
90.31952,504.52,510.05
90.34024,507.15,511.08
90.36062,507.50,509.62
90.38152,506.27,510.09
90.40239,504.66,510.77
90.42307,506.80,511.94
90.44283,505.99,510.60
90.46444,502.98,511.03
90.48423,502.12,513.52
90.50426,504.24,511.21
90.52293,502.47,511.58
90.54340,503.67,512.23
90.56455,503.49,510.80
90.58417,503.36,511.20
90.60462,502.57,507.99
90.62307,501.66,508.59
90.64272,500.09,510.87
90.66445,499.97,508.66
90.68401,500.39,508.43
90.70387,500.33,506.40
90.72429,500.71,508.76
90.74351,501.53,508.27
90.76446,498.82,509.54
90.78505,501.01,510.99
90.80449,500.17,511.49
90.82459,499.53,510.37
90.84505,502.85,508.68
90.86354,498.87,507.93
90.88566,498.91,508.57
90.90385,499.72,507.78
90.92380,499.16,508.38
90.94386,497.72,507.52
90.96466,499.91,505.88
90.98403,500.06,507.33
91.00458,497.70,507.75
91.02449,498.65,507.94
91.04519,497.61,505.07
91.06527,495.57,504.07
91.08660,498.24,505.46
91.10586,495.31,502.50
91.12592,495.85,506.00
91.14542,496.26,504.30
91.16586,495.25,507.32
91.18598,498.08,507.28
91.20596,496.54,506.00
91.22552,498.42,507.62
91.24645,496.56,506.34
91.26506,495.63,509.69
91.28593,497.54,509.60
91.30497,495.62,506.55
91.32615,499.40,505.57
91.34596,497.10,506.44
91.36573,495.96,505.91
91.38610,498.03,503.72
91.40485,497.88,503.65
91.42585,496.62,504.76
91.44543,496.06,503.35
91.46511,495.46,505.98
91.48656,496.05,505.20
91.50531,497.75,503.09
91.52512,496.72,505.77
91.54636,496.79,505.58
91.56472,497.35,506.13
91.58649,496.51,503.87
91.60490,496.39,506.06
91.62558,496.16,504.79
91.64533,494.22,505.54
91.66549,495.05,506.28
91.68577,493.39,502.57
91.70598,495.84,503.37
91.72570,493.94,504.30
91.74578,492.51,503.84
91.76573,492.30,503.64
91.78547,494.85,503.01
91.80659,492.33,503.71
91.82600,493.89,502.65
91.84616,495.98,504.48
91.86629,494.51,506.82
91.88491,494.19,506.59
91.90491,492.23,502.94
91.92554,490.68,496.54
91.94583,487.83,487.25
91.96515,487.03,474.09
91.98545,484.71,460.44
92.00567,483.47,448.54
92.02542,482.83,434.11
92.04588,482.98,421.26
92.06582,481.38,407.23
92.08540,480.69,397.75
92.10503,479.01,387.31
92.12623,479.82,380.95
92.14618,482.82,378.40
92.16574,485.90,376.08
92.18486,488.71,376.06
92.20665,485.60,376.88
92.22606,488.50,384.95
92.24483,489.36,389.61
92.26567,489.08,398.72
92.28569,486.83,403.81
92.30499,486.53,410.62
92.32577,487.08,420.50
92.34659,485.58,431.33
92.36597,487.00,437.61
92.38620,487.75,446.68
92.40559,491.09,453.57
92.42652,491.92,462.85
92.44512,492.60,468.32
92.46551,492.22,471.45
92.48556,490.86,477.94
92.50471,491.82,482.28
92.52606,491.48,485.59
92.54661,494.16,492.98
92.56587,495.64,511.97
92.58495,494.99,542.36
92.60668,499.46,580.66
92.62526,506.96,617.29
92.64489,508.92,652.39
92.66517,510.74,675.20
92.68614,514.32,694.07
92.70639,515.86,694.52
92.72590,516.29,687.57
92.74525,513.43,668.39
92.76572,511.20,649.24
92.78644,508.13,633.22
92.80627,509.48,612.92
92.82575,505.56,599.74
92.84550,504.00,583.76
92.86543,503.68,570.03
92.88581,502.16,559.04
92.90573,501.61,551.45
92.92477,498.76,544.80
92.94655,500.11,536.07
92.96638,496.54,530.56
92.98461,495.15,525.08
93.00510,497.34,525.06
93.02593,497.66,520.62
93.04655,497.46,519.90
93.06609,497.00,517.27
93.08559,495.50,516.85
93.10511,496.18,516.03
93.12541,494.27,511.27
93.14626,497.08,511.99
93.16598,497.32,506.73
93.18575,494.74,504.79
93.20615,495.72,505.86
93.22508,495.66,507.09
93.24554,492.93,505.22
93.26585,495.10,506.91
93.28540,495.66,504.99
93.30520,494.81,502.61
93.32587,493.46,501.08
93.34543,493.82,505.88
93.36497,495.26,505.91
93.38522,494.90,503.76
93.40524,495.47,503.31
93.42561,492.32,505.32
93.44588,494.35,506.53
93.46563,492.25,503.60
93.48569,492.73,504.34
93.50666,493.50,502.91
93.52605,494.04,505.24
93.54472,491.89,504.09
93.56648,495.72,505.92
93.58492,495.49,504.97
93.60529,491.82,505.18
93.62592,491.99,505.32
93.64483,494.44,503.57
93.66540,493.94,501.18
93.68620,496.00,501.82
93.70588,495.66,502.69
93.72611,492.95,503.92
93.74628,495.28,502.89
93.76487,493.49,500.63
93.78608,494.30,501.77
93.80553,492.90,503.74
93.82610,493.17,503.41
93.84489,493.89,501.18
93.86515,495.41,506.65
93.88470,495.68,504.06
93.90559,497.84,503.93
93.92615,496.68,506.56
93.94590,497.92,504.59
93.96585,497.88,506.56
93.98562,497.28,506.31
94.00527,493.71,504.84
94.02523,494.12,508.29
94.04555,492.84,507.24
94.06559,491.20,507.90
94.08642,493.18,506.10
94.10508,493.46,507.96
94.12528,494.91,508.83
94.14649,494.90,508.15
94.16534,494.96,506.95
94.18531,491.15,505.48
94.20494,493.28,507.84
94.22531,490.41,506.46
94.24498,489.14,508.32
94.26639,488.88,508.09
94.28610,492.60,508.45
94.30564,492.44,508.86
94.32550,493.03,509.86
94.34489,490.17,508.07
94.36666,490.83,506.38
94.38493,489.89,505.17
94.40518,491.98,505.39
94.42501,489.85,506.62
94.44543,491.40,505.40
94.46609,491.81,506.83
94.48626,492.54,504.50
94.50518,491.95,508.58
94.52539,492.61,508.84
94.54491,492.46,506.70
94.56541,489.62,506.21
94.58665,490.63,508.81
94.60514,490.92,506.30
94.62485,492.00,506.62
94.64587,493.49,507.74
94.66637,491.71,504.91
94.68459,492.41,505.22
94.70631,495.43,508.83
94.72541,494.27,506.55
94.74618,494.43,507.57
94.76599,491.86,508.43
94.78561,492.36,508.20
94.80579,490.96,507.40
94.82539,491.23,507.40
94.84545,491.78,503.82
94.86510,491.49,505.61
94.88608,492.02,505.78
94.90563,493.06,505.98
94.92553,494.89,506.20
94.94540,493.87,502.82
94.96648,491.60,503.76
94.98478,490.32,501.16
95.00654,492.33,503.72
95.02639,493.23,505.54
95.04467,492.12,506.62
95.06619,490.86,509.23
95.08624,492.53,508.58
95.10623,492.56,510.34
95.12535,492.69,507.52
95.14487,494.04,511.08
95.16608,489.91,509.60
95.18633,491.47,510.45
95.20453,488.50,507.60
95.22521,489.52,508.42
95.24559,487.72,508.97
95.26509,489.09,506.81
95.28581,491.17,506.42
95.30575,490.52,506.80
95.32588,489.27,507.03
95.34563,490.70,505.27
95.36683,488.68,506.01
95.38631,491.58,501.93
95.40615,488.60,501.73
95.42639,488.88,502.48
95.44595,488.69,504.35
95.46713,488.85,503.43
95.48647,487.73,502.25
95.50604,488.29,503.42
95.52680,487.98,502.68
95.54583,486.82,500.11
95.56592,484.54,499.58
95.58611,486.95,500.48
95.60616,487.96,501.44
95.62567,486.40,502.89
95.64661,487.56,501.80
95.66557,485.31,503.89
95.68580,485.34,503.65
95.70704,486.97,503.83
95.72653,484.55,500.87
95.74620,488.04,502.67
95.76564,488.32,503.24
95.78749,486.33,500.89
95.80651,486.28,503.19
95.82690,486.25,500.66
95.84569,484.81,502.42
95.86577,485.16,501.09
95.88623,486.44,503.79
95.90600,484.19,503.20
95.92632,484.67,502.87
95.94656,483.96,504.02
95.96670,485.58,503.07
95.98734,486.79,503.88
96.00747,484.95,504.04
96.02569,486.06,502.32
96.04719,486.65,500.68
96.06702,485.20,499.44
96.08568,487.82,502.15
96.10625,486.41,499.61
96.12566,484.84,502.08
96.14642,483.89,498.81
96.16576,484.15,500.92
96.18747,487.09,500.91
96.20548,487.11,500.14
96.22624,487.83,504.07
96.24697,489.85,505.81
96.26725,487.40,500.54
96.28602,488.11,487.63
96.30739,486.38,473.95
96.32700,486.90,453.38
96.34559,485.09,434.53
96.36578,482.84,417.12
96.38752,481.51,398.39
96.40725,480.06,386.40
96.42666,478.22,373.84
96.44766,478.31,365.39
96.46658,475.29,364.05
96.48841,477.26,363.56
96.50689,480.58,365.61
96.52785,480.16,367.13
96.54698,481.38,378.50
96.56721,481.86,383.78
96.58757,486.18,394.24
96.60744,483.61,407.09
96.62765,485.28,415.76
96.64769,486.59,426.43
96.66808,486.57,435.02
96.68776,484.66,441.04
96.70678,487.00,452.66
96.72774,483.25,456.40
96.74829,486.41,464.43
96.76836,485.53,467.08
96.78673,486.27,483.01
96.80867,485.88,509.79
96.82835,490.24,541.69
96.84788,491.73,575.35
96.86684,493.37,604.25
96.88662,494.85,626.47
96.90708,494.14,645.70
96.92786,489.79,660.24
96.94670,488.48,668.61
96.96760,487.18,669.83
96.98816,483.73,659.97
97.00696,481.31,643.81
97.02795,482.68,626.47
97.04650,485.91,612.83
97.06718,484.04,596.05
97.08766,480.00,582.16
97.10773,480.04,569.56
97.12786,479.63,555.87
97.14688,479.34,547.60
97.16675,480.17,537.55
97.18831,483.91,531.25
97.20840,485.49,526.34
97.22734,488.26,520.09
97.24730,487.66,513.19
97.26806,488.28,513.31
97.28750,490.24,510.19
97.30690,489.44,504.96
97.32825,491.17,502.91
97.34733,490.56,500.75
97.36768,487.73,500.44
97.38676,488.77,500.76
97.40654,488.65,499.13
97.42701,485.33,497.89
97.44724,483.89,499.87
97.46817,483.30,497.77
97.48655,484.98,500.85
97.50632,485.34,496.67
97.52646,483.16,499.27
97.54791,483.26,496.84
97.56741,483.36,496.88
97.58788,485.42,499.26
97.60651,485.59,500.83
97.62728,485.68,497.40
97.64706,486.51,500.46
97.66772,486.57,501.87
97.68836,486.10,501.58
97.70790,486.02,502.24
97.72841,487.02,502.20
97.74639,484.96,500.51
97.76671,487.92,500.26
97.78742,488.76,502.24
97.80699,486.34,501.34
97.82845,487.78,500.22
97.84687,486.04,500.68
97.86813,486.65,498.73
97.88716,486.96,500.95
97.90770,487.61,501.32
97.92671,483.85,498.03
97.94771,486.95,499.88
97.96653,485.64,500.29
97.98699,486.03,500.38
98.00733,484.09,501.53
98.02679,484.03,499.23
98.04848,484.05,500.35
98.06763,484.15,499.37
98.08766,486.07,499.49
98.10784,485.47,499.56
98.12819,484.59,499.13
98.14717,484.69,500.84
98.16744,482.38,500.78
98.18694,484.81,499.53
98.20652,483.72,499.84
98.22771,484.72,500.34
98.24821,484.88,497.85
98.26700,483.27,499.20
98.28679,483.82,498.60
98.30744,484.77,496.84
98.32661,486.53,500.00
98.34642,486.79,497.94
98.36867,484.97,499.43
98.38816,484.68,500.74
98.40822,486.88,499.46
98.42814,486.34,497.47
98.44797,488.25,500.00
98.46670,489.29,496.41
98.48752,487.19,498.53
98.50674,487.34,498.79
98.52752,485.55,497.27
98.54683,484.46,497.13
98.56752,486.91,496.60
98.58696,484.70,500.23
98.60694,484.10,498.77
98.62743,484.74,499.96
98.64669,485.15,498.12
98.66732,483.51,497.95
98.68747,483.29,498.96
98.70652,484.35,499.45
98.72796,487.16,500.68
98.74771,482.26,499.56
98.76668,484.26,500.90
98.78703,482.21,497.99
98.80706,484.61,501.08
98.82696,484.57,498.16
98.84637,484.34,498.16
98.86676,482.74,498.05
98.88683,483.27,501.45
98.90688,485.67,501.11
98.92728,483.62,501.74
98.94725,486.56,502.09
98.96714,485.16,499.83
98.98693,484.80,501.59
99.00712,486.53,500.59
99.02817,484.46,501.29
99.04633,487.01,499.71
99.06666,485.53,497.72
99.08738,486.22,497.57
99.10838,486.17,494.71
99.12819,489.38,494.31
99.14765,486.19,494.88
99.16860,486.53,494.15
99.18728,483.75,496.54
99.20824,485.90,495.24
99.22671,486.95,496.07
99.24700,486.80,495.25
99.26677,485.76,494.50
99.28728,483.31,497.03
99.30812,483.19,495.79
99.32818,483.26,497.50
99.34670,485.76,499.46
99.36652,485.35,499.37
99.38785,486.62,500.98
99.40703,486.27,499.89
99.42659,487.16,499.78
99.44649,486.04,499.33
99.46769,486.69,497.17
99.48719,483.25,498.97
99.50769,486.35,499.04
99.52652,483.69,496.47
99.54742,484.99,496.44
99.56791,486.09,495.41
99.58676,485.38,495.47
99.60741,481.96,497.02
99.62779,485.28,498.24
99.64653,484.96,496.37
99.66720,484.91,497.59
99.68660,484.40,496.84
99.70710,486.41,499.25
99.72845,484.21,500.47
99.74708,487.02,497.83
99.76677,486.02,499.04
99.78674,484.71,499.06
99.80674,486.33,501.20
99.82716,486.17,499.33
99.84737,486.59,500.80
99.86674,485.82,500.91
99.88766,485.92,500.60
99.90755,486.07,501.45
99.92719,487.80,500.74
99.94787,485.98,501.48
99.96806,484.95,500.69
99.98654,485.96,498.58
100.00763,487.94,499.92
100.02777,488.50,497.74
100.04739,487.39,497.75
100.06723,484.81,497.98
100.08662,488.83,499.45
100.10660,484.51,496.95
100.12670,485.49,500.60
100.14645,485.69,497.94
100.16635,482.91,496.24
100.18845,483.65,499.04
100.20673,484.86,498.29
100.22643,485.35,496.94
100.24666,486.14,496.70
100.26623,486.19,498.75
100.28710,487.55,495.01
100.30614,485.93,494.94
100.32744,485.65,497.80
100.34896,484.59,498.71
100.36810,485.87,498.09
100.38715,485.14,497.68
100.40787,487.97,496.59
100.42785,488.59,496.04
100.44671,483.76,498.87
100.46814,485.83,498.92
100.48877,484.96,498.97
100.50775,485.26,497.99
100.52646,484.87,499.35
100.54635,487.52,498.46
100.56692,486.28,497.05
100.58748,487.05,498.59
100.60636,485.41,498.33
100.62846,482.53,500.30
100.64759,483.07,499.21
100.66795,483.44,497.18
100.68655,486.47,500.02
100.70802,485.68,498.00
100.72868,483.61,499.87
100.74628,482.74,497.43
100.76861,485.36,486.45
100.78790,483.17,473.01
100.80605,484.41,451.60
100.82691,483.12,429.52
100.84746,482.73,412.24
100.86827,484.07,395.59
100.88613,483.22,384.34
100.90741,485.00,374.48
100.92621,486.94,366.18
100.94717,485.60,363.26
100.96749,484.82,362.84
100.98749,487.17,368.74
101.00734,487.60,371.14
101.02613,487.15,379.20
101.04757,483.49,387.03
101.06637,484.46,393.45
101.08727,481.49,403.77
101.10720,484.57,415.20
101.12603,483.31,423.87
101.14718,486.24,433.34
101.16701,485.97,442.25
101.18600,485.77,451.52
101.20682,485.78,456.50
101.22794,486.82,463.59
101.24792,486.45,469.92
101.26873,489.21,472.38
101.28794,487.42,483.25
101.30798,489.86,501.84
101.32785,486.80,530.82
101.34730,484.73,567.46
101.36825,480.97,602.83
101.38604,483.34,631.25
101.40616,481.57,653.63
101.42609,487.24,669.21
101.44700,491.33,673.14
101.46720,493.56,667.32
101.48600,495.56,653.12
101.50846,496.37,634.77
101.52647,496.56,616.09
101.54671,496.09,602.32
101.56758,494.98,584.48
101.58610,492.40,570.12
101.60690,491.57,559.87
101.62731,491.56,550.41
101.64694,488.04,542.59
101.66647,488.99,536.43
101.68635,487.61,531.36
101.70747,488.04,526.64
101.72634,485.97,519.08
101.74606,487.66,514.72
101.76832,487.46,511.22
101.78745,488.79,511.50
101.80631,488.38,509.93
101.82775,489.80,505.34
101.84748,489.49,503.99
101.86696,486.62,503.27
101.88619,488.33,503.61
101.90722,488.66,504.58
101.92794,489.55,501.66
101.94736,488.58,501.44
101.96621,489.58,503.08
101.98689,490.86,499.82
102.00710,487.55,501.02
102.02607,492.02,502.31
102.04754,489.31,499.27
102.06762,488.30,499.17
102.08717,489.43,500.16
102.10618,491.91,502.09
102.12644,491.66,499.54
102.14642,488.63,501.35
102.16644,491.12,503.04
102.18792,490.89,499.76
102.20659,489.25,500.78
102.22676,487.26,502.01
102.24602,489.96,500.74
102.26668,487.88,498.89
102.28748,489.09,498.95
102.30716,491.52,502.43
102.32779,489.93,502.09
102.34735,491.17,499.83
102.36738,489.32,498.04
102.38670,493.02,501.12
102.40714,492.64,496.96
102.42798,491.50,500.36
102.44715,493.78,499.22
102.46747,489.47,500.94
102.48642,491.88,501.21
102.50717,492.44,499.41
102.52829,492.30,500.28
102.54616,491.22,498.03
102.56704,491.05,500.12
102.58762,491.54,498.31
102.60708,489.26,499.22
102.62748,489.04,499.83
102.64680,491.04,500.48
102.66716,490.65,498.57
102.68723,487.59,501.93
102.70765,489.03,499.28
102.72799,487.82,499.73
102.74789,489.45,499.69
102.76772,490.79,499.85
102.78650,489.27,498.43
102.80615,489.76,496.30
102.82782,489.44,497.24
102.84794,490.58,498.79
102.86635,490.88,499.07
102.88760,489.04,498.51
102.90621,489.71,497.37
102.92625,489.05,500.18
102.94691,486.43,498.80
102.96756,488.10,498.65
102.98617,488.68,496.67
103.00776,487.99,496.26
103.02658,488.21,497.13
103.04700,487.25,497.84
103.06783,489.82,498.47
103.08690,489.31,497.88
103.10615,486.28,495.22
103.12630,489.95,495.56
103.14797,488.61,496.63
103.16779,490.45,497.12
103.18791,490.31,496.40
103.20629,489.18,497.64
103.22658,486.97,499.58
103.24656,486.88,499.01
103.26706,486.75,501.58
103.28612,485.19,501.46
103.30703,487.87,501.56
103.32600,486.10,502.00
103.34667,488.24,501.20
103.36772,486.76,500.83
103.38688,486.35,501.37
103.40672,487.53,503.30
103.42688,487.38,501.46
103.44687,489.84,500.38
103.46623,489.82,500.38
103.48663,490.34,499.34
103.50742,488.71,499.75
103.52621,489.41,500.60
103.54716,487.70,501.68
103.56690,486.49,499.91
103.58705,488.49,500.04
103.60704,489.15,500.57
103.62751,486.85,500.77
103.64742,490.64,501.95
103.66765,486.62,500.18
103.68640,489.48,503.49
103.70749,487.50,503.28
103.72724,488.34,501.42
103.74750,490.10,499.94
103.76624,486.52,500.44
103.78760,488.71,500.11
103.80784,489.04,500.92
103.82776,487.61,499.07
103.84723,487.54,499.25
103.86662,488.90,497.24
103.88731,484.26,496.98
103.90736,483.14,499.53
103.92734,486.08,497.37
103.94726,484.25,497.38
103.96620,486.34,497.20
103.98708,484.53,497.24
104.00705,485.70,500.29
104.02669,485.97,500.18
104.04684,486.18,498.48
104.06678,488.00,497.01
104.08754,487.05,498.92
104.10722,485.89,497.02
104.12718,487.34,501.26
104.14724,487.00,498.57
104.16607,488.22,498.61
104.18789,485.96,500.25
104.20675,487.91,497.72
104.22645,485.38,497.44
104.24709,488.23,498.87
104.26706,488.19,499.77
104.28639,487.75,496.85
104.30667,487.14,499.66
104.32727,488.64,499.30
104.34621,485.24,497.19
104.36745,486.18,498.26
104.38753,486.80,499.74
104.40610,487.52,498.77
104.42728,485.42,497.97
104.44782,485.33,496.84
104.46609,487.90,499.06
104.48729,489.26,498.20
104.50783,491.84,496.66
104.52775,488.75,498.99
104.54655,490.75,496.49
104.56635,489.57,497.14
104.58624,491.63,500.41
104.60645,488.84,498.87
104.62718,487.93,498.01
104.64744,489.47,499.57
104.66702,488.89,497.95
104.68770,486.81,499.48
104.70667,485.43,497.25
104.72716,485.64,495.55
104.74674,487.03,492.29
104.76626,489.69,493.05
104.78695,486.94,492.39
104.80635,487.52,488.90
104.82730,488.87,488.70
104.84768,488.52,492.06
104.86654,489.67,490.03
104.88614,490.14,490.94
104.90751,489.76,491.67
104.92771,486.64,491.31
104.94712,490.51,489.75
104.96690,488.93,490.75
104.98725,489.70,494.38
105.00799,490.53,493.54
105.02686,491.04,492.43
105.04799,489.22,496.31
105.06675,491.28,495.58
105.08618,488.35,498.09
105.10624,490.31,498.31
105.12786,490.28,496.74
105.14764,488.93,497.56
105.16678,488.26,498.86
105.18611,487.18,495.91
105.20754,487.97,498.77
105.22749,491.34,497.38
105.24792,487.58,498.62
105.26794,487.58,498.93
105.28696,490.85,499.82
105.30676,492.06,488.90
105.32799,493.70,475.86
105.34695,496.85,457.54
105.36671,499.59,436.71
105.38716,499.11,422.48
105.40729,496.95,405.80
105.42787,494.54,389.53
105.44732,490.98,377.33
105.46768,490.04,368.56
105.48753,484.74,366.55
105.50780,486.85,366.02
105.52896,482.20,366.27
105.54748,483.06,369.34
105.56852,481.71,376.38
105.58853,484.80,381.54
105.60835,483.32,391.68
105.62874,480.73,403.43
105.64888,480.93,409.67
105.66725,483.01,419.03
105.68751,485.01,431.49
105.70765,485.77,439.79
105.72707,486.83,445.96
105.74711,485.58,451.58
105.76768,488.44,458.75
105.78834,486.55,464.87
105.80728,488.57,470.71
105.82868,487.97,490.13
105.84890,490.47,523.43
105.86804,491.21,561.37
105.88756,493.75,603.09
105.90747,498.28,635.52
105.92781,499.81,661.97
105.94725,500.88,675.47
105.96757,503.77,682.30
105.98834,502.74,674.06
106.00872,500.22,657.43
106.02843,499.63,641.53
106.04860,497.54,627.68
106.06859,499.85,609.31
106.08807,498.29,594.74
106.10879,498.31,580.16
106.12740,495.40,568.14
106.14815,493.93,560.30
106.16729,495.31,550.51
106.18748,494.96,541.24
106.20748,494.37,535.69
106.22800,496.03,531.62
106.24855,495.38,528.00
106.26873,495.78,520.75
106.28964,492.87,515.43
106.30743,495.65,511.85
106.32794,493.38,506.42
106.34793,490.86,503.26
106.36753,492.99,503.90
106.38876,492.59,500.04
106.40888,489.95,500.38
106.42798,491.41,498.14
106.44816,490.85,500.30
106.46828,491.96,497.26
106.48728,492.52,499.29
106.50729,491.47,497.33
106.52893,489.64,498.76
106.54755,492.11,497.88
106.56803,488.96,496.50
106.58829,492.98,497.60
106.60777,493.04,497.45
106.62861,492.56,498.07
106.64979,492.20,498.10
106.66839,494.67,500.38
106.68894,494.24,502.50
106.70810,492.10,501.00
106.72966,495.91,500.05
106.74936,496.97,501.62
106.76897,493.76,503.39
106.78895,497.88,503.67
106.80931,494.35,501.34
106.82973,496.39,502.67
106.84878,494.94,502.91
106.86964,493.12,504.32
106.88867,497.35,503.97
106.90865,498.04,506.21
106.92937,496.77,504.29
106.94846,496.23,505.01
106.96891,494.74,507.51
106.98888,496.52,506.43
107.01000,497.77,504.09
107.02841,495.33,504.43
107.04902,497.39,507.47
107.06979,497.81,505.66
107.08818,495.91,505.13
107.10849,498.50,507.25
107.12866,496.18,504.88
107.14867,496.57,507.47
107.16947,497.91,506.53
107.18975,495.76,504.22
107.20923,494.30,503.91
107.22804,496.15,503.04
107.24947,495.22,502.84
107.26991,496.38,503.36
107.28854,495.56,504.43
107.30935,495.66,503.28
107.32927,496.12,502.10
107.34968,495.14,503.83
107.36984,496.05,501.00
107.38998,495.46,500.34
107.40962,493.20,501.75
107.42991,495.15,501.31
107.44983,495.55,499.75
107.46853,494.67,501.79
107.48883,493.72,501.15
107.50918,496.00,500.38
107.53096,495.83,498.06
107.54899,495.69,498.30
107.56948,494.19,499.36
107.58846,494.04,499.97
107.60998,494.15,501.88
107.62829,495.77,500.88
107.64987,497.83,500.17
107.66989,497.05,499.87
107.68835,499.79,501.95
107.70867,497.05,503.41
107.72924,498.27,502.54
107.74930,498.16,502.68
107.76836,498.10,502.98
107.78981,498.76,501.37
107.80944,495.86,502.50
107.82987,497.30,500.70
107.84951,494.88,498.85
107.86923,495.34,502.30
107.88964,494.53,499.07
107.90978,494.95,499.20
107.92986,494.71,501.91
107.94899,496.59,499.84
107.96974,493.60,499.90
107.98875,495.12,499.69
108.00954,497.32,500.12
108.02925,494.67,501.20
108.04956,495.26,501.22
108.06905,496.01,501.22
108.08945,496.33,497.93
108.10935,495.87,498.61
108.12970,496.39,499.37
108.14958,499.16,498.38
108.16958,495.67,498.10
108.18846,497.17,498.08
108.20978,497.43,499.42
108.22933,498.29,498.46
108.24815,496.66,501.56
108.26997,497.67,499.78
108.28932,498.25,500.88
108.30884,496.71,499.73
108.32842,496.51,499.65
108.34946,499.75,502.76
108.36825,497.23,501.96
108.39000,495.46,503.19
108.41013,495.58,502.88
108.42917,494.02,501.49
108.44866,496.56,505.22
108.46949,495.01,503.40
108.48904,494.84,503.00
108.50823,498.79,500.94
108.52815,498.84,502.69
108.54956,496.43,503.00
108.56897,496.42,504.66
108.58893,494.57,501.05
108.60892,493.96,503.75
108.62872,493.83,500.66
108.64985,493.00,501.96
108.66827,494.64,499.81
108.68852,495.27,502.11
108.70909,495.38,502.08
108.72811,495.29,500.93
108.74837,496.74,503.67
108.76930,496.89,502.29
108.78920,497.83,501.53
108.80988,499.45,500.05
108.82888,499.55,500.73
108.84803,496.98,501.70
108.86903,498.22,501.49
108.88994,498.29,500.76
108.90941,495.99,499.13
108.92978,495.48,501.27
108.94820,496.63,502.27
108.96877,496.65,501.03
108.98945,498.02,499.89
109.00828,494.78,499.20
109.02905,497.56,500.60
109.04910,496.84,499.54
109.06933,495.81,501.18
109.08854,497.24,498.52
109.10860,494.79,501.09
109.12858,496.29,499.82
109.14865,496.87,500.46
109.16911,496.67,498.65
109.18996,495.89,500.35
109.20891,499.39,500.32
109.22820,496.33,500.91
109.24847,496.96,499.81
109.26854,497.95,501.04
109.28895,499.06,499.11
109.30969,501.04,500.39
109.32897,497.16,502.38
109.34831,501.11,501.36
109.36901,500.90,504.30
109.38910,499.59,499.92
109.40837,498.38,492.87
109.42944,499.71,476.30
109.44946,496.51,461.39
109.46919,496.81,447.15
109.48813,499.53,432.33
109.50857,497.33,419.51
109.52922,497.33,405.34
109.54965,498.24,392.66
109.56960,493.70,383.89
109.58955,495.40,378.83
109.60920,490.99,373.34
109.62956,492.81,374.72
109.64823,491.97,376.15
109.66974,493.21,382.52
109.68875,492.72,388.10
109.70851,491.37,396.18
109.72846,490.95,405.95
109.74836,494.31,412.14
109.76918,493.12,423.62
109.78831,493.55,434.39
109.80845,493.61,443.40
109.82808,494.13,448.58
109.84842,495.89,457.08
109.86964,496.64,460.94
109.88901,498.82,470.24
109.90824,499.71,473.51
109.92886,499.82,478.74
109.94916,500.80,481.08
109.96976,501.71,482.48
109.98970,499.80,485.13
110.00888,502.49,487.09
110.02910,503.72,489.82
110.04976,503.06,510.39
110.06899,505.35,547.04
110.08806,506.58,587.26
110.10846,508.90,630.44
110.12919,509.93,658.50
110.14815,510.45,680.25
110.16915,508.69,685.60
110.18827,510.04,681.42
110.20803,505.76,665.54
110.22852,506.85,648.37
110.24843,504.38,626.43
110.26933,503.51,609.58
110.28985,502.08,595.15
110.30970,501.10,579.43
110.32978,502.69,565.41
110.34922,502.84,554.35
110.36974,502.24,547.09
110.38919,500.67,539.56
110.40952,499.57,532.16
110.42933,500.44,525.66
110.44866,501.49,521.26
110.46884,501.58,517.76
110.48910,499.45,514.24
110.50848,495.78,512.44
110.52823,497.03,510.00
110.54939,498.23,505.63
110.56861,496.68,504.84
110.58867,493.85,503.46
110.60979,494.84,504.06
110.62970,496.25,502.07
110.64986,499.65,504.49
110.66815,497.42,500.49
110.68876,502.25,502.36
110.70923,500.43,501.19
110.72848,503.25,504.36
110.74868,500.80,503.35
110.76878,500.00,503.68
110.78903,503.06,505.95
110.80808,503.98,513.02
110.82819,504.38,529.80
110.84908,511.98,559.33
110.86884,515.77,594.50
110.88852,517.57,629.08
110.90927,518.33,643.80
110.92962,519.39,637.76
110.94833,514.84,624.06
110.96972,511.79,600.42
110.98862,508.09,572.13
111.00979,506.48,542.62
111.02860,502.90,521.18
111.04991,501.70,496.88
111.06835,501.36,479.62
111.08948,497.89,464.36
111.10827,495.32,455.08
111.12814,497.01,445.03
111.14984,495.09,442.30
111.16845,494.46,440.42
111.18869,494.03,440.27
111.20941,496.70,441.82
111.22868,492.26,444.33
111.24992,492.42,448.93
111.26818,495.68,454.43
111.28968,494.77,459.88
111.30908,494.13,463.43
111.32974,495.80,467.04
111.34983,496.42,468.01
111.37096,499.47,473.66
111.39041,500.96,477.93
111.40964,499.40,479.65
111.43085,501.31,483.37
111.44916,503.39,489.89
111.46988,503.58,490.86
111.49028,501.77,492.91
111.50941,503.04,494.28
111.52902,501.55,495.41
111.55037,502.11,494.74
111.57055,502.07,497.29
111.58926,503.58,499.98
111.61045,503.41,497.97
111.63199,505.54,502.07
111.65186,502.76,502.11
111.67171,504.73,501.62
111.69088,507.24,500.66
111.71162,505.51,502.50
111.73061,507.29,503.59
111.75199,506.66,503.11
111.77162,502.94,503.37
111.79168,506.67,503.98
111.81165,506.47,504.96
111.83042,506.71,504.63
111.85133,506.54,506.75
111.87036,505.50,503.89
111.89144,506.67,504.51
111.91101,505.13,502.29
111.93132,504.97,505.37
111.95168,505.97,504.91
111.97034,506.06,503.43
111.99101,506.23,502.55
112.01069,506.22,504.40
112.03152,507.51,505.13
112.05125,505.93,502.94
112.07169,505.56,505.04
112.09064,505.34,505.81
112.11145,507.80,505.07
112.13007,504.75,505.97
112.15061,505.70,506.04
112.17010,506.76,508.12
112.19105,506.74,505.14
112.21061,504.10,506.42
112.23130,505.22,507.12
112.25024,505.74,506.53
112.27023,505.36,504.51
112.29146,504.86,506.31
112.31033,506.73,504.43
112.33142,505.81,504.22
112.35172,504.36,506.93
112.37074,503.89,507.14
112.39029,504.34,506.78
112.41086,506.89,505.62
112.43086,503.62,506.69
112.45010,501.96,507.75
112.47089,503.92,504.96
112.49153,505.13,505.02
112.51010,505.16,504.59
112.53132,506.34,504.32
112.55128,504.39,507.82
112.57069,506.28,507.58
112.59164,505.33,508.02
112.61032,507.14,508.01
112.63169,507.85,505.41
112.65059,507.23,504.34
112.67185,503.57,505.64
112.69066,504.58,507.39
112.71093,503.32,504.94
112.73011,501.49,507.66
112.75055,504.17,504.89
112.77026,502.70,506.21
112.79056,503.49,505.50
112.81109,501.81,506.88
112.83083,502.34,504.05
112.85111,507.04,507.47
112.87008,505.42,505.78
112.89041,504.35,505.34
112.91137,503.92,506.88
112.93093,502.54,506.38
112.95075,505.69,504.48
112.97026,504.07,508.26
112.99032,507.74,505.86
113.01105,503.59,505.41
113.03045,503.22,505.72
113.05155,503.37,509.11
113.07216,505.29,509.92
113.09245,506.46,507.88
113.11188,507.92,508.76
113.13261,508.52,509.65
113.15107,509.36,507.19
113.17236,510.03,510.86
113.19100,510.39,509.48
113.21210,508.41,509.06
113.23247,509.54,510.85
113.25234,507.01,512.19
113.27126,511.60,520.70
113.29242,511.00,529.31
113.31132,511.22,542.65
113.33162,516.49,564.21
113.35127,517.31,580.94
113.37165,516.41,591.28
113.39147,517.06,593.64
113.41215,514.70,582.35
113.43172,511.84,564.42
113.45289,506.83,542.03
113.47270,503.37,520.22
113.49295,501.23,500.75
113.51136,496.52,487.68
113.53163,495.68,482.38
113.55160,491.80,491.50
113.57183,494.80,510.54
113.59162,498.38,534.87
113.61235,492.83,548.97
113.63258,493.21,544.31
113.65286,490.85,534.67
113.67243,489.79,522.61
113.69127,487.33,506.19
113.71229,486.98,495.27
113.73242,488.37,488.88
113.75247,489.17,479.69
113.77259,494.83,473.46
113.79157,496.47,469.81
113.81202,500.83,474.03
113.83205,501.02,477.74
113.85239,505.03,492.89
113.87119,510.01,519.84
113.89151,514.13,550.63
113.91209,519.33,576.28
113.93286,522.71,596.97
113.95284,527.96,608.58
113.97173,529.61,620.13
113.99231,531.07,625.14
114.01252,528.10,618.09
114.03337,521.61,595.84
114.05319,517.39,568.87
114.07313,512.23,537.62
114.09213,512.77,510.89
114.11394,512.05,484.52
114.13591,511.04,469.98
114.15495,510.36,458.82
114.17442,512.24,452.25
114.19420,509.83,446.63
114.21478,510.99,440.67
114.23421,507.14,443.41
114.25418,508.71,443.06
114.27486,507.40,448.51
114.29510,504.76,449.99
114.31524,504.01,454.74
114.33482,505.42,460.55
114.35577,503.98,463.62
114.37528,501.62,473.08
114.39445,500.67,474.34
114.41572,500.65,477.99
114.43436,495.98,482.58
114.45405,487.90,484.98
114.47416,485.20,484.07
114.49431,481.34,486.25
114.51470,480.46,486.00
114.53406,482.81,489.37
114.55464,484.43,494.04
114.57410,486.25,494.07
114.59539,487.92,498.43
114.61447,492.66,503.35
114.63536,496.97,507.42
114.65452,497.76,509.16
114.67472,498.17,509.22
114.69529,505.15,514.25
114.71507,505.32,512.12
114.73500,505.45,512.53
114.75470,506.11,515.01
114.77599,505.80,513.95
114.79551,507.47,514.00
114.81633,508.80,511.43
114.83603,509.58,509.81
114.85655,500.17,512.48
114.87649,487.62,510.75
114.89679,474.31,510.89
114.91691,462.41,506.59
114.93655,459.76,506.28
114.95574,454.75,501.33
114.97586,457.41,499.71
114.99518,458.30,500.85
115.01625,463.86,501.47
115.03501,466.57,497.81
115.05520,470.60,498.93
115.07572,476.34,501.97
115.09672,480.26,503.20
115.11587,484.50,505.69
115.13565,497.22,517.09
115.15627,507.54,523.12
115.17594,517.93,529.36
115.19672,521.01,531.02
115.21621,524.57,531.38
115.23506,526.83,532.95
115.25605,523.74,529.85
115.27554,527.28,529.09
115.29616,524.67,533.72
115.31565,524.24,533.01
115.33631,520.84,529.23
115.35521,522.02,527.20
115.37581,519.78,526.01
115.39661,519.90,519.52
115.41502,519.84,518.98
115.43657,520.08,512.77
115.45601,519.29,512.31
115.47617,520.24,515.32
115.49668,520.02,515.83
115.51537,522.83,518.54
115.53647,523.86,521.23
115.55687,524.84,520.00
115.57588,531.22,519.30
115.59626,534.00,518.18
115.61573,532.97,516.91
115.63678,518.79,523.35
115.65623,504.17,529.75
115.67511,493.37,532.20
115.69603,489.26,528.49
115.71686,484.99,524.34
115.73580,489.99,516.69
115.75674,490.29,506.08
115.77553,492.90,499.67
115.79565,495.21,496.65
115.81505,498.21,491.75
115.83584,503.03,489.17
115.85679,506.69,486.78
115.87501,509.69,486.74
115.89549,510.08,502.52
115.91598,513.89,521.57
115.93662,513.70,532.30
115.95685,511.69,538.89
115.97556,514.39,540.89
115.99661,511.43,535.13
116.01677,511.08,534.42
116.03589,509.36,527.95
116.05642,505.17,525.48
116.07660,504.40,521.47
116.09540,505.20,518.00
116.11555,502.76,516.03
116.13720,501.65,512.45
116.15759,501.12,501.09
116.17738,497.02,477.33
116.19873,489.32,454.17
116.21869,484.11,442.44
116.23735,483.91,430.83
116.25867,482.04,429.33
116.27885,480.56,435.08
116.29709,482.06,435.80
116.31852,483.10,441.09
116.33803,483.27,452.03
116.36043,481.02,467.50
116.37842,485.10,496.72
116.39910,478.36,535.52
116.42044,464.63,580.02
116.44081,451.75,606.68
116.46184,437.58,621.24
116.48038,417.57,617.49
116.50138,402.20,605.48
116.52057,393.96,594.06
116.54131,389.74,575.65
116.56010,390.57,549.23
116.58189,389.90,520.81
116.60034,391.27,477.83
116.62093,401.91,448.67
116.64011,409.23,411.33
116.66011,415.85,405.74
116.68124,431.89,386.15
116.70091,444.18,363.85
116.72015,454.13,371.79
116.74047,460.14,367.28
116.76048,466.96,373.06
116.78021,473.94,390.68
116.80189,478.58,405.03
116.82212,478.67,414.93
116.84184,484.76,412.10
116.86221,487.47,417.88
116.88161,485.70,430.61
116.90203,488.90,453.13
116.92267,490.49,474.47
116.94231,524.36,509.95
116.96214,552.81,561.51
116.98272,592.88,580.73
117.00170,629.76,599.25
117.02261,657.51,596.59
117.04160,669.07,624.64
117.06135,684.26,621.07
117.08163,696.43,612.33
117.10210,691.34,636.31
117.12198,696.05,634.32
117.14288,682.59,638.95
117.16320,665.16,637.84
117.18312,652.61,615.35
117.20232,632.72,605.99
117.22216,617.56,594.85
117.24427,600.78,566.36
117.26335,583.17,527.91
117.28418,559.27,488.06
117.30601,536.79,459.50
117.32668,520.22,432.74
117.34687,498.38,387.22
117.36693,487.38,394.34
117.38572,480.37,384.75
117.40575,475.38,371.51
117.42632,465.11,374.39
117.44549,462.74,376.19
117.46608,454.33,400.03
117.48554,454.80,396.16
117.50587,456.81,394.61
117.52643,454.10,371.11
117.54510,456.66,375.89
117.56694,458.49,375.18
117.58644,446.65,366.83
117.60534,440.75,359.38
117.62592,434.02,366.20
117.64620,428.55,360.64
117.66552,428.86,391.05
117.68656,431.31,402.15
117.70608,438.03,406.99
117.72584,444.56,419.38
117.74557,451.78,411.08
117.76608,449.97,445.41
117.78652,449.30,448.56
117.80501,458.62,452.27
117.82677,463.35,459.57
117.84511,464.87,457.73
117.86628,471.19,471.48
117.88686,471.33,473.40
117.90587,471.55,497.90
117.92578,479.85,525.07
117.94686,480.55,545.88
