Program Time [s],data 0,data 1
6.94730,537.74,515.63
6.96645,539.72,520.79
6.98567,541.24,521.18
7.00599,541.65,528.34
7.02675,539.39,529.29
7.04662,538.90,534.14
7.06631,539.96,538.17
7.08579,539.22,539.15
7.10583,535.75,541.03
7.12589,536.49,538.53
7.14735,537.20,544.61
7.16590,535.41,542.31
7.18666,534.28,545.17
7.20626,533.71,547.34
7.22616,536.47,545.44
7.24725,537.46,547.22
7.26666,534.90,550.75
7.28655,539.18,551.34
7.30748,537.34,552.81
7.32603,537.78,553.82
7.34564,540.57,553.50
7.36676,539.25,555.93
7.38725,537.97,556.96
7.40745,535.84,557.71
7.42627,539.88,558.03
7.44594,536.54,559.34
7.46734,536.37,555.98
7.48746,536.62,560.82
7.50643,534.98,559.85
7.52629,536.55,559.52
7.54719,538.53,560.73
7.56665,538.53,560.45
7.58693,535.87,560.45
7.60578,537.98,562.87
7.62611,536.78,559.82
7.64610,535.44,565.31
7.66700,539.01,564.65
7.68661,538.59,563.09
7.70751,537.58,560.65
7.72580,536.17,562.04
7.74580,535.73,562.46
7.76684,535.03,563.25
7.78700,533.15,562.30
7.80677,533.79,558.20
7.82594,534.34,556.38
7.84618,532.89,562.47
7.86716,533.49,562.02
7.88653,532.78,563.48
7.90609,533.64,567.83
7.92621,536.92,566.91
7.94700,535.30,565.52
7.96640,536.70,565.42
7.98733,532.66,569.18
8.00698,531.52,569.70
8.02613,535.03,568.30
8.04581,533.23,569.70
8.06683,535.63,569.77
8.08717,534.67,572.31
8.10616,535.70,569.59
8.12619,536.21,571.94
8.14676,537.74,566.67
8.16580,538.79,568.73
8.18655,538.28,568.32
8.20679,537.43,566.93
8.22720,539.14,564.76
8.24612,536.73,565.18
8.26540,535.92,565.09
8.28546,536.39,566.06
8.30737,535.58,567.33
8.32643,533.81,568.20
8.34690,536.01,566.60
8.36550,535.35,566.19
8.38749,535.43,566.47
8.40649,536.88,569.48
8.42703,536.64,562.77
8.44646,534.16,546.35
8.46677,531.63,523.00
8.48657,531.75,493.12
8.50579,529.00,465.98
8.52633,526.10,445.90
8.54619,523.82,431.00
8.56716,521.12,422.07
8.58705,519.43,417.73
8.60725,520.56,416.61
8.62658,519.85,416.51
8.64561,520.21,423.28
8.66636,521.59,434.89
8.68556,523.91,446.84
8.70578,521.53,457.54
8.72729,524.71,468.71
8.74624,525.79,477.86
8.76614,528.14,488.03
8.78753,528.76,498.58
8.80627,532.32,504.46
8.82620,531.31,512.58
8.84561,533.34,520.00
8.86715,531.92,524.30
8.88707,531.82,528.21
8.90621,531.02,534.78
8.92713,532.52,539.94
8.94563,533.56,545.46
8.96569,535.39,549.56
8.98751,534.82,552.98
9.00600,534.14,555.71
9.02643,535.23,557.83
9.04665,536.57,558.23
9.06595,537.67,560.09
9.08612,538.05,563.30
9.10548,536.27,561.74
9.12729,540.16,561.07
9.14586,537.80,561.63
9.16619,538.23,562.60
9.18666,538.00,561.27
9.20672,538.44,561.78
9.22653,536.07,559.01
9.24569,536.90,561.04
9.26667,536.57,560.61
9.28674,535.72,561.79
9.30724,534.58,564.23
9.32619,536.13,562.02
9.34739,534.50,561.17
9.36666,537.55,571.26
9.38742,537.60,603.11
9.40565,539.13,653.03
9.42670,543.35,706.19
9.44738,546.34,746.35
9.46548,548.63,766.30
9.48573,552.71,765.89
9.50706,552.46,754.04
9.52556,550.11,737.15
9.54712,551.57,716.95
9.56642,546.84,700.65
9.58711,546.46,680.91
9.60715,546.09,666.63
9.62619,544.46,652.29
9.64579,543.65,640.14
9.66639,541.36,630.66
9.68657,544.15,619.06
9.70748,540.30,612.94
9.72630,539.07,605.21
9.74633,535.99,597.49
9.76671,535.08,591.71
9.78568,536.85,586.05
9.80588,537.69,583.78
9.82568,536.64,578.71
9.84683,535.96,575.98
9.86739,532.93,573.48
9.88609,532.55,572.28
9.90743,533.50,570.84
9.92760,532.86,571.72
9.94783,533.72,571.40
9.96690,533.21,570.03
9.98811,535.23,570.66
10.00679,534.76,570.69
10.02792,534.58,571.12
10.04846,536.75,570.48
10.06752,533.28,570.91
10.08795,531.87,569.86
10.10681,534.25,568.43
10.12820,532.65,566.60
10.14895,532.96,569.54
10.16841,535.48,565.43
10.18783,536.68,565.98
10.20794,532.94,568.79
10.22841,532.52,566.25
10.24970,531.84,565.90
10.26919,532.37,562.90
10.28987,532.68,566.52
10.30844,533.67,564.65
10.32894,536.69,564.13
10.34826,535.07,567.47
10.36917,534.82,567.21
10.39060,535.43,566.72
10.40969,535.15,565.14
10.42915,535.49,568.04
10.44866,533.74,570.03
10.46930,532.22,566.29
10.48956,535.53,567.21
10.51048,534.79,565.96
10.52896,532.94,565.88
10.54834,532.62,566.39
10.56927,533.25,567.69
10.59057,534.68,567.07
10.60937,534.63,565.32
10.62893,531.31,568.89
10.64892,530.70,567.73
10.67002,531.39,568.01
10.68895,532.94,565.62
10.71031,532.93,569.14
10.73020,531.90,566.17
10.75002,532.66,568.84
10.76932,530.29,568.93
10.78981,533.54,568.64
10.81039,534.24,568.24
10.83011,534.40,569.64
10.84913,531.46,565.79
10.86903,532.14,566.18
10.88887,532.82,566.35
10.90966,533.15,567.62
10.92983,534.78,568.68
10.94909,532.42,566.84
10.96997,533.98,568.34
10.98981,535.32,566.84
11.00996,537.49,568.69
11.02865,535.20,567.75
11.04906,535.57,567.39
11.06969,537.44,567.41
11.09043,533.59,566.60
11.10916,535.29,564.75
11.13057,534.74,564.69
11.15057,533.44,567.40
11.16976,534.57,567.33
11.18925,532.31,568.76
11.20917,533.32,567.26
11.23039,533.14,567.11
11.25024,536.17,566.83
11.26914,535.16,566.19
11.28903,536.43,567.47
11.30935,535.92,567.58
11.32868,537.01,568.16
11.34922,537.82,565.82
11.36961,536.00,566.10
11.38879,537.56,563.72
11.40952,534.93,561.08
11.42980,537.66,549.23
11.44951,534.01,531.71
11.47019,535.73,513.57
11.48927,526.10,490.43
11.50977,524.25,470.74
11.52929,520.19,454.99
11.55006,518.07,439.79
11.56988,515.25,434.54
11.58855,514.19,433.17
11.60894,513.58,437.39
11.62905,514.79,441.67
11.65004,514.67,450.36
11.66924,518.11,464.04
11.68864,518.06,471.94
11.71026,521.07,481.45
11.72966,526.01,491.17
11.74918,522.88,496.99
11.76931,526.57,527.89
11.78935,524.13,579.33
11.80949,527.64,623.16
11.82978,529.86,660.86
11.84934,532.65,680.32
11.86857,537.99,689.81
11.88929,539.45,685.95
11.90856,539.43,677.50
11.92930,541.83,666.75
11.94907,537.48,653.28
11.97017,539.11,642.85
11.98945,537.94,631.14
12.00893,537.61,620.37
12.02865,535.17,611.89
12.04912,537.91,607.66
12.06928,540.00,603.14
12.08844,536.10,596.65
12.10946,538.44,591.59
12.13049,537.88,590.07
12.14951,538.74,588.21
12.17107,538.29,587.70
12.19032,536.96,582.92
12.20991,536.75,582.48
12.23148,538.28,579.49
12.24985,537.11,578.33
12.27013,535.30,577.43
12.29083,535.81,576.14
12.31037,535.79,575.89
12.33095,532.82,573.19
12.35067,533.00,574.63
12.37042,535.99,572.84
12.38977,536.04,571.91
12.41043,536.66,569.13
12.43084,535.11,569.08
12.45051,536.71,565.65
12.47025,536.82,566.18
12.49121,533.45,565.10
12.51012,533.62,565.34
12.53048,534.21,563.02
12.54989,532.32,562.66
12.57021,533.86,562.28
12.58980,535.24,564.64
12.60999,533.93,564.14
12.63062,536.39,564.00
12.65116,535.63,562.84
12.67131,536.96,563.84
12.69022,536.48,565.17
12.71094,534.21,564.78
12.73107,532.58,567.61
12.75105,534.57,564.79
12.77048,531.44,564.74
12.79069,534.65,565.57
12.81129,533.10,567.46
12.83028,534.76,564.81
12.84960,531.57,569.15
12.86993,531.44,567.62
12.89080,531.58,568.76
12.91116,533.61,569.18
12.93056,530.04,565.88
12.95161,531.99,567.20
12.97028,533.13,566.11
12.99073,530.17,568.08
13.01052,531.24,564.26
13.03044,532.96,564.25
13.05095,533.53,563.25
13.07020,530.78,564.64
13.09093,533.87,561.42
13.11111,533.87,563.50
13.13064,533.55,562.47
13.15082,531.52,560.87
13.17033,530.95,563.84
13.18962,533.97,563.58
13.21101,531.35,561.36
13.22964,533.07,563.24
13.25128,532.00,562.93
13.27096,533.66,562.60
13.28974,535.42,561.65
13.31045,535.80,561.10
13.33094,533.91,563.58
13.35021,534.07,565.25
13.37017,533.39,566.00
13.39083,533.21,565.50
13.41118,534.76,565.21
13.43112,534.59,563.75
13.45114,535.78,564.00
13.47039,533.67,563.21
13.48943,532.90,564.81
13.51040,535.03,564.27
13.53090,531.42,565.63
13.55004,534.51,563.01
13.57129,533.93,566.01
13.59068,533.60,563.94
13.60996,532.68,564.32
13.63087,531.55,565.12
13.64969,533.45,563.09
13.67087,535.54,564.59
13.69065,532.77,565.07
13.71061,531.34,562.58
13.73029,531.73,563.39
13.74973,529.72,561.48
13.77042,529.13,560.24
13.79040,530.51,562.03
13.80982,534.27,564.59
13.83097,530.62,564.40
13.84988,533.42,561.64
13.87141,534.01,563.34
13.89041,535.73,560.77
13.90920,536.40,561.49
13.92970,533.97,562.92
13.95123,533.63,561.73
13.97128,533.04,564.28
13.99131,533.51,563.08
14.01133,535.43,561.47
14.03021,535.44,561.64
14.05122,535.07,560.59
14.07002,534.06,562.59
14.09081,532.45,554.74
14.10963,529.24,537.36
14.12966,526.32,521.37
14.15083,524.49,499.06
14.16944,521.21,477.86
14.18951,517.09,457.27
14.20997,510.97,446.11
14.22996,510.85,431.93
14.24949,510.27,422.44
14.26945,510.67,423.42
14.28962,507.91,422.57
14.31069,509.63,426.73
14.33065,511.09,433.15
14.34972,515.81,442.60
14.36935,516.30,449.98
14.39017,516.27,461.30
14.41036,518.52,470.86
14.43147,516.84,484.06
14.45148,521.15,491.51
14.47086,522.42,500.02
14.49192,523.09,506.65
14.51229,523.88,512.89
14.53109,523.57,519.47
14.55131,523.60,525.25
14.57146,524.58,530.06
14.59143,527.79,532.78
14.61238,526.05,541.44
14.63206,527.44,540.87
14.65101,529.77,544.83
14.67142,530.65,549.05
14.69067,528.20,548.54
14.71204,533.30,551.12
14.73083,531.52,553.38
14.75191,531.63,555.79
14.77115,532.37,558.57
14.79128,537.57,579.48
14.81248,539.21,619.55
14.83051,544.34,668.46
14.85035,550.22,708.23
14.87090,556.30,740.21
14.89081,557.07,757.54
14.91112,559.91,759.79
14.93042,561.49,744.49
14.95230,559.32,728.88
14.97221,557.35,707.26
14.99089,553.26,690.50
15.01169,551.25,674.09
15.03219,549.89,658.93
15.05130,549.03,641.89
15.07111,544.51,629.21
15.09122,545.84,619.16
15.11124,541.68,608.27
15.13210,537.96,599.57
15.15062,540.01,596.16
15.17135,539.16,591.38
15.19110,538.04,586.10
15.21206,536.96,584.25
15.23093,536.42,579.50
15.25217,535.88,578.41
15.27191,536.62,573.72
15.29183,536.36,571.97
15.31135,534.17,572.44
15.33273,531.18,571.13
15.35162,531.25,571.06
15.37234,533.49,570.87
15.39134,531.57,569.15
15.41194,530.56,568.50
15.43220,529.37,567.39
15.45304,530.87,565.82
15.47347,529.47,566.41
15.49315,529.83,565.52
15.51406,529.84,567.35
15.53386,526.75,564.21
15.55411,525.32,565.16
15.57386,526.98,566.26
15.59285,528.63,564.46
15.61255,525.78,565.96
15.63391,524.61,563.76
15.65286,527.28,564.18
15.67384,523.55,564.11
15.69390,527.87,563.13
15.71243,528.73,562.52
15.73335,526.53,563.65
15.75252,527.95,566.27
15.77241,527.72,563.93
15.79301,528.26,563.97
15.81321,530.01,563.91
15.83393,530.46,565.80
15.85394,531.08,565.24
15.87376,530.18,563.40
15.89270,529.51,562.97
15.91426,530.56,563.53
15.93406,528.76,564.41
15.95393,529.84,565.40
15.97292,526.97,563.07
15.99264,526.77,566.43
16.01385,530.94,563.93
16.03377,529.87,567.15
16.05274,531.40,566.22
16.07269,530.32,566.16
16.09260,531.56,567.31
16.11400,530.77,563.96
16.13291,530.94,563.49
16.15342,529.40,563.67
16.17410,531.29,564.85
16.19310,532.48,564.69
16.21394,532.61,566.23
16.23353,530.42,564.46
16.25388,527.39,565.17
16.27279,528.05,567.45
16.29369,529.75,566.37
16.31294,529.83,563.09
16.33415,529.40,563.34
16.35388,530.30,563.82
16.37262,530.26,563.08
16.39336,531.67,564.32
16.41284,529.36,561.35
16.43421,527.79,565.31
16.45405,530.22,563.40
16.47266,528.13,562.32
16.49428,530.58,563.77
16.51262,527.55,564.39
16.53414,526.21,563.51
16.55254,525.19,561.31
16.57339,526.73,564.83
16.59320,526.26,564.78
16.61349,527.26,564.97
16.63413,529.18,566.29
16.65244,526.44,564.50
16.67260,527.30,565.13
16.69393,528.03,563.74
16.71348,527.48,562.11
16.73413,529.30,563.07
16.75357,529.31,561.51
16.77349,527.45,566.00
16.79242,527.87,562.86
16.81411,530.60,564.27
16.83341,531.41,565.29
16.85345,530.67,565.27
16.87287,532.74,566.57
16.89304,531.82,564.48
16.91265,532.99,564.17
16.93300,531.34,565.40
16.95342,531.55,563.86
16.97242,530.80,563.08
16.99252,532.26,564.68
17.01290,531.21,564.03
17.03232,530.15,564.88
17.05244,530.11,563.19
17.07334,532.00,562.66
17.09296,531.55,564.78
17.11419,529.50,565.06
17.13306,533.19,561.93
17.15305,530.69,560.91
17.17248,533.53,560.39
17.19255,531.89,561.85
17.21414,533.91,559.99
17.23330,531.31,560.49
17.25329,533.01,562.39
17.27406,534.02,564.97
17.29252,534.62,563.75
17.31282,535.03,566.13
17.33236,533.99,564.70
17.35268,535.78,568.85
17.37382,531.97,567.37
17.39275,529.39,562.62
17.41340,529.45,550.90
17.43245,526.52,535.84
17.45320,525.56,515.77
17.47327,522.16,496.12
17.49260,518.75,473.43
17.51379,515.78,458.39
17.53334,515.18,439.86
17.55359,511.74,429.94
17.57297,512.69,423.80
17.59341,511.67,419.06
17.61440,513.54,421.93
17.63234,514.02,428.24
17.65314,514.07,437.05
17.67365,517.62,447.48
17.69364,519.46,456.75
17.71364,518.35,469.13
17.73262,519.29,478.65
17.75356,520.42,488.26
17.77314,522.86,500.15
17.79329,528.66,506.70
17.81377,529.32,512.74
17.83329,530.07,519.34
17.85258,528.70,524.61
17.87287,530.61,529.85
17.89333,529.68,535.20
17.91288,532.29,540.67
17.93307,533.97,543.30
17.95351,533.86,545.73
17.97459,531.52,547.37
17.99395,529.61,550.42
18.01534,531.10,554.28
18.03468,528.12,559.75
18.05473,532.51,582.66
18.07481,535.87,622.91
18.09521,537.19,674.96
18.11430,540.34,719.99
18.13394,545.24,752.27
18.15445,543.03,760.23
18.17493,545.20,753.93
18.19405,544.39,739.46
18.21368,543.08,721.59
18.23456,541.01,704.97
18.25360,537.16,687.31
18.27375,536.68,665.88
18.29517,535.25,654.60
18.31493,534.15,636.16
18.33456,530.23,629.15
18.35501,529.25,617.99
18.37526,531.08,611.06
18.39369,530.55,601.78
18.41423,530.72,599.02
18.43493,531.47,595.60
18.45408,534.72,587.59
18.47353,533.20,587.86
18.49470,532.33,579.19
18.51413,533.26,577.73
18.53387,536.06,578.39
18.55329,533.71,577.98
18.57601,531.45,575.52
18.59597,530.46,572.79
18.61571,533.34,575.23
18.63568,529.54,574.88
18.65482,531.49,573.79
18.67445,530.34,572.95
18.69472,527.85,572.49
18.71487,528.90,568.87
18.73614,531.50,570.75
18.75432,527.98,569.48
18.77569,528.89,568.33
18.79463,529.12,567.26
18.81559,528.01,566.25
18.83612,528.83,569.10
18.85590,532.12,569.61
18.87542,530.29,568.42
18.89499,530.01,565.85
18.91563,530.57,566.87
18.93480,530.38,566.06
18.95626,527.44,567.48
18.97470,529.27,568.53
18.99616,531.33,567.56
19.01549,531.15,566.15
19.03465,526.14,565.68
19.05561,526.10,567.64
19.07517,527.31,567.31
19.09473,527.49,565.72
19.11440,527.49,566.88
19.13620,525.96,565.50
19.15543,523.45,565.56
19.17558,525.10,566.65
19.19489,526.14,565.41
19.21489,524.65,566.06
19.23544,527.23,564.83
19.25553,524.52,566.03
19.27597,527.91,566.17
19.29529,526.48,566.56
19.31503,528.22,564.74
19.33591,528.30,565.89
19.35597,527.13,564.82
19.37484,528.05,564.05
19.39627,529.81,566.60
19.41440,531.04,562.56
19.43567,529.54,562.91
19.45506,529.50,563.32
19.47578,531.29,565.12
19.49554,530.69,564.67
19.51622,530.55,562.63
19.53452,532.11,565.46
19.55497,528.53,567.77
19.57424,530.72,565.95
19.59582,530.06,567.19
19.61501,525.96,565.35
19.63616,527.31,565.77
19.65509,527.78,567.96
19.67495,526.07,567.38
19.69500,525.42,568.81
19.71523,523.62,566.52
19.73588,523.75,567.26
19.75531,524.63,565.32
19.77570,521.91,566.66
19.79474,523.34,565.74
19.81596,522.87,564.77
19.83515,523.59,566.26
19.85543,524.31,568.34
19.87456,524.75,567.86
19.89603,523.59,567.90
19.91596,524.54,565.67
19.93612,525.09,567.70
19.95464,522.86,567.63
19.97442,525.08,564.63
19.99540,526.08,566.90
20.01627,527.68,565.70
20.03638,527.16,566.42
20.05529,527.53,564.93
20.07445,527.48,565.58
20.09511,525.72,563.90
20.11514,526.57,564.40
20.13459,528.39,566.09
20.15483,525.22,564.06
20.17478,526.37,565.45
20.19568,524.55,562.39
20.21472,526.80,563.20
20.23618,526.55,562.48
20.25552,524.55,566.45
20.27622,529.60,563.29
20.29421,528.76,567.46
20.31522,526.15,565.91
20.33449,527.58,565.58
20.35594,527.34,563.39
20.37526,527.90,562.67
20.39448,526.62,564.94
20.41443,530.57,565.97
20.43584,527.76,564.92
20.45432,528.41,562.50
20.47610,527.97,563.92
20.49592,524.67,563.77
20.51433,527.72,565.40
20.53639,525.89,563.71
20.55567,526.15,565.47
20.57457,525.48,564.22
20.59597,525.27,562.38
20.61451,525.25,564.53
20.63592,526.09,563.96
20.65465,526.97,565.81
20.67453,524.73,565.45
20.69435,522.54,565.17
20.71502,522.24,565.26
20.73476,526.57,562.63
20.75506,527.64,564.39
20.77468,525.37,563.73
20.79431,527.33,564.84
20.81623,526.85,564.34
20.83518,526.56,562.00
20.85535,530.24,563.43
20.87563,526.99,562.78
20.89583,528.52,564.61
20.91591,525.94,561.36
20.93546,527.15,562.46
20.95633,529.50,564.18
20.97600,528.93,565.50
20.99565,528.33,565.42
21.01561,527.27,563.67
21.03520,529.16,567.04
21.05547,526.04,569.40
21.07669,524.97,566.98
21.09569,526.18,568.70
21.11693,527.09,568.46
21.13565,524.43,566.37
21.15655,524.54,569.12
21.17595,526.20,567.59
21.19675,526.26,564.44
21.21606,522.70,552.64
21.23563,518.17,532.68
21.25696,513.73,515.26
21.27689,508.20,495.44
21.29725,505.43,477.12
21.31621,499.16,465.89
21.33643,494.09,452.00
21.35585,494.12,446.15
21.37584,491.33,440.33
21.39637,493.70,437.68
21.41662,497.38,435.20
21.43632,497.93,438.39
21.45710,502.58,444.33
21.47713,508.30,449.86
21.49539,510.34,455.95
21.51712,516.66,465.70
21.53649,519.05,476.02
21.55663,518.66,483.94
21.57663,520.71,494.72
21.59532,522.83,501.63
21.61543,522.67,510.26
21.63617,523.11,515.58
21.65723,526.81,523.22
21.67552,523.18,525.94
21.69715,521.82,529.00
21.71648,521.33,531.75
21.73555,521.34,533.45
21.75554,520.79,537.15
21.77553,521.73,542.76
21.79612,522.43,544.69
21.81696,520.31,548.98
21.83585,520.56,549.11
21.85618,519.59,556.97
21.87528,524.12,576.21
21.89677,523.83,609.92
21.91627,522.84,647.21
21.93659,522.83,676.31
21.95596,527.05,703.31
21.97682,531.68,724.50
21.99639,538.60,732.84
22.01628,541.21,725.86
22.03578,540.79,715.19
22.05663,542.61,700.69
22.07683,542.19,682.64
22.09614,541.19,664.18
22.11663,543.28,649.07
22.13521,542.48,639.95
22.15706,540.03,626.60
22.17568,538.96,621.56
22.19520,542.10,618.39
22.21614,545.00,610.45
22.23602,542.30,608.43
22.25601,546.49,600.45
22.27561,547.30,597.24
22.29670,544.13,591.56
22.31618,542.69,589.70
22.33706,540.17,584.99
22.35611,538.08,579.95
22.37639,535.51,577.71
22.39566,530.64,576.11
22.41651,529.48,573.68
22.43748,529.56,573.55
22.45705,528.92,569.60
22.47718,527.44,571.79
22.49556,528.10,571.00
22.51551,524.60,572.22
22.53611,524.71,571.27
22.55717,525.38,571.05
22.57625,526.45,573.65
22.59646,526.89,571.18
22.61575,523.93,570.32
22.63689,524.84,570.51
22.65603,522.40,572.80
22.67539,526.79,570.09
22.69539,523.83,572.50
22.71571,526.03,572.84
22.73711,525.62,568.66
22.75693,526.19,570.33
22.77652,527.04,566.80
22.79594,526.25,568.01
22.81533,526.38,568.42
22.83625,527.94,567.87
22.85688,526.99,565.40
22.87708,528.15,567.16
22.89524,529.03,567.08
22.91540,526.68,565.21
22.93513,526.11,566.47
22.95639,524.00,566.60
22.97548,525.22,563.22
22.99631,525.09,565.89
23.01705,524.22,563.40
23.03705,524.49,565.47
23.05577,524.55,564.01
23.07702,522.79,567.05
23.09655,524.16,564.69
23.11620,522.67,564.95
23.13571,524.16,564.32
23.15674,524.40,568.30
23.17572,521.49,568.95
23.19604,525.76,568.06
23.21650,523.78,570.24
23.23771,525.89,570.78
23.25769,523.52,570.74
23.27736,524.44,572.09
23.29691,522.33,568.62
23.31648,520.82,567.88
23.33819,522.46,567.86
23.35763,522.45,565.25
23.37830,520.10,566.70
23.39889,520.84,566.88
23.41885,520.87,566.87
23.43978,518.22,567.66
23.46002,520.16,565.21
23.47825,517.98,567.92
23.49809,520.22,565.57
23.51988,518.38,567.88
23.53890,515.48,567.56
23.56007,518.38,568.55
23.57952,518.33,566.44
23.59886,516.05,563.85
23.61925,516.49,564.40
23.63868,515.77,562.99
23.65937,518.56,564.81
23.67987,519.69,566.63
23.69997,519.21,562.54
23.71862,518.33,562.85
23.73885,518.85,563.27
23.75878,516.83,563.98
23.78000,516.83,563.85
23.79845,516.53,563.73
23.81874,514.67,563.26
23.83855,515.46,562.40
23.85842,518.01,561.66
23.87912,517.04,563.41
23.89968,518.31,562.49
23.91993,518.61,561.26
23.93891,518.67,563.56
23.95984,516.18,563.94
23.97849,516.30,562.47
23.99984,517.04,561.11
24.01903,516.02,561.32
24.03876,520.95,563.19
24.05863,517.06,562.31
24.07836,518.07,561.52
24.10016,518.66,560.33
24.11948,516.78,560.64
24.13985,519.00,563.61
24.15970,520.22,560.56
24.17897,519.59,561.37
24.19998,519.20,563.01
24.21849,521.66,561.27
24.23847,519.15,560.05
24.25976,520.27,561.38
24.27943,519.01,563.26
24.30018,517.25,559.63
24.31853,517.29,561.77
24.33978,517.97,561.05
24.35991,520.25,559.86
24.37838,520.55,559.47
24.39909,519.64,562.32
24.41852,521.56,562.51
24.43888,524.36,560.46
24.45846,523.16,560.99
24.47913,521.35,561.60
24.49892,521.73,562.68
24.51956,519.35,561.72
24.53989,520.69,561.28
24.55963,518.75,561.05
24.57919,519.25,563.58
24.59980,519.28,562.97
24.61850,519.31,562.39
24.64019,518.21,561.99
24.65931,519.70,559.22
24.67930,521.61,562.39
24.69904,520.99,559.23
24.71929,519.91,561.28
24.73843,516.97,560.09
24.75907,518.85,560.52
24.77997,518.97,562.35
24.79980,515.06,561.06
24.81833,516.38,561.37
24.83906,517.04,561.31
24.85927,520.61,559.40
24.87858,517.50,559.62
24.89995,518.66,559.28
24.92010,517.45,561.06
24.93860,519.45,560.14
24.95932,518.88,564.04
24.97921,519.35,562.92
24.99896,518.88,562.53
25.01987,518.90,562.89
25.04005,517.85,564.62
25.05892,519.83,564.96
25.07827,519.12,563.30
25.09822,518.87,565.34
25.12016,518.33,562.53
25.13863,519.20,561.75
25.15976,521.69,563.06
25.17966,520.47,561.76
25.19919,519.59,561.40
25.21960,518.62,564.46
25.23832,519.30,564.66
25.25873,519.63,560.76
25.27834,517.20,547.85
25.29878,515.58,526.20
25.31890,508.57,505.19
25.34008,506.58,485.25
25.35934,505.40,471.05
25.37993,503.37,457.00
25.39992,500.48,443.33
25.41953,497.83,435.05
25.43941,497.88,433.52
25.45839,497.17,432.76
25.47838,500.72,430.79
25.50023,499.71,435.83
25.51877,501.02,443.16
25.53898,503.66,449.76
25.55923,501.88,461.41
25.57836,505.18,469.82
25.59847,506.89,480.60
25.61944,509.92,489.41
25.63937,510.57,494.96
25.65889,513.78,505.37
25.67936,518.32,514.53
25.69851,519.63,522.82
25.72000,518.26,527.81
25.73856,520.06,532.02
25.75900,520.06,535.02
25.77817,523.51,541.17
25.79942,519.00,544.19
25.81821,519.68,554.43
25.83926,522.02,587.37
25.85975,522.79,632.36
25.87996,525.69,678.70
25.89919,526.89,716.70
25.91930,533.75,736.55
25.93924,535.07,735.50
25.95839,535.39,730.40
25.97813,533.59,717.13
25.99855,535.02,699.91
26.02018,533.09,683.43
26.03821,532.10,665.56
26.05848,527.77,652.21
26.07834,529.56,643.53
26.09829,524.53,631.92
26.11992,526.29,620.92
26.13904,522.50,612.97
26.15844,525.66,609.23
26.17862,525.28,601.99
26.19884,520.88,591.87
26.21841,521.83,590.62
26.23842,518.12,583.45
26.25880,519.34,579.84
26.27866,517.80,577.95
26.29989,519.21,577.03
26.31970,521.22,572.74
26.33891,519.51,571.99
26.35936,520.37,570.07
26.37898,521.65,571.97
26.39897,521.25,570.32
26.41958,520.42,568.09
26.43920,521.00,568.26
26.45952,521.31,566.42
26.47901,520.37,568.48
26.49949,521.84,567.60
26.52027,520.82,565.44
26.53913,522.15,567.10
26.55864,521.05,566.70
26.57879,520.53,564.77
26.59879,520.22,565.83
26.62003,521.11,563.11
26.63829,521.26,564.90
26.65919,521.92,566.06
26.67936,523.00,563.40
26.69978,519.63,564.60
26.72040,519.63,565.78
26.74078,518.44,566.16
26.75992,515.91,565.01
26.78003,518.22,565.83
26.79954,517.22,567.18
26.82118,517.22,564.49
26.83983,516.39,563.52
26.85930,515.74,564.56
26.87979,518.05,563.60
26.90049,516.09,559.60
26.92066,514.88,559.87
26.94070,515.38,558.30
26.95946,515.10,560.44
26.97928,515.94,557.84
26.99988,513.97,558.45
27.02078,515.86,558.68
27.03914,516.46,558.51
27.06020,516.92,559.30
27.08073,516.02,559.94
27.10075,515.39,558.90
27.12056,516.98,561.29
27.14102,518.70,563.96
27.15953,518.14,565.00
27.18012,516.39,562.60
27.20011,519.95,564.73
27.21942,517.74,564.70
27.24065,520.06,564.66
27.26008,518.62,562.39
27.27934,519.55,563.24
27.29962,519.87,562.70
27.32004,521.48,561.01
27.33996,518.57,564.93
27.36023,518.36,565.64
27.38044,518.31,562.41
27.39897,521.64,562.78
27.42057,517.35,565.21
27.44079,520.17,564.67
27.45992,517.55,564.15
27.48010,519.00,565.15
27.50017,517.93,564.81
27.52021,516.38,564.66
27.54096,515.67,565.11
27.56007,513.76,563.20
27.57949,513.35,564.07
27.60020,515.83,564.22
27.62112,514.27,561.76
27.63986,513.46,563.73
27.66013,513.11,561.87
27.68092,513.68,563.90
27.70069,516.12,562.85
27.71983,515.43,561.42
27.73993,515.61,564.39
27.76020,515.18,560.60
27.78101,517.77,563.30
27.79994,516.62,562.79
27.81946,519.73,561.37
27.83972,519.28,561.59
27.86020,515.84,562.36
27.88074,518.84,558.03
27.89912,519.45,559.26
27.92055,516.52,561.18
27.93990,516.61,561.19
27.95924,519.76,560.66
27.98054,519.61,559.69
28.00117,519.14,562.61
28.01930,520.84,562.29
28.04083,517.29,562.12
28.05920,514.84,561.78
28.08081,516.83,560.37
28.10009,516.18,562.59
28.12099,517.83,562.47
28.14058,518.76,561.42
28.16039,516.12,565.25
28.18089,516.22,562.26
28.20080,515.81,564.43
28.21952,517.91,564.87
28.24026,517.35,562.81
28.25943,518.53,561.89
28.28055,517.55,563.64
28.30037,518.23,564.51
28.32028,516.22,564.62
28.34024,515.01,562.74
28.36062,516.55,563.89
28.38122,514.75,563.75
28.40057,518.16,563.50
28.42101,514.79,564.83
28.43937,517.55,562.06
28.46067,518.35,563.15
28.47975,516.75,565.18
28.49931,515.40,564.86
28.51956,515.92,565.57
28.54102,515.83,562.12
28.55974,518.96,565.31
28.58001,517.86,565.67
28.60044,516.24,564.31
28.62035,515.20,565.70
28.64059,516.80,565.77
28.66051,514.86,563.29
28.67994,516.88,564.93
28.69967,517.32,563.57
28.72034,516.76,564.27
28.74094,516.57,566.25
28.75947,514.56,565.70
28.77984,515.99,563.93
28.80093,515.15,565.51
28.81935,517.87,566.08
28.83979,518.08,563.13
28.86061,515.80,562.96
28.87957,516.01,564.44
28.90067,520.19,564.71
28.92078,518.11,561.50
28.94068,519.26,563.73
28.96037,521.04,563.51
28.97984,518.03,564.12
29.00014,519.00,561.29
29.02067,518.43,561.80
29.04089,517.50,561.71
29.06103,517.94,563.20
29.07941,518.69,564.56
29.09982,516.36,563.07
29.12022,518.85,561.21
29.14009,516.00,562.96
29.15990,517.81,559.76
29.18041,517.07,559.55
29.19977,518.45,560.48
29.22103,519.04,557.96
29.24039,517.76,559.54
29.26051,519.26,558.49
29.28029,518.81,558.66
29.29986,521.18,560.78
29.32051,519.86,558.88
29.33989,518.90,561.17
29.36007,518.79,560.82
29.37981,520.92,560.21
29.40057,519.59,562.06
29.42017,518.57,563.00
29.43936,520.32,562.04
29.45992,517.88,563.22
29.48009,521.75,564.06
29.50108,519.50,562.15
29.52079,519.40,564.06
29.54050,521.66,560.60
29.55984,518.08,562.62
29.57968,519.69,561.22
29.59951,517.39,562.20
29.62022,515.62,561.59
29.63923,517.74,561.47
29.66089,516.27,558.16
29.67986,514.30,550.92
29.70037,509.54,535.03
29.72036,505.82,514.03
29.74003,501.01,493.19
29.76103,498.08,472.23
29.78068,497.89,457.70
29.79923,496.19,443.15
29.82085,495.94,432.90
29.84194,492.68,426.42
29.86107,495.51,423.62
29.88173,498.29,425.19
29.90109,499.06,430.75
29.92183,501.02,436.28
29.94157,502.95,445.90
29.96075,506.24,456.61
29.98103,509.60,468.25
30.00162,509.06,476.19
30.02013,509.77,485.88
30.04177,510.06,494.94
30.06090,513.16,503.91
30.08166,512.83,508.75
30.10089,518.15,517.24
30.12112,517.10,523.10
30.14175,520.33,526.68
30.16188,518.71,531.70
30.18084,517.97,536.66
30.20148,517.14,543.09
30.22190,521.23,543.37
30.24114,520.08,544.39
30.26017,518.83,556.97
30.28144,520.81,589.19
30.30010,517.08,631.25
30.32059,519.36,677.93
30.34113,525.23,717.86
30.36208,526.46,747.96
30.38199,530.46,752.42
30.39991,529.84,742.83
30.42174,530.27,726.49
30.44183,529.72,711.72
30.46083,531.44,692.81
30.48035,528.37,674.30
30.50150,526.74,658.74
30.52092,525.41,644.70
30.54140,523.44,634.39
30.56104,525.47,621.86
30.58047,525.12,613.81
30.60174,522.55,604.51
30.62081,523.70,598.08
30.64177,521.91,589.94
30.66141,520.29,584.71
30.68071,519.18,581.85
30.70196,520.21,577.86
30.72116,517.83,575.57
30.74095,517.63,570.53
30.76197,518.28,569.27
30.78221,517.65,566.95
30.80200,518.28,566.88
30.82107,517.25,563.98
30.84055,513.95,562.72
30.86167,515.21,560.55
30.88166,516.26,560.88
30.90146,518.05,560.02
30.92125,514.96,562.59
30.94073,516.70,562.04
30.96026,516.77,562.06
30.98011,518.60,571.60
31.00130,521.94,589.86
31.02017,524.13,618.87
31.04106,527.01,645.97
31.06044,525.41,657.43
31.08117,526.84,648.72
31.10074,523.29,633.84
31.12183,522.61,614.96
31.14158,521.30,594.45
31.16082,520.11,578.44
31.18134,519.12,561.00
31.20038,515.78,549.23
31.22190,514.64,538.86
31.24024,512.07,532.37
31.26165,511.72,527.70
31.28041,514.77,526.02
31.30114,513.71,525.59
31.32037,512.45,528.75
31.34123,512.54,526.33
31.36015,512.55,528.74
31.38152,513.44,531.70
31.40087,515.82,535.94
31.42023,517.93,536.08
31.44099,515.40,538.14
31.46155,517.31,539.69
31.48047,515.71,540.15
31.50081,514.16,541.92
31.52167,513.25,546.77
31.54065,515.18,549.17
31.56152,513.17,549.11
31.58164,512.83,552.64
31.60047,514.86,551.71
31.62045,513.93,552.64
31.64055,514.13,555.00
31.66208,514.79,558.51
31.68078,512.44,558.16
31.70105,513.93,556.56
31.72140,515.94,557.76
31.74157,515.30,557.60
31.76131,514.68,558.24
31.78086,516.00,561.02
31.80156,513.84,558.67
31.82167,517.35,560.63
31.84106,518.22,561.03
31.86091,517.21,558.82
31.88119,515.18,561.25
31.90188,514.06,560.80
31.92053,516.48,560.46
31.94111,515.54,561.33
31.96068,515.20,559.68
31.98119,514.18,561.11
32.00100,517.23,558.30
32.02152,517.77,561.81
32.04167,515.26,557.33
32.06122,516.05,557.68
32.08116,515.54,559.21
32.10164,514.33,561.24
32.12034,514.06,559.06
32.14139,516.26,560.78
32.16132,517.90,561.36
32.18013,516.95,562.66
32.20129,517.79,561.28
32.22186,515.98,558.51
32.24152,514.47,561.36
32.26148,513.51,560.00
32.28144,517.63,558.88
32.30070,515.94,557.60
32.32013,515.58,560.75
32.34207,514.90,557.31
32.36151,517.94,559.81
32.38170,519.54,557.02
32.40043,519.06,559.08
32.42022,517.60,560.84
32.44111,516.68,560.20
32.46063,519.64,559.46
32.48071,516.23,560.47
32.50139,518.30,560.91
32.52041,517.50,560.96
32.54110,515.01,560.84
32.56046,514.50,558.65
32.58065,516.13,559.68
32.60102,516.31,561.70
32.62183,518.10,562.02
32.64015,515.33,561.38
32.66017,518.42,559.90
32.68181,518.59,558.68
32.70091,518.31,560.44
32.72087,514.92,560.30
32.74141,515.06,558.53
32.76150,517.19,556.89
32.78197,515.77,556.82
32.80114,516.49,558.10
32.82106,513.02,556.95
32.84095,514.23,557.77
32.86199,515.48,560.16
32.88042,517.04,560.29
32.90142,515.62,560.17
32.92070,514.84,556.79
32.94190,513.12,557.55
32.96174,515.45,558.41
32.98029,514.17,557.53
33.00026,515.53,560.00
33.02102,516.14,559.42
33.04175,517.28,561.33
33.06046,513.34,561.09
33.08000,511.85,559.15
33.10019,511.18,559.42
33.12204,511.92,559.30
33.14199,514.12,559.03
33.16156,514.63,560.69
33.18161,515.43,562.35
33.20117,514.74,559.87
33.21996,514.47,559.96
33.24189,514.60,560.05
33.26200,514.66,563.35
33.28006,516.99,562.55
33.30021,517.01,563.10
33.32035,518.29,560.88
33.34037,515.11,560.70
33.36097,517.10,561.09
33.38168,514.50,559.80
33.40147,517.87,558.22
33.42042,517.94,557.52
33.44013,515.17,559.37
33.46152,519.14,557.05
33.48023,516.54,558.68
33.50086,517.33,556.09
33.52152,515.96,555.76
33.54110,516.70,556.68
33.56017,514.27,558.99
33.58132,515.29,555.80
33.60081,516.08,557.42
33.62072,511.83,559.40
33.64164,513.85,558.94
33.66090,513.13,558.31
33.68095,513.73,559.37
33.70058,514.16,559.07
33.72131,514.07,557.71
33.74101,514.64,559.07
33.76171,515.95,558.76
33.78069,513.58,553.57
33.80111,511.71,544.14
33.82040,509.36,531.16
33.84061,506.79,516.04
33.86066,502.26,496.98
33.88160,495.06,483.69
33.90089,493.58,468.98
33.92089,487.03,456.33
33.94037,488.37,444.00
33.96153,490.12,439.78
33.98124,490.84,434.25
34.00134,494.90,430.79
34.02082,497.95,433.13
34.04024,502.19,439.34
34.06121,504.97,446.15
34.08142,507.19,455.84
34.10072,509.02,465.62
34.12170,510.80,476.28
34.14142,514.28,482.79
34.16172,516.36,492.24
34.18085,514.05,502.17
34.19995,516.68,506.01
34.22176,518.49,511.84
34.24079,519.95,514.78
34.26132,519.01,517.84
34.28187,518.67,521.54
34.30188,520.26,526.47
34.32171,519.61,532.43
34.34075,516.21,533.19
34.36174,516.83,537.92
34.38018,516.48,537.73
34.40094,518.80,538.83
34.42032,518.26,556.80
34.44132,519.82,590.70
34.46003,520.40,635.13
34.48187,521.27,680.00
34.50145,527.10,717.44
34.52121,530.20,739.34
34.54009,532.76,743.62
34.56179,532.81,730.50
34.58027,529.39,718.29
34.60143,528.00,698.56
34.62044,529.43,682.89
34.63992,526.27,667.96
34.66285,526.91,650.35
34.68151,526.60,638.51
34.70260,522.09,624.77
34.72204,523.97,614.34
34.74208,522.42,606.76
34.76160,522.13,598.51
34.78145,519.79,594.51
34.80182,518.58,586.06
34.82342,521.93,585.33
34.84552,520.25,580.43
34.86398,518.98,574.02
34.88424,519.83,571.36
34.90483,523.02,571.83
34.92601,523.95,567.34
34.94501,524.68,568.16
34.96557,525.84,568.49
34.98546,527.00,567.19
35.00653,526.59,567.07
35.02680,525.87,563.07
35.04664,526.30,563.74
35.06663,528.44,563.41
35.08598,526.78,560.26
35.10775,528.96,563.38
35.12729,530.62,560.85
35.14822,530.81,561.06
35.16739,531.25,563.79
35.18750,529.37,564.32
35.20796,530.82,561.91
35.22867,529.25,562.31
35.24875,529.88,560.37
35.26740,529.64,560.11
35.28927,532.34,561.91
35.30826,533.16,559.43
35.32959,532.38,562.49
35.34966,533.63,559.22
35.36854,535.03,561.11
35.38940,537.43,559.05
35.40989,534.58,559.62
35.42852,535.10,558.60
35.44784,534.24,561.07
35.46910,537.74,562.76
35.48803,538.37,559.49
35.50937,538.83,563.74
35.52834,537.65,562.81
35.54972,533.27,563.22
35.56868,532.77,561.82
35.58887,536.50,562.85
35.60894,534.86,562.14
35.62906,535.81,562.02
35.64816,535.77,562.75
35.66857,531.67,563.73
35.68904,534.26,563.23
35.70843,533.38,561.33
35.72861,532.30,560.87
35.74813,531.64,561.79
35.76956,535.22,563.35
35.78864,534.59,565.30
35.80871,533.65,562.16
35.82792,534.23,562.55
35.84969,532.87,562.46
35.86847,533.37,561.98
35.88959,535.39,564.92
35.90842,534.21,561.27
35.92815,537.03,562.31
35.94894,536.26,561.49
35.96908,536.09,561.18
35.98845,537.72,562.56
36.00867,538.52,564.09
36.02780,535.34,565.78
36.04836,537.27,563.18
36.06801,538.36,562.73
36.08902,537.88,564.07
36.10884,535.47,563.12
36.12848,533.77,567.01
36.14806,536.39,564.26
36.16904,536.76,564.49
36.18910,535.73,562.33
36.20805,534.98,562.47
36.22885,536.79,562.48
36.24871,534.41,562.20
36.26823,536.61,562.44
36.28888,537.99,563.62
36.30979,534.59,564.01
36.32845,534.02,563.98
36.34832,536.45,562.46
36.36902,533.81,564.67
36.38809,533.07,565.25
36.40807,536.34,565.65
36.43010,534.59,564.82
36.44818,536.48,565.33
36.46950,536.22,563.43
36.48869,537.65,566.56
36.50800,535.77,563.03
36.53029,535.89,565.17
36.55124,537.79,565.23
36.57065,538.97,566.94
36.59170,539.63,566.48
36.61086,540.77,563.19
36.63355,534.64,563.00
36.65315,535.99,566.43
36.67482,532.95,564.30
36.69570,531.76,564.78
36.71571,532.39,565.89
36.73539,528.56,562.71
36.75537,529.73,563.06
36.77547,527.23,563.86
36.79474,525.00,564.25
36.81727,525.74,565.26
36.83592,524.59,564.28
36.85671,522.29,563.99
36.87828,517.39,561.84
36.89847,519.55,561.93
36.91869,517.12,561.62
36.93900,513.88,561.09
36.95901,514.99,559.44
36.97881,514.78,562.25
36.99922,517.43,563.58
37.01841,517.24,564.11
37.03801,517.23,563.18
37.05899,516.26,562.60
37.07980,519.19,563.03
37.09817,517.07,561.87
37.11878,518.48,563.37
37.13793,517.07,561.10
37.15811,515.80,563.09
37.17957,514.15,559.64
37.19956,513.21,562.19
37.21929,514.53,560.82
37.23880,512.16,563.16
37.25843,514.50,560.86
37.27771,514.00,561.47
37.29924,515.63,562.02
37.31782,516.36,561.02
37.33855,514.21,559.07
37.35790,515.84,561.95
37.37856,514.77,560.52
37.39892,512.45,561.65
37.41874,510.16,559.61
37.43903,508.92,559.84
37.45947,512.68,559.70
37.47957,513.19,558.71
37.50030,511.74,558.84
37.51931,510.09,558.36
37.54089,512.75,558.61
37.55943,514.57,560.09
37.58011,513.95,560.62
37.59969,516.29,559.42
37.61979,515.88,561.54
37.63956,516.52,557.82
37.65954,515.58,559.61
37.67997,513.91,558.35
37.69993,513.49,558.05
37.71962,515.48,559.16
37.73987,515.42,557.42
37.75902,515.13,560.21
37.78070,518.60,557.31
37.79917,515.94,560.40
37.81958,518.07,556.62
37.83997,514.93,558.59
37.85981,515.13,561.26
37.88044,514.11,557.71
37.90167,515.70,545.67
37.92087,513.70,530.18
37.94255,516.27,515.12
37.96184,515.01,496.85
37.98081,515.08,483.46
38.00088,516.13,467.89
38.02205,514.00,452.79
38.04150,512.97,444.63
38.06108,512.48,434.58
38.08147,510.59,432.72
38.10229,507.68,429.32
38.12225,506.93,433.46
38.14188,508.73,437.39
38.16184,508.79,440.95
38.18175,512.41,449.75
38.20190,512.53,456.54
38.22122,513.78,468.84
38.24092,515.36,474.83
38.26133,513.29,484.23
38.28167,512.00,492.24
38.30112,512.91,502.04
38.32203,516.05,508.15
38.34209,514.33,513.60
38.36184,515.29,519.60
38.38148,514.82,525.04
38.40140,513.77,533.92
38.42264,514.91,539.65
38.44147,510.76,563.57
38.46267,514.95,593.56
38.48262,515.08,633.20
38.50193,517.21,671.80
38.52263,521.45,705.94
38.54311,526.19,725.96
38.56325,527.29,732.60
38.58205,527.84,725.69
38.60313,529.96,712.65
38.62319,528.47,695.15
38.64208,529.98,682.01
38.66245,525.03,664.39
38.68179,525.63,650.96
38.70211,524.08,638.33
38.72369,525.50,626.87
38.74387,529.26,616.57
38.76325,529.01,606.62
38.78427,527.77,602.18
38.80460,530.13,593.90
38.82521,532.00,590.51
38.84519,530.14,585.97
38.86600,532.46,583.67
38.88837,535.15,583.18
38.90852,535.98,580.39
38.92802,534.03,575.58
38.94814,535.30,575.51
38.96680,535.72,569.96
38.98827,535.28,570.01
39.00733,536.96,568.18
39.02715,536.19,566.36
39.04868,536.24,564.52
39.06831,537.63,564.47
39.08670,536.51,565.80
39.10865,535.73,563.21
39.12824,535.30,564.93
39.14865,537.21,563.89
39.16806,536.06,561.76
39.18814,534.49,564.74
39.20855,533.97,562.44
39.22777,536.27,565.75
39.24699,538.64,567.24
39.26810,537.64,565.16
39.28809,535.27,564.87
39.30718,535.50,565.12
39.32691,537.97,564.03
39.34783,535.75,563.71
39.36864,536.81,567.18
39.38859,536.05,565.67
39.40842,536.09,565.48
39.42820,536.06,568.35
39.44859,535.69,566.00
39.46793,535.19,567.04
39.48830,534.43,566.34
39.50952,538.63,566.81
39.52950,535.17,564.04
39.54906,535.51,564.06
39.56765,537.07,564.68
39.58932,535.87,567.62
39.60773,535.14,567.07
39.62894,536.49,564.07
39.64773,536.72,568.31
39.66781,537.39,566.34
39.68875,535.39,565.71
39.70794,535.15,567.68
39.72978,535.22,566.59
39.74780,538.36,565.12
39.76909,537.72,566.22
39.78846,535.39,565.01
39.80773,536.15,564.71
39.82918,533.57,566.33
39.84900,534.77,560.19
39.87021,535.52,546.28
39.88970,533.21,524.65
39.90988,530.94,503.38
39.93009,529.33,486.39
39.95047,526.86,475.35
39.96868,525.85,476.02
39.98871,527.10,477.52
40.01016,525.08,482.43
40.02992,524.58,490.04
40.05059,526.52,495.55
40.06903,529.20,504.48
40.08890,528.63,510.76
40.10993,529.30,517.18
40.12927,530.29,524.05
40.14921,532.06,534.84
40.16877,533.14,542.36
40.19068,532.71,550.71
40.21038,535.64,561.80
40.22958,536.86,578.60
40.24999,540.06,610.30
40.26933,547.49,665.37
40.28936,551.93,716.75
40.30941,555.33,750.81
40.32952,559.50,761.17
40.35086,559.68,757.41
40.36883,557.41,733.53
40.38996,553.14,704.96
40.41063,544.24,671.64
40.42926,538.22,640.71
40.44944,538.47,615.04
40.46933,537.28,596.40
40.48920,534.65,578.50
40.50931,531.14,570.40
40.53046,530.01,581.17
40.55079,535.08,609.96
40.57053,539.64,635.17
40.59010,542.28,636.46
40.61111,546.02,624.10
40.62983,545.35,605.69
40.65005,539.83,582.99
40.67126,541.21,567.03
40.68992,540.78,556.45
40.71130,540.03,555.90
40.73138,541.06,579.94
40.75387,541.68,611.26
40.77266,541.23,630.49
40.79209,539.10,635.31
40.81285,542.30,625.05
40.83205,540.59,606.19
40.85190,536.21,596.59
40.87340,546.20,594.99
40.89300,556.97,610.10
40.91296,565.82,626.72
40.93431,574.77,640.94
40.95363,582.65,654.18
40.97263,588.29,662.36
40.99456,593.08,674.28
41.01307,597.19,675.95
41.03340,596.59,681.73
41.05433,594.92,679.74
41.07442,593.03,675.27
41.09450,588.88,672.03
41.11395,582.39,667.34
41.13345,577.74,655.61
41.15288,567.00,649.07
41.17362,561.97,640.93
41.19417,555.13,636.03
41.21427,549.40,631.25
41.23393,545.23,624.92
41.25349,540.10,621.80
41.27360,535.73,618.22
41.29348,532.28,613.63
41.31452,527.48,608.61
41.33330,522.63,599.08
41.35410,508.20,579.04
41.37401,493.41,548.72
41.39469,475.77,508.73
41.41428,456.86,468.14
41.43426,446.13,439.15
41.45376,443.50,409.37
41.47321,442.28,392.87
41.49410,446.08,376.93
41.51360,452.58,374.72
41.53459,456.46,371.43
41.55347,461.70,374.86
41.57392,468.76,377.08
41.59275,471.19,384.08
41.61373,474.81,393.69
41.63356,478.94,401.93
41.65449,481.46,409.84
41.67384,480.41,416.67
41.69321,485.92,423.68
41.71386,485.64,437.89
41.73313,490.75,450.20
41.75294,491.88,476.76
41.77360,501.02,513.84
41.79316,508.65,563.28
41.81433,514.72,595.26
41.83317,514.90,603.27
41.85449,514.67,595.62
41.87371,515.51,584.40
41.89332,516.79,568.01
41.91395,515.52,550.55
41.93278,514.49,532.19
41.95271,517.44,519.82
41.97351,515.77,509.96
41.99410,515.39,498.54
42.01315,513.67,494.17
42.03406,516.11,493.47
42.05434,513.89,489.31
42.07449,513.35,491.05
42.09436,514.45,492.86
42.11431,516.95,497.74
42.13271,513.96,498.90
42.15566,515.34,505.76
42.17453,516.97,506.48
42.19507,517.50,514.29
42.21471,516.28,517.10
42.23528,516.74,520.42
42.25416,515.71,523.05
42.27469,513.98,522.20
42.29403,514.76,525.65
42.31432,513.19,525.35
42.33391,516.98,528.66
42.35420,514.21,528.46
42.37544,513.08,533.54
42.39517,512.68,535.28
42.41437,514.66,539.41
42.43484,516.38,539.78
42.45462,518.39,539.96
42.47387,518.12,545.69
42.49443,519.24,547.60
42.51541,515.77,550.67
42.53466,514.47,552.69
42.55484,515.47,553.18
42.57516,515.45,554.33
42.59537,517.34,552.42
42.61669,515.17,550.09
42.63761,514.85,551.05
42.65577,514.83,550.58
42.67741,515.45,551.28
42.69779,515.53,550.71
42.71838,518.57,553.36
42.73682,519.04,555.11
42.75709,517.31,558.61
42.77861,521.85,559.75
42.79888,525.34,561.17
42.82032,526.18,565.50
42.84057,525.60,564.24
42.86027,525.43,564.33
42.87984,526.27,564.22
42.90065,526.51,562.26
42.92188,526.84,564.09
42.94182,528.16,568.48
42.96140,525.55,566.34
42.98063,526.09,568.68
43.00164,527.08,566.10
43.02083,527.60,566.46
43.04181,525.71,563.11
43.06119,524.19,564.54
43.08191,525.02,560.01
43.10296,525.99,560.57
43.12432,527.30,559.72
43.14369,526.40,559.46
43.16323,529.08,557.43
43.18430,530.31,554.76
43.20418,529.23,555.88
43.22406,529.17,553.26
43.24481,529.91,556.09
43.26589,530.79,557.80
43.28556,533.43,556.72
43.30518,532.03,555.42
43.32578,534.25,555.08
43.34555,532.49,557.14
43.36540,535.72,558.42
43.38544,535.79,557.27
43.40576,536.72,559.34
43.42581,540.60,559.03
43.44568,543.14,557.89
43.46617,542.51,558.92
43.48555,544.72,556.99
43.50621,546.22,557.02
43.52483,546.90,556.29
43.54611,547.67,554.99
43.56574,545.81,551.49
43.58622,545.97,554.85
43.60563,545.18,553.43
43.62546,544.11,553.52
43.64508,543.93,552.53
43.66583,543.34,551.83
