Program Time [s],data 0,data 1
12.35221,549.01,492.92
12.37212,549.12,492.74
12.39151,547.63,492.73
12.41226,548.49,493.83
12.43128,549.01,492.25
12.45150,547.91,494.37
12.47133,548.49,494.53
12.49192,547.03,491.96
12.51170,548.11,494.90
12.53261,549.56,491.62
12.55196,549.70,495.30
12.57158,551.58,495.56
12.59182,552.01,494.76
12.61105,551.07,498.51
12.63092,549.62,499.83
12.65171,551.03,497.14
12.67158,550.08,499.04
12.69121,549.54,499.14
12.71106,551.51,500.29
12.73180,548.68,499.27
12.75167,548.66,500.89
12.77201,546.78,502.08
12.79176,545.83,503.52
12.81210,545.97,504.06
12.83171,549.22,515.67
12.85149,553.16,550.49
12.87144,557.39,595.11
12.89213,558.82,648.92
12.91267,562.72,672.21
12.93222,562.96,694.79
12.95239,559.60,696.68
12.97099,552.17,684.84
12.99320,542.22,664.13
13.01198,537.93,636.59
13.03326,533.32,609.68
13.05259,530.14,578.77
13.07222,529.43,550.63
13.09221,529.99,527.41
13.11286,530.94,513.94
13.13215,532.28,503.42
13.15317,534.69,493.19
13.17342,534.45,487.05
13.19215,527.30,479.57
13.21205,514.17,477.42
13.23183,507.78,466.24
13.25328,506.06,464.21
13.27318,502.74,466.39
13.29329,499.66,466.79
13.31190,505.46,465.11
13.33251,508.31,468.79
13.35344,511.74,471.61
13.37292,511.11,469.84
13.39260,514.71,474.21
13.41195,521.19,474.63
13.43204,524.01,476.27
13.45344,526.96,482.17
13.47342,532.85,481.77
13.49247,530.52,481.48
13.51359,534.02,484.73
13.53243,532.45,485.84
13.55344,538.39,497.08
13.57221,546.34,532.09
13.59234,565.87,597.21
13.61309,580.25,678.81
13.63294,594.51,719.28
13.65227,605.91,734.00
13.67342,609.70,727.20
13.69289,611.49,702.51
13.71313,604.60,673.19
13.73314,596.69,636.13
13.75347,586.76,608.28
13.77320,577.36,578.04
13.79264,564.30,553.00
13.81326,556.59,527.66
13.83303,547.16,512.40
13.85202,540.11,496.15
13.87270,534.84,487.67
13.89265,530.23,478.12
13.91346,524.51,471.31
13.93271,520.26,463.59
13.95318,519.76,464.32
13.97238,517.92,460.08
13.99243,511.61,457.72
14.01245,505.59,452.56
14.03332,496.41,449.87
14.05247,492.37,446.18
14.07183,491.48,447.51
14.09334,494.10,451.49
14.11333,492.81,453.11
14.13285,498.98,457.84
14.15227,494.10,447.71
14.17351,484.62,435.21
14.19247,470.25,413.77
14.21305,457.88,402.19
14.23302,453.64,397.65
14.25303,455.64,401.71
14.27307,459.85,407.77
14.29184,467.58,419.11
14.31321,473.75,427.24
14.33252,482.34,436.29
14.35249,491.97,445.71
14.37179,499.89,454.04
14.39208,506.31,462.82
14.41343,510.71,471.27
14.43352,515.68,478.19
14.45197,518.57,483.19
14.47328,522.01,486.32
14.49433,526.44,491.33
14.51412,525.70,492.73
14.53443,528.25,492.25
14.55435,528.22,496.86
14.57285,527.28,497.03
14.59316,527.79,500.56
14.61331,529.68,503.05
14.63396,526.26,508.54
14.65322,521.48,515.63
14.67450,526.66,532.37
14.69467,542.23,584.63
14.71392,562.69,641.56
14.73413,584.63,681.71
14.75413,604.80,697.68
14.77448,621.69,697.67
14.79391,631.33,690.44
14.81545,637.34,670.38
14.83482,635.92,651.93
14.85459,628.83,625.74
14.87419,621.46,604.59
14.89557,611.05,580.60
14.91390,596.49,559.48
14.93545,587.54,543.30
14.95471,576.86,529.33
14.97517,571.03,519.20
14.99484,562.24,508.58
15.01585,557.07,504.52
15.03486,546.85,498.59
15.05602,541.38,497.03
15.07603,542.24,493.63
15.09639,544.28,491.18
15.11519,541.36,492.00
15.13672,537.48,487.87
15.15653,537.51,490.67
15.17777,538.28,491.64
15.19766,536.26,489.44
15.21733,535.13,492.32
15.23666,533.95,493.48
15.25727,530.30,493.22
15.27646,528.24,491.55
15.29610,524.52,492.61
15.31742,524.86,493.37
15.33635,520.85,494.66
15.35592,519.89,497.11
15.37729,521.75,498.43
15.39708,518.90,500.14
15.41642,521.29,502.09
15.43752,519.72,502.42
15.45603,520.62,502.52
15.47749,520.72,501.79
15.49727,523.20,505.30
15.51650,522.22,505.01
15.53753,521.34,506.50
15.55686,520.91,504.95
15.57766,525.41,505.61
15.59758,524.59,507.27
15.61609,526.70,510.13
15.63600,527.19,509.93
15.65707,527.56,513.71
15.67737,524.75,514.10
15.69582,522.77,514.92
15.71723,525.98,515.45
15.73574,525.36,519.93
15.75668,530.16,524.36
15.77760,538.80,539.64
15.79707,540.54,573.85
15.81645,536.93,606.64
15.83607,526.65,625.84
15.85753,508.77,631.71
15.87614,494.31,625.42
15.89629,479.41,602.84
15.91602,471.09,581.04
15.93588,467.23,558.05
15.95732,465.99,538.06
15.97738,469.36,519.25
15.99664,469.69,499.86
16.01625,474.34,490.96
16.03667,477.65,482.16
16.05869,484.08,474.64
16.07754,486.99,470.22
16.09697,494.45,467.46
16.11697,496.51,464.12
16.13761,500.37,464.47
16.15888,502.61,458.64
16.17821,507.72,459.73
16.19782,508.41,457.87
16.21791,513.20,459.62
16.23907,517.47,458.21
16.25865,516.29,456.99
16.27965,520.47,461.88
16.29943,525.67,461.39
16.31842,530.38,465.16
16.33847,531.92,466.87
16.35970,535.12,471.73
16.37888,535.29,482.65
16.39830,542.01,496.40
16.41816,545.09,520.42
16.43765,551.31,556.57
16.45871,556.22,586.03
16.47803,556.21,596.27
16.49877,558.93,592.01
16.51852,555.09,579.21
16.53836,554.20,560.02
16.55850,551.48,542.34
16.57882,548.39,523.25
16.59892,547.62,508.72
16.61843,550.06,496.88
16.63879,545.63,484.24
16.66008,550.47,477.72
16.67890,548.53,468.11
16.69897,547.38,463.62
16.71881,550.55,461.15
16.73926,549.30,465.33
16.76006,550.36,463.99
16.78001,548.32,464.62
16.80058,548.35,468.62
16.82062,549.68,472.27
16.84035,546.83,480.21
16.86237,545.48,482.32
16.88154,548.90,485.79
16.90150,545.74,486.42
16.92160,544.74,488.78
16.94239,548.59,489.68
16.96106,550.73,492.39
16.98204,550.33,494.49
17.00321,550.45,498.62
17.02310,552.89,500.04
17.04422,553.93,496.96
17.06424,548.52,495.31
17.08377,553.33,496.80
17.10392,549.37,495.88
17.12443,548.19,497.12
17.14419,548.80,498.76
17.16345,543.49,502.07
17.18391,542.57,500.38
17.20427,544.17,498.48
17.22340,539.78,497.96
17.24349,535.00,497.48
17.26399,527.24,500.46
17.28408,520.27,498.34
17.30389,518.48,500.63
17.32350,515.76,503.35
17.34380,517.85,502.43
17.36369,518.38,501.97
17.38382,522.89,502.97
17.40429,525.48,500.16
17.42346,523.76,494.10
17.44445,524.75,494.61
17.46416,524.41,492.60
17.48367,523.54,495.22
17.50364,521.51,500.26
17.52471,525.36,504.99
17.54313,527.22,508.57
17.56446,526.87,508.85
17.58335,526.92,509.37
17.60334,524.20,505.20
17.62285,530.66,502.51
17.64275,528.68,501.17
17.66313,525.73,500.27
17.68335,520.20,502.77
17.70284,518.29,505.25
17.72416,518.57,516.96
17.74423,517.36,539.19
17.76351,526.20,570.44
17.78381,534.42,600.22
17.80410,536.54,610.11
17.82448,538.40,606.90
17.84347,537.59,588.39
17.86447,537.41,563.83
17.88303,539.36,542.69
17.90392,538.18,524.31
17.92339,536.50,504.95
17.94369,538.42,493.11
17.96477,534.93,481.66
17.98426,536.19,476.10
18.00453,533.41,471.20
18.02322,531.99,465.86
18.04467,533.86,464.79
18.06400,533.45,464.14
18.08406,530.88,468.67
18.10319,529.17,471.18
18.12458,529.07,475.28
18.14397,532.36,474.69
18.16371,530.51,473.95
18.18275,529.75,474.96
18.20274,531.11,476.80
18.22438,532.11,478.07
18.24377,528.66,477.40
18.26443,532.75,478.57
18.28335,534.73,484.27
18.30394,536.13,484.88
18.32299,538.59,487.51
18.34391,540.09,488.64
18.36404,539.79,493.42
18.38357,544.43,494.58
18.40452,545.68,494.87
18.42429,546.13,496.48
18.44464,546.01,496.28
18.46377,552.05,495.67
18.48497,551.69,495.78
18.50411,552.40,497.25
18.52562,551.67,500.97
18.54493,546.95,506.41
18.56494,544.85,508.93
18.58388,538.82,507.75
18.60482,535.90,503.44
18.62489,536.50,502.66
18.64448,534.36,502.75
18.66504,536.37,504.40
18.68506,533.96,504.24
18.70522,535.95,504.00
18.72479,537.40,506.90
18.74497,538.26,507.02
18.76456,538.57,510.51
18.78487,542.20,507.94
18.80438,541.40,508.48
18.82460,537.30,503.40
18.84465,539.44,506.87
18.86392,541.17,506.67
18.88507,543.76,506.31
18.90420,540.61,504.67
18.92431,540.82,505.03
18.94467,545.26,505.37
18.96558,546.65,504.99
18.98581,544.70,501.52
19.00560,544.68,504.67
19.02656,544.57,502.64
19.04535,548.34,502.09
19.06657,546.23,502.68
19.08522,546.11,502.80
19.10602,544.72,501.70
19.12524,547.41,503.31
19.14629,545.13,502.21
19.16524,547.03,502.64
19.18538,543.66,504.72
19.20677,543.49,507.22
19.22711,543.97,503.79
19.24595,540.24,507.28
19.26747,537.55,507.69
19.28630,535.73,508.48
19.30664,533.95,509.38
19.32626,537.09,509.17
19.34663,534.89,505.76
19.36615,534.40,503.85
19.38643,534.54,503.55
19.40750,537.19,503.11
19.42563,536.70,503.09
19.44645,539.09,504.33
19.46664,539.84,503.30
19.48766,539.45,505.32
19.50591,540.40,501.44
19.52620,542.89,501.17
19.54696,542.25,503.91
19.56727,542.00,500.76
19.58677,543.03,500.89
19.60936,543.53,501.37
19.62873,539.31,505.45
19.64795,542.31,508.66
19.66844,539.59,508.67
19.68817,540.44,509.55
19.70903,540.22,511.44
19.72941,536.53,514.29
19.74865,537.27,512.60
19.76911,537.72,515.35
19.78979,536.77,516.14
19.80899,535.65,513.60
19.82811,535.43,515.84
19.84869,532.55,513.58
19.86812,531.39,512.28
19.88946,531.08,510.93
19.90953,528.96,512.75
19.92954,527.90,514.14
19.94947,527.20,509.87
19.96868,527.70,508.92
19.98757,526.43,508.13
20.00887,526.04,510.43
20.02896,528.49,508.47
20.04947,527.13,512.39
20.06770,528.91,510.52
20.08928,527.82,513.72
20.10893,530.52,511.24
20.12763,530.16,515.11
20.14856,530.10,516.48
20.16776,531.86,513.56
20.18801,533.17,515.41
20.20849,533.73,513.52
20.22807,535.21,513.51
20.24952,532.57,510.14
20.26839,535.03,511.91
20.28816,533.06,509.16
20.30814,534.05,511.65
20.32850,532.82,508.24
20.34781,532.26,508.99
20.36950,533.93,510.97
20.38904,534.08,512.01
20.40832,535.09,509.31
20.42874,535.14,511.47
20.44938,534.56,511.22
20.46823,532.97,512.18
20.48894,530.66,513.45
20.50894,531.48,513.86
20.52828,528.79,514.30
20.54927,530.92,514.50
20.56881,529.22,514.33
20.58751,530.20,512.87
20.60889,530.46,514.34
20.62849,530.00,512.80
20.64886,529.47,514.71
20.66870,527.70,513.59
20.68895,531.48,513.50
20.70781,530.94,514.03
20.72905,529.73,511.75
20.74776,531.79,513.56
20.76771,532.16,513.03
20.78766,528.55,513.61
20.80913,529.30,513.94
20.82812,526.12,511.50
20.84962,522.97,510.17
20.86919,525.27,510.35
20.88815,525.78,510.45
20.90820,522.81,509.93
20.92774,523.84,508.40
20.94774,521.83,495.81
20.96821,523.67,475.39
20.98866,522.82,453.66
21.00917,522.07,430.03
21.02815,521.87,411.26
21.04938,518.68,397.99
21.06876,513.15,393.26
21.08864,511.58,391.25
21.10848,509.32,394.29
21.12771,507.06,400.53
21.14843,506.43,406.18
21.16932,506.35,416.53
21.18905,507.57,424.74
21.20817,507.98,432.16
21.22891,510.48,442.72
21.24913,512.51,453.07
21.26804,514.98,459.20
21.28761,517.01,464.45
21.30838,517.61,469.27
21.32881,518.69,478.86
21.34855,521.72,485.03
21.36846,524.98,495.42
21.38833,522.77,504.11
21.40970,528.16,507.55
21.42852,528.93,509.46
21.44901,526.74,514.18
21.46929,527.18,515.80
21.48906,526.45,515.39
21.50814,526.46,517.61
21.52849,531.01,517.55
21.54836,534.69,519.50
21.56814,533.69,519.48
21.58923,538.91,518.90
21.60936,536.20,518.83
21.62825,536.59,521.40
21.64825,538.06,518.84
21.66796,536.71,519.44
21.68969,536.15,519.63
21.71041,534.84,519.28
21.72907,533.66,517.85
21.74907,531.85,516.83
21.76999,531.95,515.73
21.78898,530.60,514.00
21.81027,530.95,514.38
21.83046,530.27,510.78
21.84978,528.49,510.67
21.86930,526.23,511.78
21.88917,525.43,509.27
21.90972,528.57,510.10
21.92984,526.35,509.29
21.94980,524.12,508.46
21.96980,525.05,511.87
21.98887,522.19,510.98
22.00938,520.87,509.93
22.02920,521.29,509.20
22.04962,523.98,511.30
22.07036,522.57,512.18
22.09065,521.21,509.37
22.10881,524.06,524.29
22.13025,523.24,556.78
22.15021,525.07,588.88
22.16917,524.57,617.57
22.18933,523.20,623.89
22.20996,522.41,624.23
22.22997,519.78,612.39
22.24975,519.67,601.92
22.26987,518.67,591.80
22.29068,516.72,580.84
22.30883,518.75,570.67
22.32910,517.95,559.92
22.34990,519.22,553.44
22.36911,518.60,544.80
22.38904,519.58,540.89
22.40884,524.40,543.10
22.42931,523.65,538.15
22.44897,525.37,535.16
22.46951,526.52,532.65
22.49038,529.13,527.71
22.50910,525.65,525.18
22.52947,525.41,521.50
22.55049,527.02,517.97
22.57038,525.76,515.70
22.58887,524.38,516.87
22.60964,526.67,513.00
22.63049,526.19,513.92
22.64929,523.93,514.94
22.66934,526.26,514.29
22.68910,525.21,511.50
22.71053,529.84,514.22
22.72916,525.24,512.44
22.75018,527.73,511.70
22.76951,525.30,508.12
22.78959,525.69,508.71
22.80963,524.14,508.27
22.82986,526.22,505.10
22.84982,527.35,507.25
22.86987,526.64,506.59
22.89044,525.97,509.08
22.90870,524.73,509.21
22.92897,524.61,506.61
22.95034,525.67,510.60
22.96971,527.75,513.57
22.98878,526.88,510.61
23.00874,525.07,514.91
23.02923,526.12,512.31
23.04969,527.75,514.70
23.06894,525.39,514.76
23.08934,524.69,511.62
23.10919,528.04,511.28
23.12962,525.10,512.06
23.14896,527.17,512.56
23.16873,524.33,510.37
23.18955,522.58,511.33
23.21015,523.19,510.12
23.22936,525.06,509.33
23.24960,520.92,508.75
23.26879,522.74,507.69
23.29009,525.11,507.11
23.30927,522.72,507.50
23.32981,525.38,506.75
23.34905,523.45,507.81
23.36987,526.32,508.02
23.38959,522.67,507.07
23.40923,524.31,507.45
23.42970,523.16,507.74
23.44910,522.53,505.60
23.46942,520.03,494.95
23.49029,517.24,478.07
23.50967,516.57,456.41
23.52955,514.13,439.58
23.54977,511.24,424.74
23.56911,512.54,410.46
23.58913,507.88,404.23
23.61053,512.05,397.16
23.62990,508.73,393.55
23.65043,510.50,391.05
23.66918,509.13,392.90
23.68869,508.75,397.82
23.70964,511.31,404.59
23.73011,515.04,410.20
23.74881,517.41,415.54
23.77017,519.57,423.92
23.78976,522.83,428.18
23.81029,520.79,436.61
23.82962,523.92,440.22
23.85014,522.30,448.25
23.86895,525.30,452.97
23.88924,528.45,457.03
23.90915,529.54,463.10
23.92958,529.47,465.72
23.95054,528.51,472.73
23.96916,527.08,475.62
23.98926,530.21,476.78
24.00961,528.74,481.21
24.03052,529.64,486.63
24.04873,530.18,487.81
24.06956,530.34,491.35
24.09031,531.56,490.49
24.10971,530.89,495.75
24.12929,531.12,498.00
24.14893,529.43,498.80
24.16881,531.05,499.14
24.19023,529.52,497.77
24.20884,528.82,499.66
24.22992,531.08,501.04
24.24917,528.81,504.71
24.26966,531.79,505.09
24.29046,530.02,502.05
24.31016,532.60,501.64
24.33076,534.28,503.97
24.34987,534.24,504.73
24.37119,538.54,505.80
24.39028,538.91,503.26
24.41045,534.98,502.87
24.43141,537.14,504.87
24.45206,537.27,505.66
24.47073,537.24,505.08
24.49053,537.67,504.76
24.51243,537.73,506.18
24.53169,543.04,506.63
24.55086,543.31,504.74
24.57056,543.35,503.11
24.59143,539.11,504.13
24.61157,539.20,506.16
24.63175,539.09,505.70
24.65145,539.28,502.98
24.67112,538.55,504.04
24.69191,537.79,503.01
24.71251,538.89,503.26
24.73066,538.62,502.49
24.75234,542.37,501.44
24.77220,542.98,501.40
24.79295,543.08,501.20
24.81204,543.17,502.71
24.83361,541.64,499.81
24.85179,542.32,505.82
24.87306,543.03,520.93
24.89330,549.16,544.50
24.91273,550.44,587.61
24.93326,552.90,625.16
24.95335,551.47,653.40
24.97326,553.84,673.56
24.99246,551.53,676.41
25.01229,549.73,671.19
25.03411,547.79,656.60
25.05323,547.52,636.95
25.07294,547.21,620.29
25.09382,547.04,603.39
25.11259,546.26,592.74
25.13411,545.25,578.48
25.15477,544.83,569.18
25.17632,540.78,561.16
25.19470,539.81,549.77
25.21466,541.97,546.92
25.23569,543.15,540.35
25.25553,546.08,538.31
25.27631,547.65,534.72
25.29632,546.92,527.16
25.31562,551.16,524.49
25.33742,552.49,522.21
25.35605,550.97,522.15
25.37632,551.47,519.87
25.39716,547.26,519.30
25.41598,549.67,516.51
25.43721,545.19,516.83
25.45714,543.16,515.96
25.47633,543.68,511.56
25.49572,543.66,511.73
25.51697,542.50,508.70
25.53725,542.78,508.74
25.55572,544.41,508.62
25.57713,544.36,505.79
25.59710,541.26,508.09
25.61753,543.05,507.33
25.63571,540.83,505.18
25.65584,542.37,508.65
25.67689,541.44,508.21
25.69713,541.50,507.08
25.71741,540.55,508.74
25.73680,537.31,507.72
25.75684,537.39,508.75
25.77593,536.25,508.53
25.79733,534.34,507.48
25.81739,537.01,508.40
25.83581,534.88,506.82
25.85661,536.47,508.05
25.87632,536.36,511.19
25.89611,536.60,510.14
25.91661,534.22,511.99
25.93708,535.74,509.89
25.95610,531.65,510.21
25.97666,533.30,510.09
25.99615,531.98,509.74
26.01648,532.58,509.26
26.03765,532.53,511.16
26.05873,528.88,509.32
26.07773,527.41,507.10
26.09792,527.13,507.36
26.11864,527.88,508.53
26.13777,528.94,510.99
26.15832,529.44,509.78
26.17875,527.16,510.81
26.19806,525.74,511.71
26.21795,523.58,511.37
26.23914,521.97,510.75
26.25762,523.14,509.31
26.27750,523.98,509.66
26.29775,522.79,512.79
26.31750,523.58,511.63
26.33930,526.29,512.48
26.35929,527.20,507.66
26.38033,524.89,509.50
26.40003,524.67,510.53
26.41957,524.25,509.94
26.43941,524.26,510.33
26.45920,524.00,508.12
26.47897,526.18,509.15
26.50018,525.20,510.48
26.51986,523.86,509.31
26.54019,520.18,511.97
26.55939,522.70,511.48
26.57900,520.12,505.77
26.60110,520.38,495.83
26.62009,521.32,477.11
26.64023,515.49,461.89
26.65955,514.99,448.39
26.68091,512.26,434.13
26.69964,506.52,421.17
26.71989,502.13,410.20
26.74150,502.04,401.34
26.76034,498.47,397.14
26.78023,501.62,395.88
26.80112,500.83,396.62
26.82035,503.73,397.40
26.84090,505.21,404.37
26.86046,505.83,412.63
26.88074,507.82,420.76
26.89971,512.28,427.10
26.91941,511.23,437.42
26.94006,513.12,446.38
26.96086,511.62,452.29
26.98099,515.00,460.23
27.00081,512.60,465.33
27.02037,516.13,473.68
27.04104,518.24,477.50
27.06203,518.52,481.22
27.08100,519.16,486.45
27.10114,522.33,491.35
27.12075,521.22,492.94
27.14132,523.20,494.03
27.16118,523.10,497.07
27.18113,522.35,499.87
27.20237,521.92,501.91
27.22196,521.87,503.17
27.24089,522.37,502.85
27.26208,523.79,503.67
27.28209,523.13,505.56
27.30152,523.96,506.40
27.32237,524.64,507.69
27.34228,528.46,507.63
27.36180,524.82,508.17
27.38219,527.30,508.43
27.40305,527.82,506.86
27.42175,526.45,505.00
27.44305,526.56,507.88
27.46318,528.66,507.47
27.48261,532.58,507.96
27.50224,532.78,508.30
27.52277,533.55,506.44
27.54242,532.96,507.24
27.56363,534.60,505.89
27.58394,533.80,506.28
27.60402,532.19,509.13
27.62438,532.22,505.95
27.64423,535.44,508.66
27.66288,535.74,506.76
27.68245,536.84,506.75
27.70374,535.51,506.31
27.72395,532.77,508.53
27.74360,531.37,508.69
27.76320,534.47,509.41
27.78559,533.18,509.08
27.80394,532.54,508.33
27.82511,534.57,506.78
27.84633,538.73,506.30
27.86540,540.40,516.33
27.88471,542.36,540.38
27.90520,547.04,574.71
27.92588,548.14,610.10
27.94492,553.09,641.96
27.96643,552.75,667.10
27.98448,556.62,675.92
28.00534,557.54,673.14
28.02490,559.59,661.69
28.04474,557.29,642.44
28.06560,559.17,628.63
28.08617,558.02,611.73
28.10500,558.67,595.53
28.12600,557.31,580.34
28.14571,553.07,571.36
28.16510,551.55,560.43
28.18551,549.89,552.58
28.20446,547.59,544.91
28.22514,552.72,538.32
28.24576,549.49,536.42
28.26634,552.25,531.01
28.28465,553.86,529.95
28.30614,551.19,525.96
28.32616,553.56,519.75
28.34499,552.79,519.88
28.36569,549.77,517.00
28.38477,549.67,515.11
28.40580,549.24,516.66
28.42531,550.81,516.01
28.44499,549.66,513.00
28.46540,545.89,512.99
28.48648,548.84,511.68
28.50560,545.90,511.67
28.52507,545.88,511.95
28.54462,548.56,511.21
28.56593,548.04,509.25
28.58497,545.25,511.15
28.60477,543.83,509.45
28.62587,544.29,511.73
28.64507,545.28,509.74
28.66637,546.40,510.40
28.68483,542.92,509.53
28.70464,544.94,508.65
28.72471,546.37,511.40
28.74632,542.63,511.16
28.76535,544.38,509.32
28.78539,544.22,509.33
28.80451,546.05,512.19
28.82494,545.98,512.78
28.84628,543.90,509.31
28.86565,543.03,510.08
28.88494,542.70,509.90
28.90606,546.76,510.35
28.92461,547.48,509.84
28.94557,546.49,509.29
28.96534,545.33,510.84
28.98490,545.33,510.70
29.00593,545.80,510.24
29.02540,544.40,509.99
29.04518,548.11,511.64
29.06643,545.05,509.95
29.08613,545.71,512.00
29.10614,543.40,511.42
29.12449,541.59,510.14
29.14546,540.88,510.46
29.16544,539.29,511.05
29.18504,542.58,511.11
29.20508,541.98,509.76
29.22539,541.23,509.42
29.24529,544.44,511.85
29.26476,542.75,509.55
29.28468,543.86,511.89
29.30525,543.78,510.10
29.32594,541.71,504.63
29.34467,540.21,489.94
29.36493,539.21,473.90
29.38637,537.02,455.54
29.40623,534.91,439.03
29.42494,534.82,424.47
29.44525,532.05,414.82
29.46555,530.53,405.02
29.48594,525.93,403.30
29.50568,525.15,400.90
29.52510,526.43,401.29
29.54519,524.53,401.45
29.56454,529.86,406.72
29.58522,530.79,412.59
29.60629,532.01,420.28
29.62611,531.60,426.03
29.64772,534.70,435.20
29.66719,533.81,442.11
29.68791,537.65,450.99
29.70881,536.33,455.22
29.72841,534.28,460.41
29.74772,533.21,467.91
29.76864,534.23,475.99
29.78921,533.14,478.75
29.80916,530.78,484.24
29.82818,530.47,486.33
29.84896,533.32,489.34
29.86942,530.42,494.43
29.88831,532.60,497.19
29.91026,531.55,497.96
29.92988,531.56,500.54
29.94883,531.51,498.35
29.96966,531.58,502.64
29.98851,532.01,504.24
30.00887,529.90,504.16
30.02952,528.09,502.95
30.04952,528.14,506.81
30.06938,530.49,504.29
30.08979,528.70,506.39
30.10998,527.85,506.75
30.13147,528.93,506.52
30.15105,525.08,508.49
30.16982,523.79,507.00
30.19038,523.16,510.07
30.21025,522.02,511.64
30.23124,523.35,511.49
30.25065,524.08,509.42
30.27007,522.19,510.74
30.28972,524.69,510.61
30.31030,523.03,508.29
30.33141,522.85,508.41
30.35100,520.50,510.28
30.37123,521.97,510.49
30.39098,520.18,512.08
30.41113,522.81,510.32
30.43077,521.10,512.64
30.44990,522.04,512.56
30.47018,521.29,511.66
30.49006,521.08,511.06
30.51058,521.40,512.11
30.53126,519.93,511.90
30.55184,518.82,514.11
30.57133,520.11,511.88
30.59178,518.20,527.51
30.61130,522.75,555.08
30.63093,530.47,595.18
30.65173,536.23,650.19
30.67065,542.79,701.60
30.69151,544.77,735.27
30.71180,547.82,745.66
30.73131,546.05,744.97
30.75065,543.50,731.18
30.77132,538.07,707.40
30.79123,534.13,677.40
30.81184,534.82,646.36
30.83145,529.53,619.25
30.85055,527.05,596.18
30.87288,527.93,571.18
30.89206,524.22,555.78
30.91277,524.20,540.60
30.93229,521.84,526.54
30.95260,522.07,518.99
30.97243,521.32,511.42
30.99187,519.19,505.64
31.01283,518.50,501.31
31.03261,520.51,502.29
31.05349,517.76,498.92
31.07371,521.97,497.24
31.09394,520.64,497.17
31.11257,520.12,498.16
31.13362,524.04,499.70
31.15332,525.16,500.86
31.17292,523.43,500.14
31.19256,523.00,501.36
31.21402,523.10,500.95
31.23436,527.46,502.25
31.25401,527.24,504.31
31.27401,523.96,503.80
31.29426,522.62,504.30
31.31308,524.60,507.06
31.33321,525.17,505.78
31.35279,526.31,505.98
31.37268,523.09,509.16
31.39340,525.30,505.00
31.41391,526.14,507.45
31.43342,526.90,507.16
31.45274,528.33,509.06
31.47344,529.41,508.46
31.49438,526.57,509.16
31.51297,525.01,507.46
31.53292,525.40,508.47
31.55358,525.02,510.26
31.57307,523.89,508.61
31.59423,524.55,508.49
31.61387,526.17,508.83
31.63389,526.16,509.07
31.65456,527.19,513.34
31.67375,529.39,509.77
31.69250,530.56,511.52
31.71369,528.34,511.47
31.73290,528.03,512.05
31.75371,529.37,509.69
31.77377,529.87,508.83
31.79322,531.12,508.36
31.81308,530.26,507.49
31.83414,528.63,511.17
31.85349,529.92,509.81
31.87347,529.87,508.64
31.89452,530.68,509.41
31.91474,529.27,508.59
31.93495,533.28,509.06
31.95469,532.60,509.77
31.97515,534.44,510.33
31.99447,532.07,507.82
32.01413,530.77,506.72
32.03460,533.92,509.05
32.05394,532.03,508.43
32.07373,533.86,506.50
32.09446,532.73,506.98
32.11474,533.09,508.91
32.13365,533.31,510.82
32.15527,533.53,496.69
32.17513,530.77,479.87
32.19478,528.94,465.80
32.21496,523.66,448.60
32.23506,517.74,434.45
32.25492,515.67,419.96
32.27361,513.97,411.96
32.29522,513.79,401.23
32.31476,511.22,396.62
32.33454,511.36,395.57
32.35517,510.03,401.45
32.37389,513.03,403.39
32.39376,512.70,408.78
32.41449,513.96,416.95
32.43505,514.13,424.96
32.45361,515.21,434.88
32.47548,515.90,442.29
32.49488,519.88,449.25
32.51433,520.59,455.40
32.53497,522.25,461.44
32.55426,528.45,468.45
32.57458,527.40,473.13
32.59513,530.83,478.04
32.61551,529.47,481.20
32.63454,531.80,482.55
32.65497,534.58,487.50
32.67443,533.46,487.80
32.69454,531.85,489.37
32.71590,535.67,492.16
32.73588,535.10,496.19
32.75548,535.64,496.44
32.77501,536.43,496.51
32.79441,535.40,500.03
32.81565,537.77,499.51
32.83610,537.38,501.06
32.85544,536.95,501.96
32.87586,538.55,503.88
32.89501,539.85,504.25
32.91580,539.94,503.82
32.93525,539.79,504.42
32.95548,537.64,505.65
32.97594,540.55,505.29
32.99608,539.46,503.93
33.01460,538.84,506.01
33.03608,537.45,505.90
33.05542,538.80,503.87
33.07525,537.17,505.61
33.09537,538.73,507.30
33.11640,542.26,506.07
33.13563,539.59,506.39
33.15570,541.75,504.66
33.17511,543.32,508.41
33.19524,543.49,506.05
33.21529,540.82,507.61
33.23478,541.31,504.52
33.25439,543.32,515.86
33.27503,547.20,540.84
33.29486,550.69,578.97
33.31533,551.51,615.25
33.33442,557.45,641.90
33.35622,561.66,663.28
33.37704,562.32,665.52
33.39718,566.51,660.29
33.41619,562.55,646.25
33.43541,563.72,630.65
33.45531,560.43,614.35
33.47791,559.57,598.27
33.49771,557.56,584.95
33.51644,552.29,574.67
33.53814,550.12,566.42
33.55764,548.02,555.20
33.57764,548.34,548.87
33.59772,546.20,543.26
33.61662,543.98,539.56
33.63813,544.59,534.51
33.65773,545.70,531.76
33.67755,546.36,527.91
33.69821,547.73,524.39
33.71745,546.38,522.35
33.73827,546.67,520.58
33.75816,544.27,518.60
33.77733,545.16,518.83
33.79907,543.18,516.56
33.81778,543.41,516.59
33.83797,543.33,515.80
33.85770,542.29,516.89
33.87931,542.95,512.60
33.89770,540.40,513.00
33.91831,541.00,515.56
33.93776,539.94,513.10
33.95931,541.68,516.76
33.97790,539.22,515.56
33.99869,540.76,512.56
34.01866,540.94,512.38
34.03810,537.00,511.94
34.05903,538.89,512.16
34.07771,534.86,511.87
34.09752,535.28,514.29
34.11867,535.00,512.30
34.13755,534.80,512.59
34.15916,537.24,511.87
34.17862,536.62,511.70
34.19830,534.83,508.84
34.21779,534.52,509.17
34.23917,538.87,509.45
34.25872,537.61,512.00
34.27752,537.71,509.37
34.29758,536.22,508.86
34.31916,535.94,508.00
34.33810,536.87,508.65
34.35792,534.96,509.49
34.37801,534.94,509.15
34.39888,536.75,507.15
34.41802,538.28,508.08
34.43865,537.25,510.74
34.45772,534.35,507.06
34.47813,537.67,508.52
34.49916,534.99,507.27
34.51858,534.28,510.60
34.53760,537.30,506.72
34.55898,534.06,497.08
34.57876,533.69,481.05
34.59782,532.05,463.56
34.61733,529.24,445.81
34.63885,522.77,434.59
34.65750,521.82,422.51
34.67928,519.07,410.14
34.69795,514.36,404.07
34.71870,512.50,397.45
34.73900,512.30,396.74
34.75808,508.00,399.98
34.77906,506.00,400.97
34.79756,504.86,407.54
34.81932,504.08,413.78
34.83870,505.26,419.27
34.85755,508.91,425.51
34.87879,511.45,431.73
34.89785,511.51,435.06
34.91805,512.29,443.40
34.93795,515.73,449.97
34.95875,517.91,451.44
34.97896,518.41,458.13
34.99839,519.70,461.02
35.01817,521.19,467.00
35.03792,524.38,472.40
35.05806,522.81,475.53
35.07886,525.91,482.11
35.09733,524.43,483.81
35.11821,525.83,489.69
35.13891,525.84,492.43
35.15821,525.05,494.48
35.17825,523.66,491.78
35.19925,522.89,495.15
35.21840,524.64,494.53
35.23843,528.35,495.47
35.25834,526.79,498.52
35.27845,525.81,500.78
35.29836,528.32,501.48
35.31764,527.55,502.36
35.33804,529.66,503.71
35.35739,529.05,505.17
35.37888,530.08,502.61
35.39853,529.43,505.04
35.41877,526.66,506.36
35.43755,526.11,507.14
35.45851,526.96,509.82
35.47860,523.32,509.80
35.49865,521.05,507.71
35.51940,520.87,508.21
35.53961,522.87,509.18
35.56004,519.25,508.43
35.58006,522.65,512.34
35.60031,522.38,512.74
35.61985,519.97,514.20
35.64016,520.71,533.84
35.65862,525.97,566.52
35.67865,531.79,614.31
35.69907,539.48,670.18
35.72011,549.54,726.12
35.73960,556.15,763.23
35.75871,558.97,777.14
35.77948,556.28,767.86
35.79938,554.23,742.39
35.81967,551.08,714.47
35.84007,547.58,683.49
35.85989,540.93,654.74
35.87897,536.41,628.82
35.90025,533.90,601.99
35.91909,531.01,584.74
35.93826,528.16,567.17
35.95880,529.02,550.27
35.97947,527.63,539.35
36.00007,526.98,531.90
36.01939,525.52,523.57
36.03894,528.03,520.45
36.06019,530.02,516.07
36.07971,530.46,510.79
36.09867,531.73,508.85
36.11990,531.26,507.21
36.13878,530.65,505.93
36.15934,528.08,506.27
36.18008,530.39,505.08
36.19895,528.31,508.93
36.21945,526.44,510.68
36.23858,530.06,520.86
36.25967,532.31,550.18
36.27834,533.33,577.15
36.29858,538.46,587.42
36.31889,536.20,582.42
36.33951,535.72,567.67
36.35997,533.55,551.83
36.37871,530.52,535.68
36.39936,526.26,524.58
36.41934,525.72,511.77
36.44007,521.35,500.33
36.46013,520.08,493.08
36.47875,517.05,488.54
36.49966,518.34,484.34
36.51966,517.31,483.37
36.53981,514.87,486.13
36.55960,516.84,486.39
36.57996,516.46,486.45
36.59952,519.56,488.90
36.61867,518.19,492.07
36.63890,519.08,492.29
36.65898,517.89,493.07
36.68021,518.39,496.28
36.69916,517.97,496.96
36.71851,519.79,501.00
36.73938,520.67,500.97
36.75865,519.68,499.80
36.77863,519.44,503.56
36.79943,522.07,502.17
36.81844,520.63,504.46
36.84040,521.89,504.68
36.86022,518.95,502.49
36.87849,521.33,504.23
36.89958,521.07,504.02
36.91854,520.06,504.38
36.93990,519.63,501.61
36.95982,520.04,501.45
36.97898,520.91,500.41
36.99916,521.53,502.31
37.01974,523.98,500.79
37.04123,522.98,500.64
37.05984,523.18,498.89
37.07969,522.87,500.15
37.10062,521.00,497.95
37.12022,520.41,498.03
37.14068,521.14,498.50
37.16113,521.45,495.56
37.18095,524.04,499.12
37.20004,524.68,497.61
37.21953,525.27,499.29
37.24068,524.18,498.89
37.26083,523.01,501.35
37.28016,525.83,502.08
37.30001,521.90,502.09
37.31962,524.83,503.39
37.34117,524.16,504.41
37.36095,525.09,495.56
37.37967,520.77,482.33
37.40064,518.51,465.38
37.42026,518.86,446.26
37.43996,511.89,433.82
37.45957,503.30,417.42
37.48029,502.29,409.83
37.50046,498.02,401.52
37.51924,498.71,401.79
37.53968,496.08,402.39
37.56056,497.11,406.10
37.58113,496.87,411.74
37.60046,496.69,417.16
37.61980,500.11,426.94
37.64100,500.71,432.69
37.65997,502.88,441.77
37.68066,504.42,452.50
37.70101,506.36,458.34
37.71934,509.13,465.46
37.74097,513.01,470.80
37.76031,514.11,474.53
37.77940,518.66,479.40
37.80014,520.13,483.65
37.82125,522.50,485.46
37.84066,524.32,488.27
37.85964,521.57,492.61
37.88060,523.72,493.16
37.90095,523.37,495.02
37.92079,524.95,498.49
37.93957,523.15,500.62
37.95969,526.84,499.54
37.98022,526.21,502.92
37.99958,525.28,502.13
38.02033,526.90,504.67
38.04107,527.70,504.32
38.05991,529.53,524.93
38.08047,536.58,564.85
38.10074,544.31,613.25
38.11918,549.86,662.75
38.14058,557.17,693.40
38.16116,557.23,704.50
38.18018,559.96,699.44
38.20040,558.51,682.89
38.22003,555.67,661.29
38.24040,553.03,635.76
38.26067,550.05,615.70
38.28045,546.69,595.09
38.29998,546.56,578.46
38.32055,542.04,562.35
38.34065,541.14,550.06
38.36115,540.80,537.11
38.38035,540.31,530.81
38.40148,541.75,525.31
38.42081,541.20,521.91
38.44236,540.82,519.29
38.46244,541.77,516.79
38.48395,543.34,512.61
38.50487,544.33,512.12
38.52414,543.73,508.21
38.54501,541.12,509.81
38.56349,539.79,510.45
38.58355,543.19,506.97
38.60445,540.98,507.73
38.62463,542.11,509.80
38.64670,544.23,510.87
38.66592,545.83,512.55
38.68686,543.54,515.30
38.70681,543.72,513.85
38.72603,542.76,517.49
38.74542,540.26,514.95
38.76622,538.93,516.77
38.78564,537.11,515.46
38.80659,538.53,516.26
38.82666,537.11,514.82
38.84720,538.61,514.31
38.86617,538.61,515.22
38.88581,538.31,520.19
38.90718,538.29,519.65
38.92569,537.45,523.64
38.94608,539.18,520.42
38.96629,537.37,522.08
38.98708,536.94,520.25
39.00646,538.99,520.26
39.02593,539.81,520.89
39.04695,538.28,518.17
39.06701,539.95,518.28
39.08716,535.33,514.45
39.10609,536.57,514.72
39.12639,536.24,511.91
39.14635,536.46,513.90
39.16709,535.35,511.92
39.18648,535.71,512.52
39.20670,536.96,512.21
39.22595,535.19,509.18
39.24691,539.24,510.64
39.26524,538.47,511.28
39.28599,533.87,507.52
39.30607,532.82,493.81
39.32555,530.70,475.95
39.34722,528.62,460.21
39.36646,527.81,442.05
39.38590,523.41,431.26
39.40637,520.44,418.87
39.42621,518.68,408.60
39.44548,517.10,399.11
39.46691,516.43,395.64
39.48702,513.44,391.77
39.50682,510.29,389.88
39.52568,512.10,393.53
39.54662,514.43,396.91
39.56568,514.65,401.03
39.58664,515.94,406.20
39.60702,517.34,416.01
39.62694,519.34,423.12
39.64711,520.64,432.27
39.66530,523.18,439.82
39.68645,525.10,448.09
39.70545,525.14,455.05
39.72557,526.04,462.45
39.74724,527.42,468.69
39.76670,527.11,476.22
39.78717,529.17,478.77
39.80629,531.54,485.00
39.82593,528.88,487.42
39.84714,530.28,490.38
39.86635,532.58,492.39
39.88668,532.49,492.81
39.90614,530.30,497.10
39.92586,531.69,498.51
39.94702,533.63,499.05
39.96675,534.64,502.41
39.98653,530.77,498.67
40.00559,533.65,501.32
40.02676,532.75,501.87
40.04638,530.82,501.24
40.06530,530.20,504.82
40.08724,530.17,504.25
40.10596,528.56,504.93
40.12612,531.16,518.39
40.14563,533.19,549.99
40.16655,539.97,590.42
40.18691,544.54,637.43
40.20706,550.47,673.73
40.22644,554.51,698.71
40.24651,561.21,709.22
40.26555,562.81,701.79
40.28647,558.87,687.59
40.30645,559.13,671.02
40.32544,556.05,648.84
40.34683,554.14,632.84
40.36638,551.75,617.79
40.38684,551.15,602.84
40.40640,548.69,588.86
40.42576,545.44,575.07
40.44611,548.89,566.92
40.46632,547.25,555.71
40.48531,549.14,548.74
40.50658,548.07,542.12
40.52616,547.74,536.03
40.54634,545.32,533.02
40.56685,545.87,527.19
40.58623,543.22,524.68
40.60656,542.13,518.85
40.62574,541.77,519.20
40.64703,538.84,516.62
40.66643,538.34,515.00
40.68637,535.28,513.93
40.70658,534.20,510.59
40.72787,535.47,510.54
40.74765,532.16,512.60
40.76693,534.26,511.77
40.78818,532.98,513.41
40.80641,532.20,511.25
40.82799,530.21,511.72
40.84770,528.88,513.33
40.86758,530.59,512.91
40.88612,531.61,515.53
40.90646,529.76,514.63
40.92796,525.87,513.95
40.94675,527.10,514.80
40.96697,525.47,517.94
40.98646,528.37,517.02
41.00726,529.18,517.88
41.02720,527.03,519.06
41.04670,526.54,516.57
41.06697,524.40,517.73
41.08673,522.34,515.84
41.10778,523.57,516.07
41.12746,522.36,515.27
41.14795,525.25,515.56
41.16726,527.27,516.65
41.18684,525.89,512.61
41.20755,525.85,514.74
41.22815,526.73,514.99
41.24746,524.93,512.51
41.26731,527.03,513.21
41.28754,525.53,511.25
41.30733,523.83,499.60
41.32747,518.54,481.14
41.34654,510.26,462.07
41.36756,503.74,443.81
41.38755,500.13,428.53
41.40681,491.41,412.89
41.42665,488.98,401.58
41.44664,486.34,391.17
41.46711,483.26,387.40
41.48705,485.24,386.33
41.50760,487.62,388.45
41.52753,486.16,394.43
41.54748,491.17,398.05
41.56649,496.61,405.61
41.58695,501.05,415.11
41.60882,502.31,425.01
41.62814,505.59,434.18
41.64832,506.48,441.10
41.66754,508.15,448.95
41.68739,511.43,458.00
41.70744,513.58,464.31
41.72854,513.58,469.79
41.74764,513.41,473.31
41.76747,514.91,481.29
41.78798,515.72,486.26
41.80829,516.06,490.20
41.82806,518.31,492.89
41.84795,518.10,494.31
41.86771,517.28,499.30
41.88790,520.25,499.46
41.90847,520.78,500.08
41.92920,521.86,502.86
41.94727,520.22,504.44
41.96782,522.46,507.31
41.98845,521.85,506.63
42.00860,522.13,507.63
42.02754,522.45,506.46
42.04792,522.76,508.95
42.06846,521.44,508.35
42.08870,522.69,508.06
42.10833,521.02,511.08
42.12701,524.81,509.40
42.14807,524.02,509.69
42.16854,522.19,510.06
42.18774,526.34,513.41
42.20881,523.08,510.23
42.22847,524.01,512.62
42.24876,524.18,511.94
42.26760,525.36,515.57
42.28701,528.65,516.83
42.30935,532.24,541.80
42.32984,536.73,567.71
42.34843,541.24,605.13
42.36926,550.53,641.29
42.38833,557.06,668.20
42.40828,564.20,686.64
42.42988,571.63,688.56
42.44835,571.00,682.86
42.46851,569.96,668.97
42.49015,567.10,646.90
42.50952,562.80,632.98
42.52931,560.54,616.59
42.54965,555.73,603.69
42.56990,553.35,589.75
42.58975,548.80,578.33
42.60805,544.69,571.18
42.62897,542.30,561.69
42.64825,541.24,552.37
42.66821,538.19,546.41
42.68848,538.55,542.79
42.70889,535.81,539.81
42.72872,536.58,534.44
42.74990,537.06,529.16
42.76811,534.88,526.40
42.78812,530.21,523.53
42.80869,531.20,524.01
42.83003,529.97,520.14
42.84916,529.23,521.05
42.86839,527.43,519.47
42.89014,526.91,516.83
42.91011,528.76,514.26
42.92967,529.05,514.13
42.94975,528.07,514.55
42.96856,527.73,511.89
42.98907,526.82,513.11
43.00920,528.50,512.33
43.02968,532.69,512.39
43.04815,530.19,511.86
43.06898,528.56,509.16
43.08862,529.57,510.72
43.10909,532.28,509.45
43.12906,529.28,512.13
43.14832,529.21,508.33
43.17011,529.82,511.26
43.18999,530.90,509.34
43.20928,531.87,511.21
43.23004,531.65,510.21
43.24977,531.06,507.72
43.26968,531.19,508.69
43.28980,533.57,509.19
43.30978,534.02,509.11
43.32863,533.22,511.72
43.34899,532.40,509.83
43.36941,532.88,510.22
43.38952,530.72,508.15
43.40867,530.82,507.61
43.42860,529.80,507.53
43.44930,533.48,509.41
43.46984,532.06,510.06
43.48886,531.00,504.15
43.50873,528.32,493.43
43.53011,522.43,477.89
43.54989,518.93,460.40
43.56967,511.24,444.96
43.58961,506.93,429.95
43.60910,501.46,417.42
43.62875,498.64,408.67
43.64919,498.79,407.30
43.67075,496.29,402.21
43.69025,495.89,400.65
43.70982,499.25,398.22
43.73037,503.49,400.95
43.74995,505.29,406.22
43.76972,504.81,411.37
43.78962,508.73,420.81
43.81070,510.63,426.88
43.83039,514.39,434.47
43.85051,515.81,441.27
43.87021,519.00,447.18
43.89204,524.01,453.79
43.91056,522.29,461.40
43.93187,524.75,467.01
43.95052,526.30,470.68
43.97188,528.46,477.38
43.99086,532.47,480.97
44.01014,534.18,485.38
44.03218,535.30,488.14
44.05166,537.28,488.36
44.07183,535.51,493.06
44.09088,537.90,494.85
44.11082,537.08,496.35
44.13061,537.62,496.61
44.15197,537.13,498.34
44.17049,536.75,501.21
44.19069,538.22,501.03
44.21082,535.12,500.12
44.23082,536.26,502.89
44.25149,539.52,503.85
44.27133,538.19,504.97
44.29161,539.12,504.64
44.31101,538.14,504.18
44.33046,537.71,504.65
44.35126,540.88,512.71
44.37033,543.31,527.26
44.39287,549.80,552.99
44.41193,553.77,588.05
44.43225,559.11,625.15
44.45221,565.81,649.73
44.47161,569.59,669.71
44.49244,576.26,675.67
44.51199,581.07,672.00
44.53242,581.20,662.17
44.55301,579.20,648.73
44.57213,578.69,631.23
44.59237,576.70,614.45
44.61128,572.68,601.83
44.63227,570.87,585.89
44.65139,566.61,575.13
44.67209,562.66,563.88
44.69125,562.08,555.76
44.71259,562.25,549.46
44.73163,557.16,541.67
44.75271,555.25,539.87
44.77295,555.56,536.58
44.79244,549.69,529.53
44.81138,552.42,526.64
44.83274,549.76,523.57
44.85310,549.14,521.79
44.87161,549.32,519.99
44.89261,549.62,519.00
44.91139,547.68,517.23
44.93239,546.92,517.37
44.95164,548.08,517.22
44.97226,550.04,513.95
44.99250,547.18,513.76
45.01241,546.94,512.22
45.03140,546.21,512.36
45.05271,544.86,512.16
45.07163,545.69,511.15
45.09278,546.00,512.47
45.11238,546.45,512.00
45.13135,545.62,512.38
45.15164,545.42,509.52
45.17281,545.34,513.71
45.19134,544.55,513.04
45.21286,545.29,510.09
45.23131,545.29,511.49
45.25295,543.94,511.35
45.27300,545.41,511.92
45.29130,544.58,512.78
45.31111,546.41,512.79
45.33235,543.66,512.69
45.35105,544.23,510.84
45.37245,545.46,512.99
45.39155,544.41,510.39
45.41121,542.39,512.01
45.43192,541.70,510.44
45.45207,542.31,512.18
45.47131,543.79,511.49
45.49147,540.29,512.72
45.51147,542.80,512.56
45.53257,542.55,511.87
45.55260,542.27,510.79
45.57177,541.54,513.56
45.59287,541.61,513.16
45.61299,542.54,511.04
45.63124,541.48,511.18
45.65136,545.66,512.16
45.67219,542.69,512.52
45.69165,541.28,505.49
45.71133,536.03,489.02
45.73153,525.80,471.28
45.75193,518.48,455.60
45.77197,511.61,439.23
45.79208,509.95,422.05
45.81308,504.27,408.48
45.83213,499.88,402.54
45.85247,494.54,394.84
45.87248,494.82,393.68
45.89297,495.15,392.62
45.91141,499.09,397.82
45.93300,501.50,401.90
45.95128,504.31,409.20
45.97185,504.83,418.54
45.99280,508.97,425.49
46.01264,511.45,434.35
46.03293,515.25,443.53
46.05219,517.02,449.97
46.07250,516.63,459.41
46.09256,523.40,464.84
46.11182,525.70,472.26
46.13207,525.90,473.14
46.15117,528.31,479.30
46.17121,528.89,482.79
46.19189,533.14,484.68
46.21130,532.39,490.37
46.23233,534.25,491.00
46.25115,533.70,492.58
46.27269,534.95,496.07
46.29210,533.59,499.83
46.31219,534.95,498.92
46.33241,534.83,502.76
46.35247,532.33,503.33
46.37229,534.60,502.41
46.39154,534.91,504.51
46.41181,534.74,506.66
46.43147,532.76,504.12
46.45112,533.81,510.26
46.47302,538.76,530.27
46.49229,542.23,554.38
46.51221,546.64,588.61
46.53130,553.16,622.35
46.55290,563.17,645.73
46.57146,572.30,662.64
46.59245,582.57,674.90
46.61303,588.92,674.81
46.63119,587.36,669.17
46.65250,586.68,652.01
46.67227,587.04,635.70
46.69267,581.98,623.48
46.71264,578.08,605.60
46.73272,576.15,592.96
46.75198,572.82,581.75
46.77251,568.51,575.51
46.79134,565.65,562.34
46.81214,562.74,555.29
46.83161,559.30,545.64
46.85196,553.44,539.17
46.87176,550.64,537.65
46.89142,549.33,534.63
46.91302,545.52,529.86
46.93283,545.91,528.64
46.95261,542.24,522.05
46.97212,544.04,520.55
46.99265,541.33,517.17
47.01217,540.15,516.01
47.03157,538.91,513.64
47.05126,539.19,512.96
47.07207,538.83,512.42
47.09226,538.41,509.62
47.11208,539.66,511.09
47.13298,539.17,509.79
47.15285,538.47,509.66
47.17237,537.94,508.40
47.19360,537.51,509.96
47.21331,536.55,507.48
47.23368,535.05,509.12
47.25315,534.62,510.10
47.27299,534.69,512.26
47.29329,532.28,513.05
47.31365,534.72,514.21
47.33273,533.40,512.18
47.35335,533.22,511.91
47.37232,531.06,513.21
47.39381,533.65,515.07
47.41209,532.95,515.11
47.43277,535.26,516.48
47.45230,533.19,514.50
47.47340,534.56,514.67
47.49236,531.89,515.82
47.51253,531.36,511.38
47.53271,530.60,512.42
47.55250,528.06,513.87
47.57345,526.52,515.23
47.59306,527.03,514.13
47.61270,523.84,514.45
47.63207,523.65,513.20
47.65286,527.44,513.60
47.67260,526.11,514.34
47.69409,524.41,507.84
47.71233,520.10,495.17
47.73284,515.77,475.13
47.75333,513.15,457.50
47.77413,504.30,441.79
47.79281,501.90,431.63
47.81299,497.27,417.18
47.83246,494.07,411.67
47.85324,491.84,402.93
47.87307,490.89,402.00
47.89394,493.50,399.79
47.91224,492.05,400.27
47.93282,492.53,403.08
47.95372,494.39,407.75
47.97398,491.90,412.02
47.99310,494.00,419.68
48.01292,496.04,427.70
48.03237,498.90,434.57
48.05369,500.54,438.69
48.07229,504.16,448.19
48.09263,505.76,453.80
48.11269,507.04,458.30
48.13285,508.97,464.23
48.15401,510.28,467.67
48.17237,513.57,473.32
48.19255,515.09,478.48
48.21385,515.17,481.77
48.23279,514.02,486.87
48.25354,516.63,491.69
48.27347,515.95,494.76
48.29269,517.51,495.65
48.31295,517.95,500.52
48.33345,514.86,498.88
48.35247,515.45,504.92
48.37204,516.21,506.14
48.39235,517.77,505.03
48.41274,518.08,505.50
48.43304,517.69,504.96
48.45309,518.09,506.69
48.47223,519.88,511.17
48.49278,519.97,508.45
48.51409,520.74,507.50
48.53372,520.62,511.85
48.55337,518.14,510.56
48.57284,521.57,510.71
48.59264,518.83,510.35
48.61237,520.42,510.74
48.63338,519.81,510.46
48.65217,519.22,511.65
48.67243,519.47,508.52
48.69341,522.23,520.18
48.71215,527.59,547.63
48.73278,529.00,583.41
48.75265,538.69,626.06
48.77260,547.49,661.22
48.79289,554.59,682.43
48.81388,561.50,692.13
48.83267,565.01,691.27
48.85392,567.36,680.53
48.87356,565.97,667.69
48.89302,564.99,648.35
48.91236,559.90,626.60
48.93356,555.67,610.87
48.95327,555.61,594.03
48.97279,549.35,577.59
48.99335,547.99,564.78
49.01408,544.38,555.74
49.03391,542.42,549.01
49.05414,540.57,541.56
49.07348,538.91,534.74
49.09353,536.15,529.92
49.11381,530.96,527.48
49.13299,530.95,522.36
49.15296,531.89,523.62
49.17374,531.39,522.25
49.19311,529.70,518.00
49.21300,530.28,519.12
49.23384,533.39,516.48
49.25387,528.42,517.00
49.27399,531.85,514.97
49.29253,527.65,514.49
49.31384,527.40,515.61
49.33344,528.64,514.51
49.35226,530.60,512.11
49.37223,527.09,510.76
49.39268,527.32,515.14
49.41271,525.72,513.06
49.43382,526.90,513.69
49.45233,525.12,514.15
49.47370,523.61,512.47
49.49245,523.84,510.61
49.51399,524.61,513.51
49.53237,524.30,509.44
49.55280,524.46,512.84
49.57341,522.17,511.42
49.59266,524.32,511.29
49.61390,525.03,513.13
49.63266,523.71,510.67
49.65295,521.78,513.01
49.67393,523.42,510.45
49.69230,521.86,510.79
49.71265,518.81,516.17
49.73265,522.59,521.54
49.75301,525.54,538.97
49.77285,531.97,569.12
49.79242,539.20,597.86
49.81229,546.11,618.47
49.83370,551.13,623.86
49.85331,549.84,616.18
49.87392,543.25,597.41
49.89369,535.13,571.41
49.91379,526.01,539.97
49.93240,519.17,510.09
49.95301,511.82,487.84
49.97206,510.76,472.33
49.99382,506.62,460.76
50.01312,507.08,456.32
50.03265,506.43,460.56
50.05340,505.53,480.26
50.07381,511.08,518.84
50.09195,518.46,559.49
50.11322,523.95,592.36
50.13243,530.46,606.88
50.15377,533.67,609.86
50.17391,534.19,598.10
50.19346,536.74,578.61
50.21309,531.62,556.06
50.23419,528.43,532.90
50.25325,526.67,514.37
50.27338,528.62,507.80
50.29317,532.21,506.27
50.31473,537.38,517.18
50.33471,543.93,537.92
50.35458,549.05,564.15
50.37422,553.08,584.56
50.39353,551.41,587.13
50.41363,550.77,571.82
50.43317,541.75,552.13
50.45388,535.81,531.45
50.47470,530.38,506.65
50.49433,527.98,490.83
50.51406,521.76,475.27
50.53440,523.14,468.67
50.55310,519.35,473.28
50.57450,522.25,493.94
50.59478,528.47,522.76
50.61463,529.56,536.28
50.63481,530.45,534.97
50.65392,530.80,525.49
50.67453,527.74,514.40
50.69366,528.56,498.53
50.71492,524.51,482.98
50.73364,521.98,471.09
50.75489,520.93,463.15
50.77395,522.96,468.64
50.79340,524.25,492.51
50.81394,529.42,527.64
50.83385,532.33,549.08
50.85495,531.65,548.58
50.87322,531.12,539.95
50.89385,528.32,528.92
50.91327,525.10,510.49
50.93431,525.63,492.64
50.95472,522.22,482.07
50.97422,520.48,471.03
50.99494,518.82,462.92
51.01360,517.98,457.69
51.03401,520.01,452.47
51.05476,520.13,449.77
51.07483,520.43,449.99
51.09436,520.38,452.42
51.11400,523.50,454.12
51.13379,524.75,458.94
51.15347,522.56,454.24
51.17438,511.39,437.59
51.19359,501.27,422.33
51.21324,497.53,416.38
51.23462,494.23,416.37
51.25301,495.76,419.05
51.27349,497.89,422.82
51.29411,502.63,427.60
51.31504,504.09,436.92
51.33435,506.54,447.35
51.35348,508.29,451.63
51.37415,510.90,459.70
51.39462,514.52,467.82
51.41371,516.26,474.64
51.43451,523.71,479.78
51.45316,526.99,483.26
51.47313,525.56,486.17
51.49403,528.03,492.13
51.51479,526.47,491.20
51.53348,527.49,495.02
51.55417,532.67,498.34
51.57460,534.07,496.12
51.59336,534.44,491.05
51.61429,532.49,487.28
51.63334,534.70,486.74
51.65450,534.30,487.32
51.67498,536.16,490.09
51.69438,538.17,488.53
51.71426,535.88,493.94
51.73441,537.53,495.85
51.75323,537.16,499.74
51.77295,539.47,501.77
51.79503,538.15,499.53
51.81454,539.10,503.47
51.83480,545.32,505.52
51.85595,543.86,510.80
51.87442,546.60,512.50
51.89595,549.44,514.90
51.91538,547.75,517.51
51.93545,551.77,520.64
51.95431,554.43,518.90
51.97572,549.32,520.08
51.99587,549.51,521.71
52.01581,552.02,521.43
52.03420,549.59,522.74
52.05443,547.02,521.57
52.07571,550.34,520.40
52.09517,550.22,521.67
52.11503,546.75,521.25
52.13592,545.28,519.06
52.15434,543.58,518.00
52.17507,544.96,516.57
52.19469,541.42,516.47
52.21453,542.67,521.38
52.23498,539.36,520.81
52.25508,542.09,521.86
52.27490,541.97,519.30
52.29436,543.21,522.92
52.31473,541.28,522.01
52.33513,544.16,524.11
52.35548,549.17,522.85
52.37620,549.72,525.52
52.39658,549.38,525.68
52.41593,548.67,529.48
52.43539,548.35,525.87
52.45621,548.26,527.18
52.47573,549.27,531.55
52.49514,549.50,529.43
52.51613,549.34,530.12
52.53644,548.97,531.92
52.55640,547.18,533.28
52.57540,548.62,529.87
52.59658,543.32,521.93
52.61600,540.21,516.45
52.63658,543.79,514.81
52.65515,541.49,513.62
52.67519,536.32,516.60
52.69625,537.59,517.99
52.71557,537.07,513.31
52.73662,538.22,510.50
