Program Time [s],data 0,data 1
5.59217,430.56,466.56
5.61156,432.70,463.00
5.63182,431.46,460.43
5.65155,434.88,459.57
5.67086,431.20,460.78
5.69115,433.14,464.67
5.71089,429.45,462.58
5.73175,429.55,460.41
5.75101,428.83,457.47
5.77258,431.98,456.77
5.79150,434.53,460.22
5.81195,431.34,461.12
5.83211,432.34,462.18
5.85181,433.36,464.57
5.87411,435.77,463.35
5.89359,433.58,464.36
5.91328,434.69,465.32
5.93427,433.37,464.94
5.95374,434.10,465.40
5.97399,433.71,463.97
5.99464,433.69,461.17
6.01263,437.28,462.38
6.03391,434.90,457.82
6.05438,434.11,459.43
6.07376,437.16,457.24
6.09402,436.14,456.21
6.11273,435.62,457.30
6.13327,435.42,454.46
6.15374,435.33,454.90
6.17330,434.79,453.02
6.19355,436.10,453.24
6.21270,436.56,454.83
6.23311,436.62,455.04
6.25291,434.71,454.92
6.27367,436.24,457.78
6.29340,436.65,457.13
6.31262,436.22,460.04
6.33331,439.24,462.01
6.35326,437.83,458.22
6.37285,436.68,460.25
6.39297,437.46,456.44
6.41412,438.40,459.34
6.43365,435.93,455.91
6.45340,434.96,455.92
6.47401,434.66,453.62
6.49271,437.39,438.01
6.51304,435.60,421.96
6.53368,432.56,399.48
6.55389,428.92,380.21
6.57307,428.72,362.37
6.59285,425.76,348.57
6.61284,425.75,337.21
6.63270,427.41,332.70
6.65398,424.07,331.47
6.67419,425.95,334.87
6.69457,427.21,339.82
6.71277,427.47,344.78
6.73324,430.66,355.68
6.75421,430.02,361.30
6.77374,430.20,372.50
6.79503,430.78,379.37
6.81399,431.64,390.92
6.83531,432.88,399.43
6.85419,433.57,407.39
6.87388,436.96,414.08
6.89529,438.44,418.30
6.91481,438.94,425.87
6.93517,440.86,429.93
6.95555,442.08,434.57
6.97456,441.92,435.84
6.99558,444.63,438.47
7.01560,445.26,444.62
7.03561,444.18,446.44
7.05496,443.89,447.28
7.07656,443.54,449.16
7.09492,445.48,451.07
7.11519,446.17,452.28
7.13585,446.53,451.07
7.15612,444.54,456.82
7.17611,444.16,477.44
7.19571,446.87,494.85
7.21491,444.63,520.68
7.23502,449.58,546.98
7.25539,447.12,571.55
7.27653,451.11,589.65
7.29550,453.49,593.02
7.31596,453.97,591.94
7.33723,453.90,582.07
7.35745,453.85,570.18
7.37608,450.85,559.05
7.39627,450.54,544.04
7.41740,453.30,536.70
7.43706,454.22,523.21
7.45553,451.12,515.14
7.47708,453.34,510.00
7.49573,450.43,501.87
7.51595,452.43,499.40
7.53751,452.15,494.22
7.55735,449.21,488.57
7.57567,446.97,486.25
7.59579,448.26,483.43
7.61717,449.29,482.51
7.63660,449.75,478.68
7.65558,449.03,479.35
7.67594,447.38,475.33
7.69613,448.72,475.90
7.71597,451.03,476.62
7.73615,452.56,473.51
7.75671,449.21,473.93
7.77652,448.07,471.81
7.79659,446.48,473.98
7.81599,447.22,471.54
7.83652,445.95,473.28
7.85596,448.29,469.60
7.87715,446.82,468.86
7.89555,446.54,467.49
7.91617,449.62,470.73
7.93646,449.27,467.64
7.95671,446.07,468.11
7.97734,448.89,469.22
7.99619,448.35,466.84
8.01639,449.50,464.83
8.03734,448.28,465.20
8.05753,448.98,468.28
8.07608,446.25,466.85
8.09589,448.31,466.42
8.11683,446.93,466.23
8.13718,447.92,468.80
8.15731,447.80,469.27
8.17661,445.79,469.54
8.19577,448.26,469.81
8.21678,446.60,473.76
8.23717,443.61,474.36
8.25545,445.35,473.60
8.27739,443.20,474.33
8.29724,444.51,473.16
8.31636,445.24,471.75
8.33557,444.65,469.36
8.35684,446.42,470.67
8.37755,443.69,468.84
8.39632,445.04,469.58
8.41719,441.89,470.39
8.43666,441.96,467.52
8.45613,441.91,467.96
8.47667,442.34,467.81
8.49727,445.64,466.95
8.51594,446.49,466.20
8.53690,442.37,463.21
8.55589,443.99,465.53
8.57651,443.71,467.59
8.59721,446.94,468.42
8.61658,446.98,467.78
8.63599,443.78,464.88
8.65545,443.45,465.73
8.67593,443.87,466.12
8.69562,443.85,463.83
8.71732,443.17,464.31
8.73688,440.78,463.67
8.75700,444.03,464.19
8.77686,443.42,466.82
8.79745,440.05,463.76
8.81672,440.98,466.01
8.83658,441.54,464.81
8.85697,441.42,466.85
8.87771,443.78,467.65
8.89559,445.12,468.98
8.91662,446.32,466.61
8.93687,444.02,465.83
8.95692,446.79,465.54
8.97723,446.70,468.89
8.99672,445.99,466.24
9.01701,446.40,468.03
9.03624,448.63,465.69
9.05676,449.94,466.61
9.07745,446.58,465.47
9.09651,445.75,465.20
9.11713,445.53,466.49
9.13694,446.70,468.21
9.15624,447.78,468.24
9.17570,448.59,469.68
9.19710,446.52,466.90
9.21615,445.39,466.53
9.23566,444.75,468.63
9.25711,447.24,466.71
9.27616,447.98,466.84
9.29744,446.29,468.90
9.31728,446.28,465.50
9.33582,446.43,467.22
9.35719,446.94,467.27
9.37586,443.52,468.90
9.39732,445.53,467.23
9.41559,442.58,469.70
9.43684,446.70,466.80
9.45565,446.69,467.30
9.47730,445.43,468.40
9.49740,443.44,468.13
9.51608,446.73,467.36
9.53565,444.81,466.48
9.55745,446.78,466.67
9.57610,443.94,468.61
9.59619,446.09,464.65
9.61659,445.79,466.50
9.63603,444.71,466.41
9.65574,446.90,466.83
9.67722,443.96,468.86
9.69711,445.88,465.81
9.71718,447.15,465.63
9.73712,444.23,466.82
9.75739,446.58,465.35
9.77645,444.22,468.41
9.79731,445.69,465.86
9.81730,443.82,464.50
9.83622,446.34,467.57
9.85696,447.37,466.05
9.87723,445.41,467.04
9.89583,447.02,466.86
9.91634,444.72,466.94
9.93682,446.39,466.76
9.95679,445.58,469.35
9.97707,446.85,467.10
9.99704,445.12,465.52
10.01612,445.11,465.01
10.03594,446.11,465.55
10.05697,445.80,467.02
10.07759,443.85,467.60
10.09637,447.11,465.25
10.11642,446.92,466.60
10.13677,448.47,468.33
10.15709,447.94,467.02
10.17673,445.85,466.38
10.19654,446.19,465.46
10.21675,448.04,465.03
10.23678,448.27,463.68
10.25662,447.43,463.39
10.27562,445.89,462.88
10.29734,445.23,468.11
10.31671,445.03,471.22
10.33730,444.33,469.50
10.35734,444.01,462.32
10.37744,445.45,455.93
10.39621,441.54,441.34
10.41740,441.34,421.14
10.43742,440.80,402.92
10.45592,439.14,386.82
10.47574,434.41,369.36
10.49629,436.47,355.71
10.51573,432.78,348.68
10.53704,431.09,342.82
10.55610,432.41,341.84
10.57748,433.10,345.14
10.59663,436.17,347.44
10.61640,435.06,355.20
10.63744,435.94,364.51
10.65684,439.05,374.97
10.67649,437.94,383.79
10.69675,439.32,391.72
10.71693,440.75,401.76
10.73694,439.19,409.89
10.75588,442.41,416.55
10.77716,443.48,422.34
10.79722,440.81,427.99
10.81647,444.29,432.68
10.83657,443.82,434.74
10.85705,446.58,439.38
10.87560,446.67,444.77
10.89686,443.73,445.83
10.91632,443.76,450.52
10.93724,445.88,462.80
10.95673,447.71,491.80
10.97642,447.83,526.89
10.99595,445.41,558.40
11.01637,450.38,588.98
11.03585,451.34,611.56
11.05651,452.87,621.76
11.07729,454.37,618.36
11.09643,454.60,607.03
11.11697,456.25,593.08
11.13630,455.24,576.90
11.15737,453.60,563.41
11.17745,452.05,549.81
11.19640,450.98,539.15
11.21554,452.02,525.46
11.23648,448.71,515.65
11.25642,450.23,511.82
11.27639,447.87,503.08
11.29565,447.27,499.58
11.31747,447.56,492.81
11.33648,446.59,489.24
11.35554,447.32,486.86
11.37739,444.48,484.33
11.39648,444.77,483.41
11.41602,448.22,480.96
11.43576,447.69,478.93
11.45605,447.81,477.15
11.47578,448.06,472.56
11.49615,449.88,473.26
11.51722,449.50,471.46
11.53702,449.74,470.79
11.55590,447.40,472.75
11.57650,447.77,470.04
11.59601,446.87,471.05
11.61592,443.99,470.21
11.63704,446.31,468.19
11.65629,445.62,468.25
11.67614,445.33,466.68
11.69668,447.40,465.68
11.71633,445.03,467.29
11.73658,443.95,466.71
11.75563,444.06,468.06
11.77671,445.68,468.14
11.79702,445.18,467.56
11.81638,446.34,465.64
11.83624,447.26,467.10
11.85722,444.38,468.03
11.87739,445.76,466.99
11.89635,447.90,469.77
11.91688,444.47,465.81
11.93610,444.94,468.73
11.95557,442.37,467.33
11.97626,442.96,466.57
11.99732,445.26,468.55
12.01736,445.86,466.09
12.03568,446.92,465.90
12.05619,448.16,466.82
12.07588,446.85,469.31
12.09654,445.79,466.40
12.11600,445.18,467.00
12.13725,446.38,465.84
12.15705,445.71,467.22
12.17698,444.09,468.52
12.19616,447.24,467.79
12.21759,443.91,467.98
12.23657,446.66,468.10
12.25667,446.47,466.00
12.27726,445.47,465.08
12.29758,445.60,466.85
12.31650,445.12,468.52
12.33617,445.51,466.04
12.35732,443.95,465.65
12.37606,443.29,467.23
12.39737,445.25,465.01
12.41625,446.00,466.46
12.43724,444.14,465.29
12.45620,448.10,466.30
12.47657,448.78,464.78
12.49710,447.75,467.09
12.51683,446.18,465.27
12.53630,444.56,466.79
12.55642,446.21,465.40
12.57622,445.60,464.65
12.59623,443.24,464.86
12.61719,446.52,464.15
12.63645,445.55,467.32
12.65545,443.76,464.78
12.67614,445.76,467.95
12.69700,447.01,468.12
12.71602,445.55,465.26
12.73679,446.05,465.35
12.75655,446.59,466.79
12.77696,445.85,465.02
12.79665,446.01,464.74
12.81589,447.33,464.87
12.83657,448.71,465.00
12.85708,445.48,468.10
12.87757,446.53,469.01
12.89566,446.62,468.02
12.91604,445.46,466.89
12.93628,441.57,466.78
12.95628,444.90,467.34
12.97607,442.87,468.06
12.99722,445.31,464.90
13.01553,445.41,464.76
13.03732,445.40,467.41
13.05589,445.37,463.99
13.07648,442.89,463.78
13.09648,442.98,462.95
13.11549,442.52,462.23
13.13573,441.76,465.50
13.15602,441.24,467.20
13.17589,440.54,467.91
13.19682,440.72,466.84
13.21581,440.14,464.77
13.23720,442.18,465.00
13.25728,441.13,464.45
13.27634,442.05,464.86
13.29718,443.41,463.94
13.31594,440.26,465.86
13.33738,439.49,464.42
13.35698,441.36,464.54
13.37684,443.67,465.82
13.39721,443.52,465.33
13.41713,444.97,465.03
13.43717,441.94,464.13
13.45625,443.14,462.87
13.47718,445.45,463.25
13.49637,443.44,464.33
13.51561,442.02,463.59
13.53586,443.92,463.64
13.55545,440.72,464.32
13.57729,442.91,461.12
13.59637,443.31,464.39
13.61627,444.40,461.43
13.63574,444.07,462.43
13.65621,443.84,462.11
13.67669,443.45,461.28
13.69564,443.57,462.78
13.71702,443.00,465.29
13.73692,442.66,462.99
13.75689,443.00,462.51
13.77604,444.81,464.49
13.79615,443.68,462.14
13.81704,441.64,464.99
13.83749,439.08,461.63
13.85708,439.00,462.21
13.87620,442.09,461.53
13.89647,439.51,462.04
13.91666,441.79,463.25
13.93573,438.37,463.44
13.95729,439.08,460.77
13.97569,440.60,461.15
13.99657,440.64,460.74
14.01637,442.44,462.38
14.03610,442.23,461.10
14.05580,442.27,460.96
14.07687,441.12,459.99
14.09602,442.89,462.86
14.11710,445.23,463.06
14.13614,444.80,460.63
14.15676,443.32,461.06
14.17712,443.63,458.78
14.19676,444.61,461.17
14.21582,442.26,463.17
14.23567,443.29,459.83
14.25568,442.41,461.88
14.27658,444.53,460.70
14.29675,444.93,464.58
14.31647,441.96,465.17
14.33593,444.78,464.71
14.35748,444.97,465.12
14.37543,443.90,462.51
14.39889,444.67,463.22
14.41586,441.94,461.00
14.43552,442.72,464.30
14.45546,440.73,464.29
14.47583,441.99,461.40
14.49696,441.38,464.92
14.51646,440.45,463.45
14.53649,441.01,461.33
14.55748,439.97,461.51
14.57714,441.32,460.57
14.59675,444.35,463.59
14.61692,443.14,462.57
14.63574,443.15,461.53
14.65654,444.09,463.97
14.67660,443.17,462.75
14.69625,441.60,464.14
14.71702,440.41,461.69
14.73714,443.22,464.85
14.75592,440.08,461.07
14.77646,440.66,462.05
14.79563,440.49,460.48
14.81728,442.62,460.13
14.83619,442.69,457.66
14.85546,440.37,457.72
14.87579,439.64,457.60
14.89606,441.16,456.42
14.91722,441.41,456.94
14.93658,439.49,448.63
14.95649,439.20,430.39
14.97589,438.15,413.95
14.99704,432.01,397.70
15.01594,431.05,384.83
15.03583,429.61,367.88
15.05626,429.23,358.46
15.07612,425.41,351.94
15.09585,423.39,346.65
15.11590,426.74,343.77
15.13630,428.19,345.10
15.15678,430.00,349.94
15.17586,432.93,355.41
15.19640,432.81,361.85
15.21651,435.65,371.93
15.23589,436.13,381.03
15.25714,439.49,390.28
15.27573,438.71,396.35
15.29739,437.83,403.63
15.31737,440.31,412.79
15.33613,439.92,415.99
15.35630,437.97,423.76
15.37630,439.54,428.75
15.39582,442.04,434.11
15.41579,443.16,437.78
15.43621,444.20,438.95
15.45587,444.05,442.65
15.47603,445.78,446.87
15.49747,440.74,445.55
15.51818,440.87,448.06
15.53749,438.91,447.29
15.55669,440.29,449.52
15.57840,440.48,452.27
15.59760,437.23,466.38
15.61876,435.87,490.68
15.63764,436.55,524.72
15.65756,440.08,560.20
15.67881,442.79,586.82
15.69936,445.60,604.52
15.71853,445.55,612.93
15.73748,444.54,607.20
15.75869,442.47,593.19
15.77827,442.23,579.18
15.79906,440.27,565.44
15.81882,438.99,551.13
15.83896,437.93,536.16
15.85811,438.47,526.89
15.87992,438.77,516.36
15.89852,436.13,506.44
15.92032,436.86,495.56
15.94020,435.67,492.01
15.95896,434.42,483.86
15.98031,432.88,480.62
15.99944,429.05,477.20
16.01885,430.26,473.62
16.04023,426.59,470.33
16.06026,426.63,466.71
16.08094,428.20,467.57
16.10079,426.24,462.81
16.12110,426.20,463.94
16.13937,430.29,464.65
16.16170,428.22,462.35
16.18090,428.05,461.93
16.20209,427.20,457.71
16.22149,429.17,457.80
16.24104,427.91,458.68
16.26056,427.52,457.01
16.28162,427.73,457.22
16.30179,426.46,456.92
16.32130,427.18,454.47
16.34236,427.54,454.22
16.36188,427.83,452.79
16.38221,428.11,456.39
16.40069,429.35,456.56
16.42148,425.83,452.78
16.44215,426.95,456.34
16.46126,425.67,454.67
16.48087,426.91,456.39
16.50178,426.98,452.37
16.52084,426.38,453.98
16.54158,426.63,454.66
16.56084,428.50,452.14
16.58115,425.45,453.44
16.60150,428.75,454.34
16.62254,429.87,454.05
16.64162,428.75,452.36
16.66183,429.96,452.08
16.68396,431.44,454.71
16.70397,432.42,453.25
16.72280,431.36,453.05
16.74257,430.10,453.82
16.76404,430.44,455.87
16.78309,430.89,453.90
16.80426,429.79,455.64
16.82485,431.29,454.80
16.84495,430.25,454.42
16.86371,431.72,454.21
16.88356,431.83,457.93
16.90440,432.15,455.63
16.92356,432.79,456.03
16.94629,433.65,456.52
16.96619,435.23,457.98
16.98582,433.39,456.26
17.00474,436.03,456.49
17.02502,434.80,459.31
17.04441,436.12,458.35
17.06458,435.19,457.72
17.08560,433.72,458.29
17.10590,435.33,457.44
17.12677,436.51,456.93
17.14664,435.73,456.24
17.16558,438.79,454.72
17.18675,439.72,454.97
17.20738,439.97,455.82
17.22596,440.90,459.33
17.24693,441.66,457.24
17.26623,441.16,460.08
17.28624,440.12,460.68
17.30654,438.63,458.04
17.32745,439.80,457.54
17.34573,438.11,460.17
17.36687,437.74,460.30
17.38623,437.49,457.13
17.40628,439.80,456.57
17.42639,438.63,456.42
17.44764,438.89,456.55
17.46768,440.82,458.79
17.48642,443.37,457.29
17.50640,444.41,460.57
17.52801,443.04,460.52
17.54662,444.16,461.00
17.56823,443.41,458.62
17.58770,443.84,458.58
17.60651,440.48,458.42
17.62734,442.64,460.83
17.64745,443.19,459.61
17.66856,442.01,460.55
17.68846,443.44,460.26
17.70778,443.31,463.57
17.72815,444.88,461.54
17.74886,443.20,460.81
17.76821,444.50,463.97
17.78856,443.80,464.80
17.81013,442.09,464.04
17.82941,444.20,462.17
17.85061,442.86,465.48
17.87124,445.05,463.79
17.89241,445.81,463.78
17.91261,443.97,463.39
17.93271,444.44,464.33
17.95292,445.38,464.84
17.97267,444.65,464.95
17.99331,445.17,463.01
18.01320,444.83,464.16
18.03417,445.93,464.34
18.05333,443.76,466.24
18.07257,446.49,465.92
18.09405,445.21,464.45
18.11373,448.18,465.26
18.13415,445.78,464.57
18.15413,447.74,466.93
18.17281,447.90,466.02
18.19250,446.87,467.26
18.21427,445.11,467.78
18.23379,445.19,467.50
18.25412,446.68,463.02
18.27344,448.00,464.84
18.29381,445.30,467.73
18.31410,445.40,465.80
18.33402,440.48,467.59
18.35394,443.56,468.11
18.37243,441.34,467.81
18.39315,442.28,468.62
18.41304,440.62,468.35
18.43266,443.04,469.12
18.45278,440.64,466.66
18.47357,438.92,468.96
18.49364,438.09,465.58
18.51492,437.08,467.54
18.53503,436.67,466.53
18.55452,437.93,464.55
18.57362,437.14,465.22
18.59343,435.28,467.32
18.61427,434.63,465.41
18.63529,432.45,463.75
18.65677,432.19,462.00
18.67797,435.28,465.05
18.69785,433.59,465.08
18.71737,433.44,462.51
18.73890,432.18,465.22
18.75879,429.77,463.66
18.77916,429.97,463.13
18.80020,429.40,463.67
18.81934,430.59,460.23
18.83865,430.52,460.85
18.85952,431.46,461.59
18.87972,431.14,459.37
18.89894,429.24,457.54
18.91914,430.53,456.73
18.94063,430.62,455.78
18.96172,429.10,454.70
18.98038,429.52,455.98
19.00030,428.39,454.48
19.02104,432.01,454.90
19.04159,429.49,453.50
19.06034,430.33,454.61
19.08015,428.48,453.63
19.10095,432.01,454.77
19.12066,431.87,455.04
19.14144,427.82,453.91
19.16147,427.38,454.67
19.18120,429.35,453.82
19.20196,430.40,454.27
19.22238,428.27,455.38
19.24151,430.98,457.44
19.26172,428.78,454.00
19.28101,426.58,451.30
19.30272,422.26,440.34
19.32218,419.87,426.16
19.34267,416.89,410.59
19.36164,417.57,393.95
19.38227,416.79,379.27
19.40262,417.01,362.65
19.42318,415.81,350.93
19.44151,414.85,342.97
19.46260,418.68,337.61
19.48250,417.64,334.13
19.50148,421.84,335.33
19.52254,425.26,336.38
19.54192,427.55,344.59
19.56339,428.35,353.79
19.58390,430.48,361.35
19.60420,436.18,374.33
19.62264,437.75,383.89
19.64261,438.91,392.20
19.66349,437.27,400.76
19.68453,439.78,407.01
19.70377,440.68,415.92
19.72493,439.27,420.51
19.74492,440.32,426.21
19.76524,439.52,430.79
19.78439,436.03,434.30
19.80390,438.76,440.93
19.82478,437.37,440.92
19.84395,436.42,444.95
19.86483,436.48,445.06
19.88385,436.90,452.41
19.90500,436.24,474.51
19.92414,440.03,509.46
19.94525,442.63,543.77
19.96373,443.07,569.30
19.98488,441.90,588.29
20.00312,443.83,599.60
20.02396,441.78,596.27
20.04452,440.67,587.17
20.06354,441.24,575.61
20.08400,441.08,558.96
20.10436,440.48,546.30
20.12484,438.13,533.77
20.14364,438.12,523.53
20.16386,434.45,515.69
20.18381,438.05,507.43
20.20368,436.13,500.24
20.22316,437.06,494.35
20.24464,437.69,488.92
20.26453,438.98,484.65
20.28362,439.13,481.92
20.30430,439.96,477.30
20.32426,439.53,477.55
20.34448,439.24,472.79
20.36454,442.90,472.47
20.38485,439.97,471.37
20.40408,439.27,469.69
20.42452,440.66,467.48
20.44504,439.96,465.93
20.46489,440.86,467.36
20.48488,438.70,467.35
20.50454,437.02,464.18
20.52522,439.84,463.71
20.54433,440.17,465.88
20.56484,440.47,466.08
20.58486,440.35,464.76
20.60407,438.39,463.92
20.62356,436.24,465.89
20.64362,439.62,466.22
20.66383,439.66,466.83
20.68492,437.80,465.60
20.70481,439.82,463.10
20.72457,440.06,462.67
20.74395,438.31,463.38
20.76499,440.07,464.91
20.78598,438.37,464.47
20.80793,440.14,464.49
20.82721,441.01,466.99
20.84689,443.88,464.99
20.86752,443.79,463.89
20.88985,441.82,465.15
20.90868,442.76,465.85
20.92984,445.64,466.66
20.94950,445.32,466.79
20.97149,442.25,467.31
20.99064,444.40,467.31
21.01195,443.85,466.72
21.03166,441.66,463.09
21.05142,441.38,465.52
21.07032,443.89,465.89
21.09146,442.68,465.79
21.11251,439.37,464.56
21.13394,440.18,464.30
21.15315,437.03,463.86
21.17323,434.70,464.99
21.19377,435.16,465.32
21.21396,434.19,462.89
21.23494,433.08,461.80
21.25342,434.63,459.63
21.27576,432.53,459.07
21.29507,432.12,461.53
21.31544,431.25,459.64
21.33757,430.16,458.84
21.35835,430.02,456.96
21.37862,430.24,458.21
21.39917,429.51,457.33
21.41873,427.73,455.20
21.43862,427.66,455.28
21.45742,428.74,454.40
21.47899,427.61,454.03
21.49810,428.73,456.77
21.51910,426.97,454.78
21.53931,428.02,456.26
21.55875,428.95,454.13
21.57778,427.55,452.83
21.59794,427.64,455.34
21.61750,425.29,455.50
21.63922,428.35,456.00
21.65876,425.82,454.32
21.67898,426.81,452.88
21.69823,428.12,454.70
21.71920,429.92,455.59
21.73911,426.84,455.62
21.75815,428.44,453.48
21.77748,428.28,453.05
21.79779,427.01,453.90
21.81838,425.52,452.09
21.83836,425.61,454.58
21.85747,428.53,454.69
21.87726,430.02,452.94
21.89856,430.62,451.41
21.91854,428.62,455.09
21.93830,428.98,455.01
21.95725,428.03,451.89
21.97744,427.04,454.12
21.99798,426.24,453.64
22.01849,426.61,452.63
22.03745,427.06,452.38
22.05750,425.87,452.81
22.07864,427.00,450.96
22.09910,428.31,453.64
22.11863,427.10,451.45
22.13897,428.13,455.67
22.15868,426.37,452.09
22.17937,426.33,452.21
22.19756,425.93,454.02
22.21891,426.40,451.53
22.23857,427.55,455.50
22.25923,427.40,452.47
22.27876,427.67,455.40
22.29919,427.77,451.54
22.31739,427.89,453.21
22.33913,426.43,453.77
22.35972,429.89,455.00
22.37864,429.53,452.62
22.39838,431.57,454.74
22.41847,432.73,453.95
22.44034,430.78,454.61
22.45978,430.68,455.58
22.47984,432.00,455.31
22.50064,432.72,455.96
22.51941,433.45,454.91
22.54089,431.87,454.00
22.55934,433.17,455.19
22.58125,433.37,455.76
22.60021,432.87,455.40
22.62032,432.27,454.14
22.64024,432.99,455.35
22.65950,434.85,455.40
22.68083,432.47,456.05
22.70032,434.13,456.98
22.72109,431.33,457.91
22.74225,433.51,458.06
22.76030,435.12,457.88
22.78212,437.02,455.37
22.80165,435.64,454.06
22.82120,435.99,456.23
22.84201,435.31,454.20
22.86178,433.83,455.23
22.88108,434.40,455.74
22.90099,434.13,455.66
22.92215,433.48,456.26
22.94142,436.67,457.57
22.96153,432.55,455.52
22.98066,436.21,459.12
23.00040,434.04,458.44
23.02146,433.12,457.52
23.04215,434.28,458.46
23.06203,435.31,455.70
23.08014,437.47,458.85
23.10162,435.01,456.05
23.12175,435.61,455.47
23.14160,437.69,457.19
23.16029,437.67,450.09
23.18287,435.34,439.51
23.20158,433.38,425.35
23.22127,435.25,412.39
23.24313,432.28,397.45
23.26152,430.08,381.91
23.28160,433.86,370.49
23.30264,431.81,361.18
23.32252,430.25,355.25
23.34305,427.54,352.02
23.36277,429.90,348.83
23.38321,430.73,351.50
23.40323,429.43,354.55
23.42197,429.38,356.95
23.44300,430.91,361.26
23.46298,431.98,369.52
23.48154,432.75,376.74
23.50314,435.66,382.98
23.52250,434.63,393.11
23.54329,436.61,399.21
23.56195,436.90,404.31
23.58223,434.38,412.47
23.60169,434.79,416.22
23.62235,437.85,422.98
23.64278,438.55,426.66
23.66284,435.87,430.89
23.68169,438.24,434.01
23.70276,437.73,450.18
23.72308,438.46,466.32
23.74295,440.10,485.29
23.76140,443.45,500.76
23.78296,442.94,525.31
23.80135,447.08,548.44
23.82280,448.32,567.45
23.84181,448.15,586.21
23.86298,448.35,592.80
23.88187,449.97,589.89
23.90226,447.25,580.85
23.92269,446.06,568.09
23.94153,446.13,555.93
23.96260,444.95,546.99
23.98472,443.41,533.22
24.00345,443.70,525.62
24.02515,442.54,515.84
24.04407,442.74,510.23
24.06491,442.63,504.20
24.08325,442.66,497.20
24.10340,442.67,493.04
24.12527,443.92,487.96
24.14357,441.11,485.92
24.16451,442.72,482.80
24.18393,443.22,477.17
24.20443,441.36,477.33
24.22356,440.36,476.73
24.24492,442.16,471.92
24.26364,440.85,472.78
24.28468,442.90,472.24
24.30476,440.37,472.63
24.32523,443.54,470.09
24.34432,441.27,471.65
24.36536,444.90,467.32
24.38439,444.98,467.76
24.40525,443.44,465.61
24.42482,442.96,464.81
24.44483,443.84,464.67
24.46553,444.63,464.00
24.48564,445.29,466.32
24.50641,445.64,464.98
24.52575,447.48,466.06
24.54489,444.25,465.78
24.56505,446.50,465.58
24.58563,447.43,465.66
24.60621,449.23,464.86
24.62582,448.34,462.70
24.64544,446.52,464.40
24.66449,449.76,463.17
24.68460,448.82,461.63
24.70524,448.56,464.99
24.72439,446.25,464.67
24.74540,446.72,462.11
24.76666,447.49,463.70
24.78645,445.69,463.49
24.80706,443.19,466.87
24.82837,445.93,467.28
24.84736,441.79,464.21
24.86656,443.74,465.17
24.88721,444.56,464.43
24.90715,444.66,464.90
24.92706,445.42,467.24
24.94635,444.50,466.64
24.96727,444.39,465.86
24.98640,442.70,467.21
25.00781,443.54,464.88
25.02767,446.25,465.45
25.04813,443.91,467.00
25.06714,443.17,464.98
25.08781,441.39,466.46
25.10821,442.11,465.72
25.12805,442.17,466.80
25.14820,443.37,464.83
25.16719,444.21,465.64
25.18701,445.77,464.88
25.20664,446.66,463.82
25.22625,446.23,465.13
25.24656,441.35,465.64
25.26737,441.94,462.22
25.28656,441.97,462.00
25.30767,440.54,465.79
25.32697,440.45,463.46
25.34609,441.55,463.82
25.36637,441.71,465.03
25.38798,441.99,466.56
25.40658,443.23,464.17
25.42641,441.19,464.01
25.44820,441.26,466.72
25.46653,443.92,463.70
25.48693,442.77,465.11
25.50689,444.41,467.17
25.52733,444.86,466.43
25.54785,444.02,464.46
25.56737,443.53,465.44
25.58695,442.52,465.51
25.60660,445.31,462.81
25.62794,442.68,463.75
25.64690,444.29,464.02
25.66634,444.42,465.20
25.68795,443.43,464.58
25.70624,443.23,464.51
25.72733,442.16,464.13
25.74643,443.04,464.76
25.76674,443.01,466.69
25.78816,443.49,468.55
25.80634,441.43,468.14
25.82630,444.86,467.92
25.84712,442.91,465.31
25.86711,443.82,464.61
25.88622,443.53,468.35
25.90611,442.30,467.65
25.92645,442.85,467.19
25.94800,444.48,465.79
25.96723,444.26,466.78
25.98882,443.37,465.87
26.00843,444.96,464.95
26.03031,440.31,466.32
26.04989,439.87,462.61
26.07143,438.98,463.49
26.09288,438.33,463.98
26.11406,434.78,463.51
26.13259,432.91,462.60
26.15309,433.06,459.76
26.17236,432.04,459.45
26.19286,431.67,458.32
26.21309,428.61,458.31
26.23362,428.53,457.75
26.25499,427.52,457.64
26.27349,428.41,458.73
26.29549,425.08,458.17
26.31493,423.96,458.10
26.33643,427.61,455.37
26.35554,425.67,455.18
26.37679,426.08,454.60
26.39679,426.86,455.91
26.41649,428.03,453.28
26.43567,430.21,454.69
26.45685,428.89,452.24
26.47668,429.91,454.84
26.49629,428.07,452.06
26.51546,426.41,454.66
26.53601,427.44,453.31
26.55577,425.62,453.80
26.57660,425.57,453.09
26.59595,427.50,451.40
26.61803,425.10,452.42
26.63632,425.69,453.76
26.65823,426.46,451.61
26.67671,425.08,453.92
26.69747,427.49,454.23
26.71773,426.55,454.54
26.73627,426.43,452.94
26.75729,425.27,453.29
26.77664,425.01,454.81
26.79786,424.56,452.38
26.81783,426.30,453.62
26.83727,425.12,454.21
26.85769,427.28,454.92
26.87765,425.48,454.46
26.89714,427.67,455.35
26.91662,428.01,456.76
26.93796,426.30,457.74
26.95734,427.97,456.18
26.97770,425.97,456.93
26.99722,429.51,457.17
27.01641,430.02,458.47
27.03794,430.50,456.72
27.05655,429.40,457.52
27.07788,427.70,455.08
27.09665,430.91,456.01
27.11787,430.81,456.35
27.13675,431.25,456.51
27.15832,429.89,457.65
27.17793,429.67,453.68
27.19722,429.74,456.59
27.21895,432.29,453.23
27.23823,429.12,452.86
27.25857,429.24,455.08
27.27732,429.68,455.37
27.29728,429.15,455.43
27.31860,432.56,456.41
27.34004,431.56,455.48
27.36032,434.08,455.57
27.37972,435.52,456.36
27.39908,435.46,458.17
27.42160,437.08,459.27
27.44155,436.48,456.74
27.46038,440.31,459.17
27.48094,440.28,458.43
27.50098,437.22,458.63
27.52291,439.65,457.70
27.54193,439.34,456.61
27.56267,440.16,458.04
27.58154,439.71,457.95
27.60223,439.38,458.64
27.62161,442.17,458.65
27.64254,442.93,460.67
27.66391,443.84,458.37
27.68260,442.48,460.02
27.70390,443.57,460.96
27.72331,443.64,463.85
27.74425,445.78,461.23
27.76487,441.20,451.35
27.78451,442.42,436.29
27.80423,441.57,416.21
27.82466,438.41,397.19
27.84405,440.06,380.37
27.86498,434.37,368.13
27.88496,437.06,358.25
27.90486,435.25,351.55
27.92338,433.28,348.50
27.94379,433.17,349.26
27.96379,434.77,350.35
27.98407,435.18,351.68
28.00312,438.78,359.11
28.02457,440.09,366.82
28.04332,440.88,373.14
28.06311,445.05,379.24
28.08392,446.54,384.44
28.10436,445.11,388.40
28.12387,444.68,393.31
28.14527,446.71,399.24
28.16390,444.94,404.40
28.18329,441.85,408.43
28.20349,443.81,413.22
28.22379,443.98,420.31
28.24501,444.01,425.59
28.26317,446.26,429.93
28.28444,444.87,434.57
28.30390,447.14,439.66
28.32562,444.19,441.98
28.34499,444.65,445.90
28.36503,445.60,455.26
28.38482,445.78,476.17
28.40484,449.92,504.81
28.42477,451.58,535.59
28.44491,452.79,565.53
28.46543,451.15,592.38
28.48503,454.71,608.84
28.50563,452.97,629.10
28.52580,455.62,631.38
28.54608,456.08,625.76
28.56533,455.46,611.55
28.58481,455.98,595.69
28.60642,452.70,580.18
28.62710,449.48,565.18
28.64584,452.07,549.00
28.66564,448.54,536.00
28.68602,448.55,523.48
28.70685,448.59,515.24
28.72682,445.03,506.07
28.74653,443.69,499.84
28.76673,443.56,491.94
28.78682,445.09,485.77
28.80694,443.36,484.56
28.82601,445.58,480.96
28.84518,443.93,476.00
28.86607,446.02,475.33
28.88677,442.26,475.28
28.90584,446.06,473.09
28.92783,442.28,473.45
28.94765,444.86,471.65
28.97004,443.04,467.07
28.98853,439.70,469.48
29.00865,440.84,467.67
29.02915,438.11,466.12
29.04869,438.37,465.63
29.06855,439.27,463.23
29.08906,435.65,461.77
29.10889,438.51,461.00
29.12912,437.05,462.55
29.14952,439.88,464.39
29.16818,438.78,462.61
29.18959,435.75,464.12
29.21098,437.75,464.11
29.23069,437.72,464.22
29.25181,434.15,463.83
29.27192,433.14,461.69
29.29258,433.42,458.68
29.31253,433.30,460.70
29.33202,431.74,461.76
29.35187,430.79,461.77
29.37225,430.62,459.05
29.39249,431.75,461.69
29.41267,430.14,460.12
29.43210,430.68,461.72
29.45247,431.93,462.00
29.47174,430.13,460.68
29.49275,426.95,462.79
29.51174,429.48,463.92
29.53141,425.86,462.36
29.55246,429.85,462.49
29.57160,429.19,464.41
29.59206,425.71,462.69
29.61232,427.88,463.00
29.63129,427.03,462.75
29.65133,426.12,461.51
29.67209,427.03,459.22
29.69256,428.12,461.11
29.71121,427.46,458.17
29.73233,427.08,456.57
29.75349,426.48,456.45
29.77331,430.97,455.35
29.79475,431.44,458.03
29.81473,432.72,457.94
29.83564,430.68,458.33
29.85469,429.65,457.51
29.87417,431.90,458.53
29.89419,429.97,458.53
29.91606,431.96,455.14
29.93589,428.15,455.21
29.95457,428.17,456.29
29.97445,427.11,454.76
29.99485,429.25,456.80
30.01518,428.93,456.51
30.03493,429.93,455.10
30.05561,428.95,456.38
30.07490,428.16,455.72
30.09573,427.50,454.50
30.11589,428.42,455.99
30.13489,429.63,454.50
30.15447,430.12,453.25
30.17486,430.67,453.41
30.19399,428.92,453.26
30.21547,427.78,453.21
30.23420,427.98,454.59
30.25417,430.69,453.18
30.27455,429.26,453.40
30.29505,427.15,452.65
30.31443,430.54,450.38
30.33420,427.90,449.63
30.35528,427.12,449.87
30.37577,429.84,451.04
30.39516,426.81,449.45
30.41529,428.95,451.28
30.43413,430.66,452.73
30.45417,428.45,452.99
30.47523,427.33,451.42
30.49559,426.21,450.89
30.51561,426.22,451.90
30.53533,426.91,454.58
30.55506,428.39,451.80
30.57525,427.27,451.42
30.59553,427.33,452.24
30.61481,427.53,454.14
30.63602,425.89,454.65
30.65469,426.27,452.67
30.67513,428.55,454.85
30.69505,426.14,455.56
30.71466,427.74,453.39
30.73540,427.27,452.46
30.75520,425.11,454.78
30.77472,428.22,454.18
30.79465,428.34,452.69
30.81497,427.89,453.33
30.83517,429.88,453.59
30.85581,428.05,455.18
30.87572,427.75,455.33
30.89505,427.33,454.24
30.91484,429.27,453.72
30.93513,430.47,454.24
30.95442,430.04,454.04
30.97594,429.16,456.12
30.99598,429.53,455.89
31.01527,428.45,456.31
31.03422,427.14,452.62
31.05532,429.89,454.62
31.07448,430.24,455.15
31.09521,429.45,455.24
31.11409,427.10,453.87
31.13608,426.11,456.08
31.15584,428.59,452.31
31.17513,427.31,456.32
31.19396,428.94,455.38
31.21466,428.96,455.53
31.23486,427.78,455.78
31.25534,431.39,453.98
31.27520,427.48,456.52
31.29514,428.53,454.82
31.31582,428.16,453.20
31.33509,429.84,455.66
31.35538,428.78,454.39
31.37534,431.39,455.33
31.39440,428.88,452.97
31.41528,430.52,452.66
31.43562,430.38,454.61
31.45717,432.48,453.96
31.47694,433.11,455.76
31.49707,434.04,453.75
31.51984,433.21,453.75
31.54004,434.97,457.89
31.56032,438.65,456.89
31.58042,438.70,456.18
31.60132,441.38,457.92
31.62204,439.32,461.81
31.64176,442.24,459.87
31.66152,443.97,462.52
31.68152,445.35,461.11
31.70095,445.65,463.00
31.72089,447.46,463.66
31.74139,446.60,462.30
31.76005,446.62,463.70
31.78191,446.09,462.15
31.80307,446.42,462.40
31.82197,445.20,459.43
31.84198,443.39,459.43
31.86312,444.07,460.01
31.88351,444.93,460.37
31.90231,443.48,460.00
31.92227,443.29,462.21
31.94406,444.33,462.58
31.96528,443.06,459.08
31.98529,446.20,456.21
32.00465,444.45,450.56
32.02515,447.07,443.08
32.04490,450.83,436.88
32.06668,451.73,436.65
32.08625,455.96,442.24
32.10719,462.40,453.69
32.12894,469.06,467.23
32.14825,466.79,473.75
32.16869,467.13,477.72
32.18721,463.98,467.70
32.20883,457.05,448.07
32.22825,448.67,420.57
32.24725,443.93,400.67
32.26807,435.55,381.42
32.28863,429.96,364.09
32.30947,423.36,356.48
32.32955,418.35,351.27
32.34936,413.59,348.51
32.36899,410.13,348.18
32.39106,412.60,354.40
32.41104,412.14,358.07
32.43011,408.55,368.48
32.45207,410.87,373.48
32.47221,412.61,381.53
32.49109,414.01,390.68
32.51170,414.73,396.23
32.53329,414.70,404.55
32.55367,416.52,409.68
32.57464,417.60,415.12
32.59314,417.54,419.59
32.61444,420.68,433.36
32.63465,422.45,457.98
32.65343,422.41,484.35
32.67497,426.18,519.22
32.69479,429.81,545.73
32.71317,430.87,569.21
32.73361,432.19,578.02
32.75447,433.27,574.35
32.77449,433.08,568.35
32.79415,434.28,554.52
32.81415,432.53,543.04
32.83463,433.51,530.63
32.85499,432.48,523.87
32.87640,432.57,511.29
32.89601,432.01,505.25
32.91751,433.02,494.18
32.93893,435.47,490.91
32.95777,434.72,484.87
32.97849,436.31,479.83
32.99907,436.05,478.20
33.01862,437.91,474.01
33.03783,436.90,470.74
33.05894,437.97,470.66
33.07731,437.28,469.23
33.09762,437.75,467.99
33.11833,438.43,465.61
33.13732,439.87,467.05
33.15775,439.08,466.15
33.17716,437.39,466.88
33.19848,436.37,463.49
33.21843,438.58,464.58
33.23822,436.66,464.16
33.25746,438.72,462.39
33.27882,436.68,462.17
33.29805,435.95,461.05
33.31834,438.46,462.56
33.33733,438.78,462.44
33.35852,436.98,459.04
33.37722,438.32,456.96
33.39704,437.54,457.36
33.41703,439.44,457.64
33.43880,440.08,457.57
33.45741,440.39,459.52
33.47735,438.18,456.55
33.49877,438.93,457.35
33.51792,438.51,459.95
33.53713,442.92,457.15
33.55747,443.50,459.80
33.57704,439.53,461.05
33.59887,438.84,459.42
33.61871,441.74,460.55
33.63775,442.56,460.23
33.65717,441.14,457.94
33.67715,441.63,460.77
33.69728,442.60,460.70
33.71858,441.04,460.14
33.73846,439.08,461.43
33.75848,439.76,460.16
33.77874,439.20,459.78
33.79877,440.44,460.37
33.81844,442.32,459.70
33.83761,440.91,458.68
33.85822,439.89,459.17
33.87821,438.25,459.27
33.89707,440.71,461.97
33.91788,439.63,458.78
33.93811,440.93,460.49
33.95845,437.16,459.74
33.97758,439.11,458.36
33.99752,439.22,460.41
34.01874,438.48,460.73
34.03781,439.04,459.39
34.05967,439.16,461.17
34.07975,443.26,459.70
34.09961,443.61,462.21
34.11964,443.28,459.92
34.13837,444.24,458.67
34.16067,441.85,458.96
34.17908,444.08,462.13
34.19999,441.27,460.63
34.22151,442.53,460.70
34.24118,441.81,463.28
34.26164,445.26,461.32
34.28171,442.57,463.03
34.30105,445.23,462.02
34.32057,443.92,463.99
34.34196,444.99,464.84
34.36266,443.12,465.03
34.38286,441.68,463.75
34.40234,441.97,462.53
34.42248,442.64,465.53
34.44419,442.94,464.40
34.46327,442.41,464.10
34.48499,441.40,463.69
34.50565,443.27,464.33
34.52624,443.58,464.11
34.54611,441.07,464.59
34.56657,440.73,462.40
34.58569,440.71,463.48
34.60500,439.11,463.19
34.62695,438.19,460.92
34.64491,438.84,461.73
34.66564,437.03,461.81
34.68770,435.72,460.19
34.70688,438.82,457.63
34.72754,437.49,458.33
34.74703,436.17,458.35
34.76775,435.30,460.45
34.78628,434.40,459.43
34.80647,433.69,459.72
34.82717,432.37,457.56
34.84976,434.37,456.86
34.86909,431.18,459.16
34.88926,430.65,460.08
34.90973,430.45,456.58
34.92801,431.03,457.37
34.94958,430.78,459.76
34.96804,426.76,459.96
34.98912,427.36,459.46
35.00919,430.08,458.41
35.02864,430.16,456.72
35.04823,428.31,457.53
35.06973,428.02,459.59
35.08917,430.08,459.29
35.10927,429.11,456.50
35.12797,429.64,458.79
35.14959,426.55,456.86
35.16978,426.88,458.57
35.18967,427.32,458.49
35.21040,425.37,454.70
35.22988,426.58,455.80
35.25178,428.32,453.94
35.27057,425.64,455.26
35.29048,425.77,454.97
35.31167,425.05,453.74
35.33142,424.95,455.56
35.35061,427.93,454.92
35.37100,426.53,455.09
35.39165,426.03,454.72
35.41020,426.20,454.97
35.43048,424.26,453.29
35.45155,426.07,456.25
35.47187,423.67,454.30
35.49124,425.61,454.74
35.51160,423.53,451.80
35.53028,426.43,454.06
35.55148,427.07,451.83
35.57089,425.76,451.81
35.59014,425.85,454.48
35.61133,426.80,452.76
35.63129,428.19,452.94
35.65011,424.97,455.51
35.67042,425.20,455.23
35.69154,427.93,453.24
35.71053,425.92,452.62
35.73121,428.63,453.12
35.75142,429.80,456.06
35.77114,429.21,454.15
35.79178,429.37,454.28
35.81131,428.46,456.93
35.83064,427.87,456.53
35.85165,427.57,454.56
35.87033,426.49,453.82
35.89015,429.12,456.53
35.91050,427.70,457.48
35.93198,429.09,454.37
35.95152,429.75,456.37
35.97114,427.84,456.26
35.99034,426.16,454.88
36.01051,426.50,457.65
36.03053,426.25,455.61
36.05166,425.80,456.07
36.07158,428.39,454.13
36.09135,426.85,453.40
36.11066,427.61,454.68
36.13019,427.38,453.97
36.15123,427.92,453.58
36.17011,427.39,454.66
36.19169,428.82,452.58
36.21185,429.24,451.90
36.23117,428.59,455.40
36.25059,427.52,453.29
36.27176,429.11,454.79
36.29172,426.00,454.07
36.31167,425.35,450.75
36.33096,424.57,440.67
36.34995,424.17,425.97
36.37187,420.14,405.43
36.39132,418.79,384.82
36.41022,417.70,368.02
36.42997,413.63,356.24
36.45174,411.71,350.05
36.47246,412.09,345.72
36.49150,410.99,343.47
36.51174,414.21,341.20
36.53148,412.05,346.04
36.55256,414.91,351.30
36.57268,416.27,355.86
36.59100,418.62,362.47
36.61370,420.29,370.70
36.63430,421.42,377.65
36.65344,426.50,388.10
36.67433,429.63,393.34
36.69384,430.01,402.31
36.71419,434.29,408.55
36.73669,433.29,414.08
36.75699,438.96,420.13
36.77754,442.53,427.87
36.79814,442.08,430.39
36.81761,445.60,435.19
36.83853,446.74,439.70
36.85805,446.97,441.39
36.87868,447.91,445.05
36.89845,449.18,446.61
36.91811,447.60,455.42
36.93966,449.17,481.16
36.95872,449.85,510.15
36.97898,453.13,548.16
37.00014,457.48,581.60
37.01939,456.55,607.77
37.03838,457.99,619.14
37.05838,456.71,623.64
37.07972,454.95,613.99
37.09998,453.71,600.12
37.11900,451.10,584.49
37.13846,451.47,567.86
37.15964,449.99,555.49
37.17912,446.87,538.62
37.19875,445.87,529.75
37.22035,447.50,515.22
37.24044,446.69,506.69
37.25920,446.70,501.15
37.27957,446.32,492.44
37.29923,444.69,488.32
37.31959,446.74,483.28
37.34049,442.37,480.58
37.36159,443.86,476.15
37.38187,443.99,475.24
37.40078,441.48,472.65
37.42082,442.29,472.27
37.44144,444.12,469.16
37.46140,441.82,467.77
37.48126,442.21,470.22
37.50054,445.10,465.29
37.52149,445.17,466.54
37.54132,444.71,464.54
37.56139,445.69,464.37
37.58065,442.26,465.91
37.60124,445.62,463.94
37.62090,445.86,466.53
37.64078,443.34,464.57
37.66162,443.24,464.66
37.68102,442.92,465.35
37.70139,442.24,463.80
37.72202,444.24,466.21
37.74070,446.49,464.04
37.76084,445.45,464.68
37.78177,444.45,466.09
37.80057,443.20,467.14
37.82019,446.06,463.70
37.84084,444.97,466.24
37.86000,443.35,466.50
37.88166,444.95,464.77
37.90082,446.99,464.67
37.91990,446.54,465.08
37.94039,445.67,467.30
37.96187,446.79,467.99
37.98215,446.23,467.77
38.00284,443.95,466.04
38.02241,445.77,467.39
38.04210,443.04,469.88
38.06241,442.09,467.56
38.08222,444.00,466.87
38.10322,440.70,468.02
38.12358,443.91,468.13
38.14292,443.19,466.41
38.16330,442.62,466.81
38.18265,443.88,466.40
38.20325,441.91,468.99
38.22313,443.79,468.45
38.24249,443.50,466.97
38.26389,442.13,467.13
38.28322,441.64,466.62
38.30368,440.37,467.33
38.32328,440.77,467.47
38.34299,441.91,466.49
38.36337,443.16,466.84
38.38367,442.67,463.87
38.40387,441.81,465.97
38.42325,440.79,465.75
38.44182,441.52,465.18
38.46372,439.01,466.90
38.48218,439.86,464.89
38.50276,441.20,465.00
38.52235,441.81,465.71
38.54333,441.29,463.62
38.56295,440.61,465.04
38.58253,442.30,465.90
38.60335,443.51,465.51
38.62277,443.96,463.96
38.64279,443.02,466.74
38.66315,440.48,462.42
38.68381,441.36,463.60
38.70318,440.91,465.56
38.72307,440.08,465.64
38.74219,441.36,467.69
38.76194,441.49,467.21
38.78322,440.75,465.79
38.80313,439.26,466.21
38.82367,440.63,467.14
38.84244,438.93,464.73
38.86259,440.10,467.50
38.88266,439.28,466.70
38.90218,440.56,466.81
38.92211,442.55,465.91
38.94277,440.97,465.72
38.96245,440.67,464.03
38.98301,440.17,461.45
39.00263,440.34,463.43
39.02229,440.20,462.20
39.04227,438.96,462.11
39.06245,438.86,463.54
39.08332,441.18,461.69
39.10243,438.12,460.94
39.12350,437.87,460.69
39.14314,441.14,462.05
39.16442,436.59,464.65
39.18367,439.57,462.10
39.20431,437.29,463.63
39.22362,439.25,464.96
39.24359,438.95,462.87
39.26355,438.43,465.58
39.28387,438.75,465.18
39.30413,442.04,464.15
39.32360,438.55,461.89
39.34383,440.35,464.58
39.36315,439.31,462.72
39.38491,437.55,464.08
39.40486,436.04,461.52
39.42465,437.73,462.25
39.44525,437.22,465.08
39.46418,437.07,462.09
39.48578,437.12,462.79
39.50369,437.22,463.94
39.52401,435.45,463.11
39.54489,433.79,464.42
39.56570,433.72,465.00
39.58539,433.09,463.53
39.60630,429.76,460.69
39.62559,431.06,462.68
39.64614,429.79,461.50
39.66597,428.80,461.82
39.68551,430.48,458.92
39.70515,427.05,460.26
39.72476,429.63,462.88
39.74488,426.69,462.32
39.76621,429.65,459.60
39.78748,426.32,458.79
39.80768,425.45,457.11
39.82804,425.50,458.32
39.84851,424.50,457.38
39.86876,427.24,457.33
39.88855,426.55,457.99
39.90961,424.08,455.42
39.92941,424.97,456.03
39.94818,425.98,456.22
39.96930,426.09,455.27
39.98871,427.37,455.02
40.00946,425.95,455.52
40.02804,428.04,454.97
40.04780,427.73,455.05
40.06895,426.14,453.74
40.09029,427.70,454.34
40.11088,427.22,454.59
40.13151,427.73,454.90
40.15169,427.98,455.92
40.17070,427.75,455.57
40.19174,428.79,453.57
40.21148,431.21,455.02
40.23205,428.14,457.97
40.25210,432.05,455.81
40.27206,431.10,452.42
40.29247,431.72,453.05
40.31259,431.86,450.33
40.33106,430.79,451.59
40.35150,430.86,453.72
40.37124,430.89,453.31
40.39140,434.27,453.50
40.41217,434.07,455.03
40.43107,433.54,453.96
40.45270,429.88,458.38
40.47237,431.58,455.83
40.49273,430.18,459.13
40.51109,433.33,459.16
40.53267,432.62,458.73
40.55258,429.07,456.51
40.57248,429.29,457.60
40.59099,432.24,456.01
40.61360,431.27,454.39
40.63228,432.89,458.65
40.65229,431.05,456.32
40.67302,431.88,456.83
40.69185,433.31,458.92
40.71371,431.86,460.70
40.73194,432.23,452.83
40.75257,429.50,440.95
40.77246,427.03,421.99
40.79281,424.02,403.53
40.81266,420.40,387.75
40.83201,417.73,371.81
40.85251,417.30,358.39
40.87211,415.37,350.43
40.89333,416.31,346.66
40.91236,418.76,344.60
40.93229,419.39,344.09
40.95278,420.51,346.16
40.97303,425.08,349.28
40.99161,424.51,356.73
41.01249,428.66,362.70
41.03271,430.25,371.50
41.05290,430.48,378.68
41.07245,434.45,387.40
41.09388,435.81,396.24
41.11292,436.76,404.33
41.13217,433.55,408.60
41.15309,434.34,414.80
41.17227,434.56,420.50
41.19203,437.18,426.98
41.21294,436.47,430.36
41.23358,435.63,437.54
41.25241,434.09,443.22
41.27367,434.92,461.34
41.29314,437.83,484.26
41.31283,436.06,517.58
41.33352,440.57,548.49
41.35288,440.49,573.74
41.37198,443.94,590.27
41.39272,445.89,604.89
41.41255,447.61,602.24
41.43276,448.21,594.25
41.45312,448.04,580.86
41.47313,448.83,567.67
41.49208,446.40,552.93
41.51340,443.70,541.49
41.53215,442.76,531.52
41.55257,441.40,521.53
41.57190,441.37,509.07
41.59192,439.50,500.89
41.61377,438.91,495.15
41.63270,441.63,489.12
41.65369,438.73,486.55
41.67196,442.48,484.70
41.69238,442.68,484.12
41.71189,440.38,482.21
41.73294,440.60,477.98
41.75220,440.00,475.36
41.77290,440.12,474.88
41.79225,439.60,472.02
41.81239,437.21,472.80
41.83298,438.69,470.68
41.85201,438.15,467.34
41.87376,438.66,467.32
41.89426,436.89,466.37
41.91324,439.58,466.35
41.93404,437.96,466.33
41.95379,440.07,463.45
41.97559,439.86,464.34
41.99447,439.50,465.28
42.01440,441.95,463.54
42.03463,441.03,462.93
42.05465,442.11,465.30
42.07527,442.93,466.35
42.09532,445.46,464.47
42.11665,445.53,463.80
42.13626,445.22,465.31
42.15525,442.43,463.21
42.17508,443.56,463.57
42.19514,444.93,464.68
42.21505,442.01,463.52
42.23469,443.05,466.50
42.25688,443.32,467.13
42.27525,443.77,464.18
42.29630,443.78,464.57
42.31591,445.79,466.06
42.33550,445.66,467.74
42.35547,447.50,466.12
42.37641,444.43,466.12
42.39654,446.16,467.15
42.41517,443.05,465.90
42.43505,445.61,464.58
42.45672,445.26,466.09
42.47553,443.39,467.44
42.49568,445.64,467.76
42.51662,444.13,466.47
42.53670,446.18,466.41
42.55582,445.76,465.25
42.57704,446.33,468.57
42.59614,446.61,465.34
42.61612,442.57,468.62
42.63734,445.62,466.74
42.65772,444.94,468.25
42.67735,444.28,467.52
42.69680,444.98,467.94
42.71750,446.54,464.90
42.73706,445.22,465.36
42.75768,443.54,464.01
42.77650,442.95,466.11
42.79746,442.06,466.11
42.81692,441.92,464.37
42.83667,443.23,464.15
42.85704,443.48,465.59
42.87712,441.80,463.26
42.89731,444.49,465.69
42.91599,443.73,465.94
42.93604,444.22,462.60
42.95631,442.44,464.12
42.97661,444.17,464.18
42.99711,445.37,465.09
43.01613,445.53,462.71
43.03800,446.94,463.22
43.05717,448.12,463.11
43.07738,445.08,463.62
43.09615,443.48,463.20
43.11764,443.33,464.70
43.13698,444.54,464.24
43.15627,445.23,464.21
43.17695,445.75,468.54
43.19693,448.92,479.02
43.21764,450.73,498.98
43.23730,453.61,523.57
43.25615,457.56,550.34
43.27637,461.64,571.55
43.29779,466.62,587.77
43.31725,470.15,592.64
43.33629,471.81,584.44
43.35724,471.42,570.40
43.37601,469.95,549.42
43.39770,467.44,519.92
43.41736,460.78,486.16
43.43826,455.85,457.63
43.45773,453.51,429.55
43.47888,448.51,412.90
43.49765,446.16,404.44
43.51735,443.01,401.91
43.53848,444.94,404.22
43.55819,444.22,411.44
43.57846,445.60,428.67
43.59686,443.90,450.64
43.61756,447.34,472.27
43.63754,450.21,491.27
43.65830,453.48,505.59
43.67748,454.05,514.82
43.69779,455.89,510.71
43.71734,451.75,497.65
43.73718,448.94,475.49
43.75700,446.74,446.03
43.77893,440.51,423.00
43.79893,434.24,399.28
43.81908,427.34,376.89
43.83978,419.23,365.78
43.86060,413.05,358.38
43.87962,411.73,359.30
43.89896,406.33,365.73
43.91905,405.72,372.06
43.94002,406.89,382.23
43.96016,407.57,392.03
43.98170,407.91,405.40
43.99969,410.46,413.60
44.02139,409.70,429.51
44.04025,415.22,452.33
44.06106,416.96,491.38
44.07995,423.23,544.79
44.10026,435.72,594.56
44.12086,451.71,633.57
44.14028,464.09,664.49
44.16166,471.45,683.63
44.18057,476.12,687.66
44.19981,480.80,676.01
44.21991,478.25,654.19
44.24100,476.76,622.49
44.26002,469.76,584.92
44.28116,460.85,542.64
44.30005,451.59,498.79
44.32158,445.21,465.10
44.34182,440.53,431.86
44.36091,434.99,403.01
44.38073,429.10,383.45
44.40063,429.33,364.61
44.42132,428.13,352.40
44.44058,427.92,346.93
44.46065,425.38,338.45
44.48159,426.62,334.98
44.50127,425.01,337.24
44.51988,426.24,348.06
44.54046,426.65,373.10
44.55979,423.54,406.77
44.58082,423.58,445.57
44.60115,428.90,478.05
44.62087,428.70,497.64
44.64115,431.23,504.31
44.66179,433.65,500.69
44.68124,430.26,492.23
44.70221,432.94,481.08
44.72197,433.73,472.38
44.74186,434.69,464.25
